0.0068758	0.00997311	0.000592306	0.00195185	0.000450425	0.005654	0.00501928	0.00337855
0.00330257	0.0103436	0.000647739	0.000869351	0.000443653	0.00559095	0.00229475	0.00497147
0.00202534	0.0125654	0.000509265	0.00154655	0.000587841	0.00461843	0.00412533	0.00601596
0.00103991	0.0117038	0.000757835	0.00262274	0.000858536	0.00272721	0.00779781	0.0085855
0.000713571	0.00429841	0.000953149	0.00181714	0.000747831	0.00165217	0.00806218	0.00870005
0.00067959	0.00479813	0.000751419	0.000708455	0.000662323	0.00343558	0.00857928	0.00654336
0.000808428	0.0080928	0.000608372	0.000606784	0.000661086	0.00546794	0.0067528	0.00476464
0.000809223	0.0132931	0.000454267	0.000704029	0.000579587	0.00356789	0.00464466	0.00399077
0.00116958	0.0111417	0.00055487	0.00118602	0.000586736	0.00119316	0.00540776	0.00343162
0.021169	0.00344607	0.000702447	0.00183657	0.000605247	0.00460411	0.00681245	0.0060645
0.027233	0.00173637	0.000772072	0.00141801	0.00072156	0.00651677	0.00557999	0.00802338
0.00805491	0.00170458	0.000716371	0.000653161	0.000561032	0.00288001	0.00210519	0.00509977
0.00150992	0.016558	0.000573502	0.000872563	0.000667377	0.00133338	0.00114622	0.00356386
0.000593459	0.0288912	0.000865648	0.00105044	0.00103696	0.00134357	0.00136481	0.00228029
0.00134161	0.0155178	0.000902466	0.000907316	0.000825041	0.00130609	0.000930713	0.00313751
0.00285363	0.00438384	0.00067157	0.00102537	0.000593899	0.00179082	0.00148717	0.00355955
0.00496974	0.00705514	0.000585019	0.000985711	0.000614419	0.00187049	0.00293193	0.00254186
0.00504364	0.0202669	0.000605217	0.00106908	0.000631037	0.00155707	0.00284912	0.00302122
0.00280836	0.0306503	0.000821068	0.00103364	0.000504404	0.00158926	0.00233976	0.00222576
0.00124778	0.0161094	0.00069369	0.000654029	0.000396544	0.00179771	0.00160919	0.000923193
0.00114661	0.00168987	0.000648072	0.000713364	0.000394306	0.00137661	0.00101372	0.00379011
0.00198301	0.00160276	0.000849751	0.000677101	0.00037958	0.000674758	0.000807343	0.00700095
0.00263698	0.000843793	0.000742226	0.000688912	0.000371003	0.000405747	0.000507689	0.00491801
0.00217403	0.000808153	0.00058419	0.000695527	0.000387225	0.000450219	0.000942293	0.00164613
0.0010577	0.00540622	0.000565955	0.000574865	0.000405464	0.00060421	0.00113164	0.000774244
0.000622705	0.0145804	0.000749398	0.000674661	0.000457229	0.000864472	0.000916963	0.00156863
0.00609157	0.0218563	0.000764619	0.000714997	0.000577707	0.00178943	0.000864182	0.00218638
0.0107867	0.0198276	0.000694826	0.000570934	0.00057183	0.00417283	0.00095432	0.00134794
0.00604738	0.00956881	0.000765724	0.000436064	0.000619266	0.00424942	0.000952088	0.000628642
0.00149867	0.0040659	0.000822671	0.000464256	0.000639002	0.00291472	0.000789405	0.000509521
0.00113422	0.00347756	0.000863094	0.000609563	0.000549847	0.00281852	0.000882205	0.00231204
0.00359207	0.00619742	0.000738653	0.000560641	0.000514477	0.00144828	0.000853242	0.00345213
0.00380834	0.0105012	0.000611957	0.00089507	0.000505744	0.000647733	0.00103566	0.00283651
0.00130401	0.0195044	0.000645057	0.000937207	0.000524354	0.00168152	0.0009455	0.00187642
0.000592656	0.0176648	0.000699206	0.000456231	0.000470904	0.00172232	0.000732934	0.0009017
0.000519512	0.00564478	0.000878846	0.000363477	0.000485641	0.000743197	0.000871056	0.0010129
0.000538139	0.0055169	0.000791238	0.000471515	0.00053366	0.000704489	0.000929987	0.00087222
0.00304077	0.00608666	0.000450117	0.000633855	0.000497293	0.00103195	0.00077696	0.00146235
0.00512093	0.0128285	0.000464327	0.000636252	0.000538531	0.00113918	0.000531999	0.00163771
0.00375447	0.0164689	0.00058886	0.000650455	0.000580003	0.00083406	0.000645119	0.0020148
0.00176595	0.00699621	0.000599695	0.000536284	0.000533218	0.000592875	0.000837136	0.00241545
0.00141765	0.00914408	0.00077624	0.000553886	0.000566628	0.0006427	0.000694009	0.00146054
0.00157228	0.0116368	0.000840392	0.000698613	0.000554636	0.000821331	0.000617876	0.000920516
0.000780509	0.00851401	0.00067904	0.000639689	0.000525887	0.000782158	0.000634669	0.00067222
0.00526451	0.0206934	0.000700829	0.00056832	0.000607535	0.000992202	0.000639287	0.000574339
0.00747967	0.0302908	0.000774063	0.000447107	0.000596123	0.00123338	0.000643917	0.000635374
0.00366143	0.0228274	0.000735097	0.000516722	0.000556432	0.000985992	0.000773549	0.00129844
0.00553128	0.00911854	0.000636387	0.000645515	0.000555207	0.000735898	0.00111461	0.00245978
0.00778827	0.00154879	0.000716446	0.00051738	0.000530827	0.000674091	0.000905406	0.00191184
0.00398524	0.0048424	0.000777263	0.000437489	0.000478114	0.000684186	0.000573888	0.0007224
0.00176895	0.0148666	0.000831664	0.00043085	0.000408369	0.000963281	0.000619707	0.00113287
0.00536043	0.0141583	0.000733161	0.000490576	0.000516554	0.0017162	0.000720748	0.00192448
0.00989589	0.0109239	0.000627472	0.000525568	0.00059673	0.001673	0.000599523	0.00146577
0.00794776	0.025457	0.00087182	0.000388705	0.000554601	0.00144567	0.000453826	0.000702172
0.00390907	0.02093	0.000778462	0.000450389	0.000627805	0.00144405	0.000475528	0.000938562
0.00243521	0.0041594	0.000593204	0.000614393	0.000630203	0.00119032	0.000558111	0.00152521
0.00501864	0.0042164	0.000700077	0.000476103	0.00067264	0.00107086	0.000753869	0.00131768
0.0149199	0.00905959	0.000526782	0.000482308	0.000620121	0.000866019	0.000705891	0.00101851
0.0145059	0.0117477	0.00044385	0.00057175	0.000656423	0.000721236	0.000474306	0.00111852
0.00555205	0.0139076	0.000700719	0.000541573	0.00095146	0.000720702	0.000470525	0.000993658
0.0052926	0.0256209	0.000678124	0.000530905	0.000845776	0.000587045	0.000627423	0.000879441
0.00454837	0.0202311	0.000558368	0.000506548	0.000621682	0.000548126	0.000677805	0.000967286
0.00218963	0.00473565	0.000655395	0.000494952	0.000637941	0.000657016	0.000865743	0.00098977
0.00188939	0.00359988	0.000677536	0.000450024	0.000574209	0.000821589	0.000781632	0.00061675
0.00266271	0.00300201	0.000666273	0.000447852	0.000859728	0.00138507	0.000439089	0.000633191
0.0162469	0.00219365	0.000565386	0.000512158	0.00128859	0.00105576	0.000514817	0.00120629
0.0182385	0.0025031	0.00107985	0.00053517	0.00139858	0.000381841	0.000597889	0.00219523
0.00462055	0.0119736	0.00142102	0.000475522	0.00105446	0.000463939	0.000680212	0.0022188
0.00477498	0.0185712	0.00101644	0.000442064	0.000935041	0.000693445	0.000614491	0.00134413
0.00915332	0.0203614	0.00093877	0.00054288	0.00153848	0.000848332	0.000459923	0.00133128
0.00682253	0.0153875	0.000961105	0.000483651	0.00139067	0.000749354	0.000622254	0.00130388
0.00214358	0.00683826	0.000967382	0.000457758	0.000838581	0.000636561	0.000789773	0.00250609
0.000657708	0.00701271	0.000859517	0.0005485	0.00075867	0.00113253	0.000774168	0.00271584
0.000461338	0.00690267	0.000658993	0.000579917	0.000674851	0.00127191	0.000696262	0.00160304
0.000487032	0.00464612	0.000587294	0.000658817	0.000969621	0.000835386	0.000776313	0.00108415
0.000691091	0.00162776	0.000818353	0.000584181	0.00135301	0.000768423	0.000867905	0.000651709
0.000619823	0.00102054	0.00100413	0.000595086	0.00115688	0.000645185	0.000677664	0.000750188
0.000454055	0.00102826	0.000802596	0.000660383	0.000847779	0.000607908	0.000736528	0.000559207
0.000573835	0.00174885	0.000659632	0.000585893	0.000990749	0.000682988	0.00101863	0.000574925
0.000612652	0.00196007	0.000804547	0.000473135	0.00108713	0.000652077	0.000931548	0.000843416
0.000548056	0.00148776	0.00103212	0.000445199	0.000871928	0.000880513	0.000715119	0.000870179
0.00048519	0.00139499	0.000970656	0.000454384	0.000793811	0.000871786	0.000780606	0.000780313
0.000611261	0.00110372	0.000872575	0.000538286	0.00110279	0.00052058	0.00076054	0.000782734
0.000702739	0.00069204	0.000924243	0.000558413	0.00163815	0.000439365	0.000760679	0.000704044
0.000593272	0.00104501	0.000755953	0.000474046	0.00133092	0.000498743	0.00073755	0.000706737
0.000479521	0.0010679	0.000676899	0.000658424	0.000962296	0.00064345	0.000781315	0.000730155
0.000444081	0.00116759	0.000988984	0.000940044	0.000836172	0.000685673	0.000963711	0.000779604
0.000506596	0.0013861	0.00109533	0.000828057	0.000606028	0.00067585	0.000745259	0.000773755
0.000484768	0.00110574	0.000768284	0.000732581	0.0010578	0.000637405	0.000713174	0.000677779
0.000519254	0.00100605	0.000742033	0.000860777	0.00111072	0.000518521	0.000758484	0.000631577
0.000576494	0.00151194	0.000922396	0.00102038	0.000612495	0.000750681	0.000725561	0.000656833
0.000461327	0.00950608	0.000729004	0.000948124	0.000497903	0.00129453	0.000971137	0.000794535
0.000396454	0.0124802	0.000621084	0.000619667	0.000597598	0.00128355	0.00083155	0.000800867
0.000470162	0.00452419	0.000674953	0.000684256	0.000790461	0.00124702	0.000655255	0.000781243
0.000555916	0.000992304	0.000717453	0.00119968	0.00146192	0.00132989	0.00072311	0.000957916
0.000561766	0.000669207	0.000675392	0.00115945	0.00130396	0.00082443	0.000651555	0.000998957
0.000576878	0.000943668	0.00065169	0.000840311	0.0007594	0.000692656	0.000703652	0.000909868
0.000602308	0.00114581	0.000775426	0.000711603	0.000966225	0.00123372	0.00063658	0.000805038
0.000603352	0.00299836	0.000686763	0.00053821	0.00103753	0.00147091	0.000636757	0.00125779
0.000609007	0.00532787	0.000632576	0.000517158	0.000910806	0.00107853	0.000582039	0.00222625
0.000549909	0.00183698	0.000514953	0.000417638	0.000188702	0.000237901	0.00387272	0.00120939
0.000493211	0.00225959	0.000674197	0.000998132	0.000369606	0.000404019	0.00393485	0.00215263
0.000537736	0.00196362	0.000819044	0.00126379	0.00042428	0.00057794	0.00292643	0.00397493
0.000684259	0.00113029	0.00073748	0.00113601	0.00049139	0.000600218	0.00261353	0.00594431
0.000807012	0.000772471	0.000567983	0.00142831	0.000530634	0.000575797	0.00482672	0.00535049
0.00202402	0.0007974	0.000534262	0.0017545	0.000442828	0.00060013	0.00559045	0.00544677
0.00209085	0.000931744	0.000502194	0.00111555	0.000483352	0.000523657	0.00418017	0.00658469
0.000947358	0.000921894	0.000533801	0.00101475	0.000504064	0.000696272	0.00453701	0.00646424
0.00069453	0.000641166	0.000661662	0.0012117	0.000391075	0.00076029	0.00520679	0.0104011
0.00129306	0.000528506	0.00064228	0.000986974	0.000410348	0.000806137	0.0038325	0.0110947
0.00228274	0.000646553	0.000648687	0.00104267	0.000526432	0.000688869	0.00278239	0.00848595
0.00410532	0.00328423	0.000789025	0.000800341	0.000566542	0.000527154	0.00318761	0.00973809
0.00467484	0.0103228	0.000610423	0.000693845	0.000628678	0.000609685	0.00294721	0.00863858
0.00240878	0.0102945	0.000429029	0.0012085	0.000560148	0.000643051	0.00307558	0.00677362
0.000832321	0.00447222	0.000476203	0.0013448	0.000425047	0.000574231	0.00524815	0.00843505
0.0013348	0.00241308	0.000542969	0.0017491	0.000447009	0.000541888	0.00537481	0.00703959
0.00205511	0.00242737	0.000805896	0.00155643	0.000422785	0.000596839	0.00278566	0.00536392
0.00154096	0.00736672	0.000815066	0.000882522	0.000440847	0.000681198	0.0033744	0.00848694
0.000762683	0.0140392	0.000639868	0.000766355	0.00072293	0.000897292	0.00478765	0.00823926
0.00123531	0.0104814	0.000683734	0.000842211	0.000709334	0.0009019	0.00384464	0.0066179
0.00193594	0.00358441	0.000797989	0.000832502	0.000559574	0.000680576	0.00324402	0.00628214
0.00136599	0.00196507	0.000726601	0.000743595	0.000574292	0.00049174	0.00355587	0.00350143
0.00316725	0.00128425	0.000659005	0.000751825	0.000451518	0.000483628	0.00323885	0.00328908
0.00332791	0.000754921	0.000605489	0.000642626	0.000422359	0.000608869	0.00186285	0.00295311
0.00146134	0.00344568	0.000591301	0.000907936	0.000470456	0.00059476	0.00267349	0.00574245
0.00167964	0.00502865	0.000712083	0.00106498	0.00051693	0.000550623	0.0035208	0.00810752
0.00126367	0.00307404	0.000533682	0.000869199	0.000768992	0.000591765	0.00286777	0.00771838
0.000754333	0.002592	0.000432089	0.000839003	0.00104383	0.000594935	0.00262938	0.00623742
0.00153786	0.00154514	0.000549028	0.00123273	0.000733906	0.000679475	0.00214983	0.00559279
0.00138768	0.000589243	0.000597576	0.00142513	0.000437662	0.00083322	0.00165147	0.0047196
0.000507114	0.000768163	0.000687648	0.00136805	0.000482906	0.000725815	0.00176313	0.00483274
0.000496061	0.00110611	0.000660672	0.00114171	0.000540814	0.00064276	0.00172967	0.00487864
0.000609376	0.00090594	0.000605298	0.000761186	0.000550661	0.000624927	0.00285227	0.00240292
0.000646889	0.000555307	0.000684177	0.00137764	0.000591555	0.000581253	0.00547668	0.00144128
0.000747824	0.000675477	0.000742487	0.00154793	0.000716097	0.00074793	0.0051724	0.00477847
0.000648552	0.00186729	0.000756227	0.000871754	0.00058892	0.000864018	0.00530064	0.0135125
0.000834245	0.0024438	0.000778518	0.000839778	0.000615216	0.000659183	0.00539279	0.0121466
0.00324368	0.0101301	0.000683368	0.00108467	0.000696439	0.000537047	0.00307463	0.00476631
0.00330655	0.0130606	0.000675041	0.00107398	0.000551746	0.000613207	0.00472291	0.00451971
0.000978287	0.00447154	0.000816477	0.000973385	0.000477906	0.000727505	0.00577	0.00526629
0.000670009	0.000860704	0.000653818	0.00122451	0.000548218	0.000570309	0.00396519	0.004196
0.000488597	0.000649821	0.0005414	0.00144868	0.000606428	0.000448818	0.00402712	0.0027694
0.000496194	0.000793052	0.000595604	0.00127614	0.000625703	0.000572146	0.00339871	0.00466154
0.000468068	0.00420047	0.000632189	0.000950413	0.00062925	0.00063174	0.00227216	0.00533901
0.00133171	0.00547087	0.000685575	0.000902727	0.000615317	0.000600057	0.00261747	0.00511964
0.00169855	0.00216792	0.000632193	0.00173784	0.0006393	0.000464739	0.00511576	0.0145917
0.00158939	0.00161282	0.000728797	0.0016854	0.000576509	0.000613276	0.00505194	0.0163065
0.00256596	0.00157563	0.000730766	0.000915932	0.000483538	0.000743216	0.00254502	0.00546374
0.00381329	0.0010353	0.000855986	0.000754835	0.000400925	0.000685983	0.00256043	0.00466981
0.00332841	0.00106564	0.000845757	0.000561553	0.000364589	0.000597951	0.00202974	0.00493491
0.00148751	0.000810812	0.000660913	0.000716332	0.00035582	0.000562476	0.00268281	0.00272217
0.000573459	0.00063961	0.000627496	0.000930031	0.000544869	0.000711277	0.00305104	0.00512319
0.000593094	0.000682856	0.000621554	0.00183878	0.000626576	0.000731267	0.00371893	0.0053016
0.000728479	0.000632696	0.000645882	0.00227711	0.000512852	0.000536893	0.00375901	0.00527577
0.000549945	0.00258629	0.000663441	0.00155473	0.000534358	0.000493733	0.00327644	0.00731824
0.000537636	0.0109307	0.000679253	0.00111996	0.000502459	0.000573002	0.00266438	0.00910083
0.000738557	0.0106072	0.000734911	0.000864375	0.000459697	0.000469774	0.00176299	0.00963581
0.00172652	0.00314393	0.000634615	0.000987607	0.00080589	0.000473085	0.00320276	0.00809759
0.00170434	0.00179852	0.000676265	0.0013363	0.00083127	0.000835383	0.00507671	0.0100852
0.00143629	0.00109001	0.000712568	0.00119828	0.000529583	0.000927819	0.00563853	0.010323
0.00297363	0.000580897	0.000652155	0.00147201	0.000453112	0.000668522	0.00416041	0.00490172
0.002431	0.000494039	0.000627811	0.0016789	0.000518108	0.000601811	0.00279426	0.00178185
0.000939567	0.000526824	0.000731536	0.00104565	0.000519486	0.000574166	0.00214257	0.00560422
0.000627956	0.000716404	0.000766121	0.000824235	0.000499766	0.000469028	0.00238433	0.0105262
0.000547661	0.000706098	0.000897841	0.0011692	0.000570956	0.000506974	0.00555617	0.0100286
0.000629812	0.000651216	0.000932691	0.00145855	0.000626951	0.000692315	0.00645569	0.00701152
0.00122568	0.000725478	0.000597407	0.00135253	0.000586925	0.00068708	0.00436101	0.00622146
0.00118409	0.000652042	0.000635184	0.00147527	0.000546038	0.000629525	0.00386377	0.0088535
0.000600295	0.000602939	0.000682339	0.00205501	0.000563075	0.000562987	0.00694613	0.01101
0.000574309	0.000648594	0.000682434	0.0019625	0.000577335	0.000680649	0.00709362	0.00768757
0.000504361	0.000527178	0.000644672	0.00113572	0.000529651	0.000777273	0.0042777	0.0038887
0.00143581	0.000584259	0.000516182	0.00116336	0.000451437	0.000604618	0.00391425	0.00210988
0.00194316	0.000703946	0.00057563	0.00100467	0.000406415	0.000535451	0.00265013	0.00559296
0.000960764	0.000745958	0.000681816	0.000663073	0.000517418	0.000614204	0.00197296	0.00732353
0.000498484	0.00111718	0.00065235	0.000927441	0.000397819	0.000685341	0.0038491	0.00444405
0.000509971	0.00150417	0.000587904	0.0010894	0.000402271	0.000539116	0.00372576	0.00267301
0.00358471	0.00126842	0.00062018	0.000939888	0.000541132	0.000400622	0.00251889	0.00316484
0.00456425	0.000776215	0.000725413	0.00166206	0.000538768	0.000638258	0.0076376	0.00583021
0.00199019	0.000579458	0.00078703	0.00185804	0.000729349	0.000806102	0.00876889	0.00480696
0.0014516	0.000734881	0.000702725	0.00123528	0.000717609	0.00070628	0.00316794	0.00379751
0.000991294	0.000667669	0.000589907	0.00139122	0.000536625	0.000584986	0.00277786	0.00428045
0.000541066	0.000566742	0.000540901	0.00208037	0.00056346	0.000621188	0.00565442	0.00322251
0.000655129	0.000627865	0.000471418	0.00223045	0.000670928	0.00049593	0.00469954	0.00573011
0.000654493	0.00062449	0.0005258	0.00133977	0.000592458	0.000509388	0.00222915	0.00644165
0.000836502	0.000685374	0.00068452	0.00107505	0.000588319	0.000664376	0.00262949	0.00283163
0.00227913	0.000636877	0.000589808	0.000928316	0.000607845	0.000641692	0.00362795	0.00469577
0.00218037	0.00058248	0.000556857	0.000849243	0.000586702	0.000726609	0.00273397	0.00774741
0.00121102	0.0013429	0.000665065	0.00147019	0.000620053	0.000618865	0.00261758	0.00716903
0.00157338	0.00479881	0.000708043	0.00208541	0.000598074	0.000538098	0.00443783	0.00564295
0.00126221	0.00463491	0.000737773	0.00214043	0.000613993	0.000488484	0.00617417	0.00357153
0.00296205	0.00116871	0.000707048	0.00169238	0.000688098	0.000472884	0.00478157	0.00632246
0.00407335	0.000820671	0.000754638	0.00124868	0.000610788	0.000554064	0.00423246	0.00935113
0.00253326	0.000818886	0.000707742	0.00142589	0.000573741	0.000560955	0.00682607	0.0109741
0.00165517	0.000853332	0.000727592	0.00114391	0.000510795	0.000505048	0.00632824	0.00757824
0.00173748	0.000863992	0.000589999	0.000947346	0.000426473	0.000459282	0.0030524	0.00247199
0.00186543	0.000949073	0.000412571	0.00102642	0.000550961	0.000577422	0.00267039	0.00465087
0.00165894	0.00102927	0.000610522	0.00103552	0.000730018	0.000611827	0.00299909	0.00580363
0.00119991	0.000780878	0.000636818	0.00125213	0.000619353	0.000617045	0.00254709	0.00723498
0.000661723	0.00061717	0.000570863	0.00106807	0.000570154	0.000591608	0.00223927	0.00782533
0.000603989	0.000661927	0.00084703	0.00157864	0.000534839	0.000585742	0.00476463	0.00509377
0.00911163	0.0154563	0.000742764	0.000667804	0.000767126	0.00605194	0.00162647	0.00111916
0.00178153	0.0180916	0.000717292	0.0010647	0.000687202	0.0037656	0.00500961	0.00305558
0.00122091	0.0251941	0.000680843	0.000914959	0.000486711	0.00103493	0.00400662	0.00752412
0.00426997	0.0151363	0.000825384	0.000733326	0.000454514	0.00125158	0.00249982	0.00540521
0.00729404	0.0113919	0.000787589	0.00161865	0.000490088	0.0013983	0.00591349	0.00956937
0.0158891	0.00575696	0.000738521	0.00217866	0.000495315	0.00103307	0.00825005	0.00731794
0.0155954	0.0082427	0.000698824	0.00170173	0.000634218	0.00200339	0.00407937	0.00122463
0.00354908	0.0104486	0.000667289	0.00242847	0.000586301	0.00404081	0.00579697	0.00238086
0.00180051	0.00288719	0.000913324	0.00278912	0.000475134	0.00449441	0.00494444	0.00436492
0.00165308	0.00400682	0.000787586	0.00168416	0.000594229	0.00246122	0.00183097	0.00681209
0.00159871	0.006962	0.000662289	0.00179188	0.000500383	0.00183258	0.00233048	0.00673864
0.00387686	0.00862373	0.000687149	0.00172543	0.000544605	0.00410524	0.00322949	0.00231157
0.00224866	0.0172678	0.000842234	0.00203524	0.000528588	0.00399501	0.00215538	0.000770025
0.00137793	0.0262949	0.000616783	0.00136133	0.000498237	0.00134426	0.00206613	0.000935148
0.00203175	0.0228573	0.000761833	0.0020066	0.000488839	0.00136666	0.00267883	0.00477162
0.00532993	0.0135265	0.000712749	0.00209152	0.000764508	0.00396287	0.00218955	0.00700654
0.00643076	0.00892289	0.000484788	0.00102904	0.000794423	0.00451019	0.00275462	0.00418867
0.00434556	0.0164795	0.00073009	0.00092748	0.00051677	0.00365827	0.00227002	0.00280748
0.0123289	0.0103273	0.000701593	0.00099887	0.00052681	0.00679759	0.00242983	0.00549671
0.0169778	0.00536848	0.000518348	0.00206434	0.000635838	0.00627951	0.00599953	0.00396763
0.00474706	0.0106381	0.000595218	0.00194076	0.000635604	0.00478823	0.00458617	0.00306111
0.00474815	0.013879	0.000802386	0.000763807	0.000683551	0.00183762	0.00110617	0.00148198
0.00673056	0.0116787	0.000908467	0.000505162	0.000726615	0.00169881	0.000725415	0.000653187
0.00216416	0.0294794	0.000760037	0.0010149	0.000651704	0.00171352	0.00119074	0.000679116
0.00332179	0.0331053	0.000608768	0.00195555	0.000659768	0.00277731	0.00133646	0.000537966
0.0155326	0.0135077	0.000598374	0.00125218	0.000605089	0.00394762	0.000895944	0.00384897
0.012083	0.0185032	0.000612949	0.00137989	0.000620726	0.00478633	0.00109292	0.00553656
0.00163157	0.0182509	0.00065966	0.00176973	0.00059544	0.00389021	0.000860963	0.00298672
0.000770985	0.00983204	0.000678605	0.00084468	0.000432595	0.00267314	0.000964848	0.00188491
0.00267382	0.0111702	0.000630026	0.000698939	0.000378561	0.00193326	0.00132767	0.00106509
0.0040949	0.010022	0.000787923	0.000612719	0.000396844	0.00130499	0.000985694	0.00137453
0.00263495	0.0198842	0.000733456	0.000434172	0.000432818	0.00127565	0.000883665	0.00258847
0.00229715	0.0228562	0.000650097	0.000840923	0.000444793	0.00109886	0.000778082	0.00242813
0.0024193	0.0216524	0.000684216	0.001272	0.000585271	0.00122092	0.000639287	0.00107019
0.00108101	0.0119346	0.000756696	0.000969492	0.000527167	0.00169496	0.000596547	0.000558859
0.000703899	0.00535977	0.000607474	0.000625225	0.000456258	0.00156849	0.000583213	0.000577915
0.00905761	0.00949478	0.0005579	0.000652441	0.000556225	0.00193596	0.00049672	0.00101123
0.0116436	0.00492427	0.000688883	0.000690176	0.000590405	0.00150571	0.000488605	0.000982464
0.00347841	0.00404124	0.000684991	0.000578985	0.0004746	0.00284202	0.00068531	0.000580132
0.00216873	0.00936509	0.000617073	0.000498868	0.000474359	0.00541634	0.000826543	0.000596093
0.00645211	0.0155857	0.000700688	0.00109623	0.000650141	0.00428333	0.00106076	0.000529626
0.0173473	0.0140488	0.00075344	0.00121175	0.000669673	0.00289567	0.00116494	0.000536538
0.0151294	0.00470566	0.000705061	0.000726317	0.000613156	0.00184675	0.000872999	0.00063501
0.00495618	0.00541847	0.000618737	0.000503911	0.000562179	0.00151221	0.000511832	0.00064857
0.00330765	0.011226	0.000470309	0.000473113	0.000559788	0.000926668	0.000409916	0.000838479
0.00203765	0.0140108	0.000591411	0.000614851	0.000539119	0.000722713	0.00059076	0.000754874
0.00153906	0.00900972	0.000645559	0.000714439	0.000495608	0.000914987	0.000605121	0.00112502
0.00102449	0.00501891	0.000576802	0.00116117	0.000527067	0.0010246	0.000569265	0.00222536
0.000584016	0.00608242	0.000530027	0.00147597	0.000548366	0.000827289	0.000585602	0.00157886
0.000379861	0.00630888	0.000559425	0.000941863	0.000542541	0.00144529	0.000582727	0.00137786
0.00109344	0.00723946	0.000989877	0.000610865	0.000615747	0.00194662	0.000659684	0.00118335
0.00315051	0.0117611	0.0009628	0.000509683	0.000559207	0.00245425	0.000596788	0.00116733
0.00183724	0.0246346	0.000635537	0.000562113	0.000601718	0.00242663	0.000616686	0.0012557
0.00447309	0.0235184	0.000648043	0.000578666	0.000599647	0.00179098	0.000626043	0.000785652
0.00942618	0.0146036	0.000798486	0.000421698	0.000598903	0.00137151	0.000718465	0.000691742
0.00576403	0.00618828	0.000823742	0.000439187	0.000572408	0.00140249	0.000644665	0.000775784
0.0045594	0.00982437	0.000732744	0.00045445	0.000696686	0.00160214	0.000577572	0.00164235
0.00784782	0.01307	0.000605527	0.000390429	0.000595054	0.00120393	0.000654036	0.00203347
0.00700653	0.0071882	0.00069303	0.000537041	0.000486754	0.00103068	0.000688773	0.00115667
0.0168566	0.00674976	0.000747039	0.000414649	0.000464083	0.00237692	0.000654113	0.000654066
0.0176212	0.0253042	0.000630351	0.000516948	0.000526886	0.00352755	0.000709823	0.000664275
0.00613271	0.0306741	0.000638152	0.000527761	0.00063023	0.00246723	0.00066787	0.00112047
0.00371753	0.00850346	0.000556506	0.000501108	0.000565102	0.00203892	0.000691803	0.00204127
0.00127688	0.00458622	0.000640024	0.000703767	0.000521549	0.00134753	0.000595387	0.00207633
0.000790031	0.00726919	0.000655711	0.000717227	0.000491601	0.00093875	0.000839038	0.00151139
0.00276876	0.020604	0.00084843	0.000701155	0.000395479	0.00123249	0.000846072	0.00128402
0.00290609	0.0300863	0.000871065	0.00060368	0.000556036	0.00123726	0.000521653	0.000830411
0.0183624	0.0145359	0.000540934	0.000471994	0.000675511	0.000992068	0.000655511	0.000636683
0.0237486	0.00544243	0.000438669	0.000493589	0.000758759	0.00123469	0.000769613	0.000801488
0.00653148	0.0100438	0.000436374	0.000483344	0.000707557	0.00123594	0.000731554	0.00105722
0.00260192	0.0090719	0.000724838	0.000424747	0.000499677	0.00118282	0.00071632	0.000900349
0.00367524	0.00547166	0.000843069	0.000577215	0.000495919	0.000883956	0.00243425	0.000857122
0.00779413	0.0120946	0.000735986	0.000748519	0.000581902	0.000795474	0.0039183	0.00105044
0.00603026	0.0181899	0.000473594	0.000728243	0.000514049	0.000660129	0.00231393	0.00146239
0.00663825	0.0214453	0.000533501	0.000536358	0.000461627	0.000560249	0.00162785	0.00168516
0.00579444	0.0190488	0.000747681	0.000481468	0.000487565	0.000789408	0.000998671	0.0011721
0.0142381	0.009889	0.0005207	0.000547935	0.00067425	0.000874006	0.000594236	0.000746401
0.0175859	0.00930609	0.000571376	0.000683034	0.00118019	0.00054102	0.000585297	0.000947204
0.00405138	0.0128211	0.0006937	0.000599404	0.00082425	0.000772194	0.00078489	0.000861154
0.00127797	0.00701297	0.00093267	0.000459773	0.000933761	0.000808322	0.000695141	0.00104076
0.000948285	0.00262744	0.000729461	0.000463161	0.00120818	0.000751322	0.000552573	0.00114354
0.00152716	0.00418311	0.000638743	0.00050728	0.000625131	0.00072755	0.000618925	0.000714951
0.00165779	0.00436705	0.000902904	0.000414435	0.00086799	0.000710504	0.00077612	0.000763059
0.000809522	0.0069272	0.000808397	0.000368332	0.00086467	0.000749092	0.000704054	0.000708083
0.000555591	0.0123869	0.000577873	0.000567809	0.000718655	0.000713193	0.000520687	0.000820765
0.000876392	0.00887217	0.00151364	0.000587396	0.00113425	0.00135094	0.000837155	0.00110935
0.00102063	0.00600835	0.00141572	0.000570776	0.0016483	0.00159552	0.00151589	0.000982687
0.00067152	0.00340637	0.000898844	0.000799673	0.00123937	0.00111551	0.00138478	0.000914374
0.000674994	0.00185173	0.000841088	0.000764169	0.000822532	0.000790276	0.00123998	0.00172082
0.000751184	0.000867187	0.000762292	0.000617673	0.000825434	0.000727886	0.000884911	0.00172224
0.000642366	0.000980704	0.000741028	0.000592474	0.000850402	0.000748921	0.000863966	0.00120997
0.000697208	0.0011549	0.00075824	0.000478709	0.000945965	0.000618811	0.000866866	0.000748733
0.000541543	0.00184203	0.000754669	0.000532636	0.000912327	0.000621111	0.000786578	0.000516542
0.000560475	0.00275453	0.00073302	0.000586536	0.00078965	0.000691657	0.00084899	0.000656165
0.000504057	0.00221809	0.000723102	0.000978131	0.000892757	0.000700625	0.000732501	0.00074198
0.000493432	0.00122128	0.000611398	0.00158319	0.000752348	0.0005439	0.000645593	0.000741056
0.000617657	0.00102909	0.000774037	0.00148503	0.000557016	0.000857066	0.000695943	0.00120289
0.000558748	0.000871895	0.000831374	0.000949537	0.000758891	0.000816694	0.000967847	0.0010967
0.000522668	0.000855536	0.000566983	0.000606948	0.000708473	0.000527979	0.000828764	0.000672724
0.000597609	0.00154446	0.000590539	0.000858256	0.000435954	0.000590017	0.00109582	0.000760601
0.000549909	0.00183698	0.000514953	0.000417638	0.000188702	0.000237901	0.00387272	0.00120939
0.000490656	0.00225318	0.000719929	0.00104311	0.000363794	0.000408403	0.00389618	0.00248786
0.000580267	0.00171292	0.000801394	0.00135779	0.000429077	0.000568534	0.00280366	0.00427206
0.000783613	0.00114074	0.000703976	0.00113862	0.000507665	0.000616698	0.00250967	0.00654194
0.0012985	0.000904718	0.000568675	0.00164972	0.000502469	0.000580695	0.00492332	0.00454012
0.00207774	0.000911957	0.0004764	0.0016102	0.000410116	0.000552479	0.00587317	0.00635441
0.00128394	0.00091658	0.00055498	0.000941434	0.000521321	0.000648601	0.00420223	0.00766747
0.000761144	0.000695198	0.000519262	0.000990328	0.000476339	0.000721094	0.00499708	0.0075616
0.00100146	0.000424181	0.000689519	0.000946963	0.000359762	0.000779344	0.00397249	0.0115982
0.00182829	0.000575026	0.000609402	0.00102003	0.000490196	0.000763684	0.00257591	0.00955523
0.00385955	0.00195752	0.000747216	0.000855432	0.00052221	0.000558783	0.00273385	0.00878867
0.00493876	0.0102219	0.000615362	0.000687922	0.000647604	0.000623029	0.00344584	0.00862843
0.00252438	0.0103982	0.00043747	0.00118317	0.00058896	0.000653804	0.00315956	0.00694101
0.00081103	0.00450803	0.000460508	0.00138903	0.00041487	0.000559135	0.00535982	0.00855483
0.00133077	0.00242689	0.000526275	0.00185288	0.000431432	0.000565201	0.00495719	0.00714431
0.00199635	0.003189	0.000810615	0.00134193	0.000402916	0.000631844	0.00262907	0.00606858
0.00141736	0.00908267	0.000862886	0.000910159	0.000543511	0.000789329	0.00463796	0.00897541
0.00054473	0.0125908	0.000634448	0.000870483	0.000761125	0.00080767	0.00458803	0.00602383
0.00181172	0.00605002	0.000707194	0.000811146	0.000597662	0.000740445	0.00295128	0.00687576
0.00198647	0.00327997	0.000713205	0.000626431	0.000579198	0.000575886	0.00336021	0.00536381
0.00275088	0.00139084	0.000676704	0.000760838	0.000532436	0.00053089	0.00327057	0.00360494
0.00349902	0.00100016	0.000602041	0.000775912	0.000382198	0.000561093	0.0026206	0.00296109
0.00170164	0.00231587	0.000605001	0.000946418	0.000464522	0.000535085	0.00214346	0.0054324
0.00190638	0.00496306	0.00067216	0.00105771	0.000518504	0.000580615	0.00347935	0.00869645
0.0013208	0.00319055	0.000541219	0.000844421	0.000677861	0.000582722	0.00322912	0.00735313
0.000747384	0.00259204	0.000433277	0.000832292	0.00105082	0.000595533	0.00263068	0.0062092
0.00155135	0.00145193	0.000546974	0.00124219	0.000696969	0.000677888	0.00215227	0.00532492
0.00109887	0.000554041	0.00055095	0.00134668	0.00038965	0.000817055	0.00147692	0.00443755
0.000547223	0.000814689	0.000666697	0.0013298	0.000530646	0.000755814	0.00180487	0.00523187
0.000577746	0.00108882	0.000584117	0.00105786	0.000570195	0.000686849	0.00167828	0.00316376
0.000678578	0.000780566	0.000614736	0.00100221	0.000498649	0.00064461	0.00447546	0.00166684
0.000658168	0.000520891	0.000693071	0.00141257	0.000757228	0.000700194	0.00625221	0.00150249
0.000633802	0.00129441	0.000769468	0.00107456	0.00066287	0.000849373	0.00407376	0.0112677
0.000585602	0.00218972	0.000776806	0.000857245	0.000506976	0.000757472	0.00483573	0.014679
0.0025899	0.00843559	0.000673219	0.00101593	0.00066902	0.000535218	0.00379887	0.00597628
0.00331325	0.0136381	0.000752348	0.00114497	0.000635353	0.000584374	0.00473168	0.00487732
0.00126508	0.00505086	0.000834068	0.00104085	0.000512613	0.000752275	0.00627597	0.00562577
0.000684665	0.00086806	0.000644016	0.00121198	0.000528409	0.000584646	0.00405907	0.00422879
0.000484033	0.000655758	0.000541183	0.00145463	0.000606783	0.000456739	0.00407023	0.00288875
0.000493447	0.000930184	0.000557398	0.0012565	0.000630081	0.000599937	0.00320596	0.00495131
0.000402924	0.00427791	0.000675707	0.00108402	0.000582725	0.000615015	0.00213718	0.00504189
0.00149931	0.00473291	0.000651817	0.00103683	0.000584416	0.000576588	0.00309663	0.00658044
0.00162559	0.00167318	0.000664797	0.00165002	0.000624785	0.000447863	0.00509476	0.0153034
0.00153394	0.00164809	0.000653753	0.0013725	0.0006215	0.000617726	0.00395017	0.0126784
0.00331816	0.00152726	0.000897992	0.000873892	0.00047703	0.000719937	0.00289429	0.0054607
0.00451035	0.00102348	0.000892204	0.000658898	0.000360347	0.000648367	0.00194867	0.00509403
0.00216941	0.000838491	0.000684274	0.000695381	0.000381385	0.000506174	0.00241933	0.00292152
0.00062428	0.000661148	0.000651027	0.000937273	0.000519581	0.000669964	0.00323955	0.00379462
0.000581325	0.000603476	0.000578546	0.00158941	0.000605502	0.000766975	0.00335208	0.00541479
0.000744045	0.000615677	0.000606384	0.00228876	0.000514459	0.000571135	0.00358204	0.00587566
0.000546831	0.00241684	0.000670148	0.00156361	0.000538054	0.000494357	0.00327381	0.00729832
0.000542137	0.0110325	0.000695238	0.00112829	0.000504867	0.0005835	0.00244927	0.00913044
0.0007804	0.0103445	0.000709899	0.000944148	0.000607852	0.000485777	0.00186803	0.00971992
0.00172331	0.003106	0.00055408	0.00120399	0.000825302	0.000483171	0.00354634	0.00798246
0.00141616	0.00160885	0.000734092	0.00124344	0.000630632	0.000802465	0.0057221	0.0105763
0.00242844	0.000924834	0.000768112	0.00114284	0.000455637	0.000837564	0.00470312	0.00867586
0.00325383	0.000447785	0.000621275	0.00175295	0.000492553	0.000630951	0.00296081	0.00172235
0.000997142	0.000549235	0.000659525	0.00131864	0.000535282	0.000579908	0.00295927	0.00381139
0.000618525	0.000618993	0.00078566	0.000798896	0.000487729	0.00051754	0.00130226	0.00956259
0.000559605	0.000746871	0.000849417	0.000864216	0.000603469	0.000448368	0.0049507	0.0109918
0.000553941	0.000608891	0.000954325	0.00147564	0.000614541	0.00062468	0.00672466	0.00771911
0.00123336	0.000643391	0.000655414	0.00134772	0.000535182	0.000678286	0.00417173	0.0055335
0.00120107	0.000629518	0.000612954	0.00148295	0.000547043	0.00063947	0.00371804	0.00831924
0.000597215	0.000601412	0.000683458	0.00206072	0.000568324	0.000564605	0.00698105	0.0109882
0.000575534	0.000682127	0.000701781	0.00189387	0.000552487	0.000677537	0.0068111	0.00716122
0.000472666	0.000534618	0.00065632	0.000984327	0.000524956	0.000700123	0.00408176	0.00370638
0.00157534	0.000593453	0.000569834	0.00112668	0.000413476	0.000532063	0.00373934	0.00293916
0.00189795	0.000689657	0.000594811	0.00113958	0.000442754	0.000508568	0.00191395	0.00621874
0.000817696	0.00077975	0.000624176	0.000713626	0.000495125	0.000678265	0.0023559	0.00665702
0.000399245	0.00129083	0.000587258	0.00104426	0.000383665	0.000649541	0.00393039	0.00341544
0.00199901	0.00172048	0.000594088	0.000937347	0.00050439	0.000409359	0.0032173	0.00222928
0.00449842	0.000897309	0.000704861	0.00117869	0.000517095	0.000500943	0.00481372	0.00471166
0.00233258	0.000565526	0.00078479	0.00193496	0.000659054	0.000745593	0.00837259	0.00553459
0.00136418	0.000776168	0.000652081	0.00167213	0.000679089	0.000756986	0.00408804	0.00410712
0.0011205	0.000684536	0.000617727	0.00144363	0.000557465	0.000551208	0.00220209	0.00423871
0.000539361	0.00057606	0.000544415	0.00207427	0.000556987	0.000600859	0.00562601	0.00320489
0.000628373	0.0006275	0.000453326	0.0021994	0.000689434	0.000479225	0.00445598	0.0058646
0.000651643	0.000629582	0.00048999	0.00125052	0.000593702	0.00053572	0.00246066	0.00627435
0.00101428	0.00073873	0.000665581	0.00111953	0.000599633	0.000657158	0.00267733	0.00259678
0.00246146	0.000610999	0.00058583	0.000851269	0.000604878	0.000744911	0.00327032	0.00623801
0.00157617	0.00067104	0.000591749	0.000865114	0.000627484	0.000715188	0.00290131	0.00823374
0.00135885	0.00324495	0.000659008	0.00199281	0.000699017	0.000553693	0.00353716	0.00641826
0.00166802	0.00519013	0.000765998	0.00206923	0.000641578	0.000476476	0.00533749	0.00441383
0.00217045	0.0025981	0.000686951	0.00164546	0.000671173	0.000496082	0.0049932	0.00485792
0.00393397	0.000785172	0.000718117	0.00147496	0.000586502	0.000527632	0.00386523	0.00808521
0.00309786	0.000761167	0.000722043	0.00143975	0.000514712	0.000483497	0.00712873	0.0106273
0.00176894	0.000884366	0.000762441	0.00130113	0.000518307	0.000496617	0.00653641	0.00866051
0.00171606	0.000866104	0.000586108	0.000941798	0.000452736	0.000459095	0.00310864	0.00258936
0.00186543	0.000949073	0.000412571	0.00102642	0.000550961	0.000577422	0.00267039	0.00465087
0.00166216	0.00100377	0.000627413	0.00107406	0.000737898	0.000606633	0.0031771	0.00607709
0.00108875	0.000798892	0.000615151	0.00122253	0.000607736	0.000609934	0.00255388	0.00751535
0.000594264	0.000598515	0.000559841	0.000867821	0.000566356	0.000606719	0.00258153	0.00674255
0.000651574	0.000791767	0.000851804	0.0019099	0.000515718	0.0006331	0.00576071	0.00431842
0.000615727	0.00204757	0.000897256	0.00196308	0.000594044	0.000655889	0.00741269	0.00578519
0.00055599	0.00461582	0.000878315	0.000914877	0.000553998	0.000539852	0.00491913	0.0100288
0.00117397	0.00235744	0.000744519	0.00116036	0.000477329	0.000428844	0.00368856	0.0117356
0.00277369	0.000661283	0.000575346	0.00112517	0.000632208	0.000505647	0.00227402	0.00739263
0.00316089	0.000528288	0.000638816	0.00101469	0.000617925	0.000473832	0.00511609	0.0060077
0.00300822	0.000437748	0.00052592	0.00193821	0.000633458	0.00051412	0.00965342	0.00529299
0.00110653	0.000777951	0.000503366	0.0020459	0.000767992	0.000468334	0.0056725	0.00291236
0.0014072	0.017995	0.00061718	0.0017574	0.000603414	0.00232356	0.00257127	0.00190457
0.00239366	0.0188694	0.00071592	0.00213343	0.000776445	0.000849668	0.0023263	0.00365931
0.00229102	0.0154963	0.000875997	0.00230291	0.000767596	0.000993424	0.00203775	0.00316473
0.000800671	0.0186388	0.000769959	0.00257909	0.000651169	0.00301808	0.00213958	0.00256872
0.00772919	0.0116572	0.000774487	0.00262334	0.000613197	0.00543864	0.00345069	0.00385092
0.0245288	0.0176785	0.000819651	0.00220357	0.000603218	0.00604751	0.00495815	0.00578978
0.0207767	0.017016	0.000782274	0.00412038	0.000729465	0.00478074	0.00662588	0.00732166
0.00782657	0.0050454	0.000708092	0.00337684	0.000692922	0.00242751	0.00484072	0.0052786
0.00278365	0.00228881	0.000670169	0.000861705	0.000597236	0.00175258	0.00240633	0.00255151
0.000587605	0.00395143	0.000769241	0.00186419	0.000596846	0.00305402	0.00243716	0.00648704
0.00162326	0.00548443	0.000705656	0.00214953	0.000512742	0.00277096	0.00243946	0.00774562
0.00174713	0.00972316	0.000635724	0.00158966	0.000503004	0.00211159	0.00317915	0.00267798
0.000704432	0.0272403	0.000791146	0.00187015	0.000520539	0.00288355	0.00518416	0.00237289
0.000457289	0.0215905	0.000803427	0.00247292	0.000521314	0.00613369	0.00589169	0.00359619
0.000600564	0.00364275	0.000783744	0.00250867	0.000576864	0.00442053	0.00758667	0.00941675
0.000741856	0.00114981	0.000899297	0.0020152	0.000584022	0.00108116	0.00679263	0.0113563
0.00194554	0.000739135	0.000810408	0.00159006	0.000514409	0.0011509	0.00289655	0.00458181
0.002942	0.00834847	0.000702172	0.000990989	0.000357559	0.0016388	0.00162505	0.00175331
0.00199175	0.0126192	0.000834632	0.000980525	0.000470318	0.00271866	0.00202361	0.00135528
0.00283596	0.00722433	0.000627262	0.00130524	0.00066822	0.00463094	0.00193029	0.00255453
0.00618016	0.0172928	0.000422113	0.0021749	0.000596253	0.00524763	0.00240833	0.00902087
0.00692658	0.0284633	0.000466147	0.00269754	0.000470402	0.003965	0.0031459	0.00835342
0.00534633	0.0283297	0.000484644	0.00188552	0.000529593	0.00384681	0.00204382	0.00185012
0.0170228	0.0165839	0.000603177	0.00119029	0.000696836	0.00403012	0.0012611	0.00164117
0.0156647	0.00447262	0.000543229	0.000690026	0.000634557	0.00311039	0.000938844	0.00138805
0.00306566	0.00114066	0.000439972	0.000516012	0.000496988	0.0023774	0.000961141	0.00188604
0.00112876	0.00304266	0.00060135	0.000590339	0.000530125	0.00254555	0.00128073	0.0030301
0.000654247	0.00800147	0.000566544	0.000767369	0.000493355	0.00180257	0.00215394	0.00274862
0.00374701	0.0195504	0.000640096	0.000828135	0.000522233	0.00283344	0.0030491	0.00325787
0.00879019	0.017634	0.000789239	0.00100914	0.000520443	0.00370297	0.00280592	0.00505017
0.00541611	0.00611651	0.000630205	0.00103949	0.000537539	0.00610974	0.0017478	0.00437716
0.000988197	0.00519544	0.000675583	0.000751453	0.000456021	0.00745358	0.00105164	0.00198552
0.000661478	0.00596031	0.000677257	0.000978558	0.000414348	0.00374838	0.00136729	0.000851658
0.00119533	0.0198327	0.000819752	0.00326507	0.000484022	0.00231473	0.0015007	0.000919445
0.00166007	0.0250894	0.000797643	0.00469638	0.000389086	0.00369752	0.00102066	0.000741308
0.000975719	0.0104175	0.000629729	0.00292237	0.000436641	0.00511394	0.000633444	0.00121169
0.00847535	0.00520423	0.000652972	0.00110789	0.000547813	0.00356637	0.00066998	0.00183648
0.0232728	0.0131002	0.000714581	0.00070105	0.000566262	0.00166648	0.000631503	0.00199665
0.0148592	0.0201268	0.000631109	0.000513976	0.000619179	0.00477416	0.00068349	0.00178679
0.00400548	0.0129649	0.000656	0.000396315	0.000752893	0.00449141	0.000672596	0.000760762
0.00306159	0.00653475	0.000861086	0.000473106	0.0006452	0.00166144	0.000542788	0.000583362
0.00121477	0.00458607	0.000620567	0.000467823	0.000524934	0.00130555	0.000470611	0.000728886
0.000608587	0.00263649	0.000705613	0.000428721	0.00057675	0.00090718	0.000549251	0.000596069
0.0018664	0.00547225	0.000762951	0.000767732	0.000617648	0.000674927	0.000715901	0.000556996
0.00240161	0.00959345	0.000608414	0.00116523	0.000552722	0.000521821	0.000614881	0.000664323
0.00116358	0.00638824	0.000536504	0.000843542	0.000527034	0.000748007	0.000588464	0.000930243
0.00374794	0.0114422	0.000452775	0.000569126	0.000554609	0.00250203	0.000727252	0.00134009
0.0153849	0.0313632	0.000574941	0.000607937	0.0004333	0.00321736	0.000613258	0.00114481
0.0167738	0.0271085	0.000696764	0.000839125	0.000450997	0.00155507	0.000548724	0.00215148
0.00783842	0.00683014	0.000608591	0.00136757	0.000617129	0.000776705	0.000641267	0.00234477
0.00255656	0.000983091	0.000596297	0.00174573	0.000600248	0.000755308	0.00068435	0.00116551
0.000891313	0.000603715	0.000763298	0.0012347	0.000477979	0.00113704	0.000743096	0.000641765
0.00162094	0.000590382	0.000680073	0.00117911	0.000561293	0.00130933	0.00084446	0.000521463
0.003023	0.00173157	0.000669112	0.00123454	0.000539099	0.00168202	0.000602816	0.000696016
0.00234166	0.00429909	0.000898559	0.000512434	0.000581955	0.00148852	0.000554722	0.00123355
0.000936337	0.00817334	0.000768572	0.000464952	0.000591118	0.00137781	0.000585067	0.00116488
0.00339535	0.0107159	0.000550422	0.000617463	0.0004789	0.00142551	0.000502225	0.00062355
0.00398556	0.0104663	0.000450547	0.000554468	0.000548223	0.000797446	0.000536232	0.000813879
0.00182142	0.00902834	0.00057128	0.000491713	0.000534462	0.00122083	0.000666974	0.00148507
0.0022593	0.00485683	0.000849924	0.000541898	0.000473749	0.00147197	0.000803048	0.00166481
0.00228786	0.0107502	0.000848658	0.000465422	0.00045463	0.00157828	0.000733913	0.00103248
0.0010984	0.0204043	0.000595344	0.000516526	0.000489758	0.00122178	0.000527742	0.00129324
0.000974623	0.0305248	0.000677489	0.000526571	0.000609961	0.00082869	0.000699197	0.00153206
0.00212561	0.0229913	0.00080642	0.000483436	0.000554295	0.00110975	0.000687281	0.00164645
0.00691615	0.00595389	0.000672351	0.000544455	0.000501083	0.000761363	0.00057345	0.00285531
0.00854086	0.00487444	0.000584094	0.000541938	0.000578865	0.000549627	0.000411334	0.00188715
0.00304782	0.00517603	0.000613956	0.00049152	0.000766212	0.00100712	0.000384764	0.000750789
0.00176463	0.0161845	0.000690931	0.000389901	0.000600273	0.00138037	0.000567461	0.000974201
0.00487797	0.0168448	0.000625936	0.000449579	0.000550493	0.00101698	0.000692384	0.00285916
0.00555536	0.0100512	0.000551867	0.000602866	0.000547997	0.00117176	0.000721375	0.00281051
0.00649266	0.0149727	0.000562223	0.000645959	0.00065068	0.00121885	0.000749578	0.00153172
0.00573377	0.0234514	0.000712635	0.000544874	0.00108268	0.000895663	0.000807307	0.00260486
0.0032107	0.0249866	0.000673239	0.000661827	0.000966458	0.000929689	0.000556419	0.00258654
0.0023448	0.0118182	0.000734722	0.00076737	0.000713909	0.00121772	0.000513815	0.00121168
0.000854943	0.0037797	0.000900083	0.000687571	0.00101112	0.00192235	0.000613506	0.000749574
0.00057029	0.0021426	0.000874886	0.000652598	0.00114389	0.00154667	0.000501341	0.000654659
0.000494874	0.00210447	0.00062816	0.000613648	0.00125104	0.000661973	0.0004575	0.000811128
0.00053546	0.00733795	0.000716036	0.000693561	0.00142276	0.00051385	0.000457133	0.00123094
0.000507999	0.0146022	0.00105826	0.000654154	0.00105566	0.000578768	0.000611941	0.00119545
0.000545213	0.0126553	0.00112061	0.000504445	0.00103828	0.000605954	0.000760602	0.000972259
0.000500049	0.0121359	0.000964593	0.000492112	0.000846505	0.000627597	0.00155702	0.000896272
0.000588205	0.0105016	0.000794031	0.000599437	0.000770885	0.000805069	0.00566553	0.000728445
0.00310142	0.00485994	0.000863357	0.000794454	0.00127131	0.000997271	0.00749219	0.000770865
0.00418805	0.00367188	0.000946341	0.00076986	0.00105401	0.000968435	0.0042693	0.00132458
0.00202787	0.00211232	0.000802871	0.000698558	0.000619309	0.00125261	0.00188593	0.00123325
0.000962247	0.00444802	0.000676861	0.000564152	0.000562517	0.00100121	0.00177385	0.000840961
0.000473752	0.00606244	0.000656672	0.00054513	0.000656542	0.000483114	0.00203703	0.000817709
0.000509062	0.00239168	0.000697002	0.000740799	0.000594381	0.000496249	0.00129596	0.00108264
0.000572127	0.000858599	0.000734662	0.000796313	0.000545923	0.000577477	0.00107578	0.00137285
0.000396893	0.00124529	0.0010081	0.000732248	0.000635814	0.000772792	0.00273135	0.00117512
0.00048636	0.00118935	0.000961238	0.000966598	0.000942241	0.0010224	0.00322664	0.00130969
0.000649158	0.00099721	0.000899219	0.00125931	0.000681186	0.00111748	0.00178243	0.00102624
0.000774277	0.000927624	0.00101431	0.00102811	0.000506164	0.000790188	0.00110249	0.000623918
0.000867947	0.000668252	0.000857722	0.000758275	0.000740527	0.000683597	0.000734264	0.000964675
0.000823161	0.000735683	0.00059328	0.000697571	0.000647649	0.000791813	0.000704574	0.00113922
0.000588657	0.00085136	0.000558403	0.000854369	0.000604383	0.000845699	0.000947938	0.000841794
0.000594825	0.00121546	0.000667023	0.000775038	0.000878254	0.00137829	0.000888854	0.00080415
0.000637707	0.000951938	0.000567728	0.000605756	0.000891212	0.00132576	0.000809438	0.000838435
0.000628859	0.000796768	0.000612975	0.000640234	0.0006857	0.00105082	0.000818993	0.000904297
0.000593192	0.000877974	0.000615507	0.000642215	0.000649834	0.00137315	0.000792464	0.000803063
0.000549909	0.00183698	0.000514953	0.000417638	0.000188702	0.000237901	0.00387272	0.00120939
0.000577266	0.00216602	0.000747832	0.00115836	0.000337812	0.000497142	0.00381467	0.00264262
0.000572995	0.00116591	0.000764417	0.0011953	0.000423618	0.000620877	0.0029877	0.00606113
0.000996367	0.000775227	0.000566832	0.00144642	0.000507122	0.000584928	0.00500277	0.0050586
0.00212721	0.000910826	0.000504421	0.00151479	0.000404745	0.000572164	0.00611559	0.00633942
0.0010315	0.000927515	0.000598494	0.00102829	0.000528646	0.000702457	0.00447421	0.00715865
0.000648853	0.000610119	0.000685492	0.00117611	0.00042614	0.000672862	0.00478281	0.0109771
0.00179787	0.000568469	0.000660131	0.00103821	0.000438462	0.000788232	0.0026432	0.0104694
0.00403276	0.00322373	0.00078163	0.00080634	0.000551649	0.000522731	0.0030979	0.00967234
0.00350176	0.0110169	0.000540001	0.000772591	0.000661125	0.000604876	0.00255608	0.00790896
0.000986489	0.00489806	0.000511128	0.00129252	0.000443622	0.000595928	0.00433622	0.00691887
0.00132541	0.00242796	0.000521591	0.00183177	0.000436452	0.000557916	0.00507553	0.00712213
0.00203578	0.00400867	0.000868031	0.00123589	0.000424008	0.000655027	0.00242063	0.0064776
0.000769266	0.0138275	0.000731146	0.000891087	0.000679556	0.000845975	0.00486173	0.00877282
0.00168253	0.00967346	0.00067783	0.000795918	0.000661733	0.000846027	0.00279323	0.00721775
0.0018681	0.00309671	0.000707438	0.00063014	0.000590222	0.000560993	0.00329527	0.00506645
0.00312323	0.0012869	0.000662245	0.000743275	0.000478028	0.00048313	0.0032375	0.00331805
0.00240452	0.000906374	0.000627609	0.000665945	0.000487991	0.000578656	0.00221282	0.00341814
0.00185105	0.00481535	0.000629547	0.00107454	0.000529177	0.00059686	0.00347717	0.00816475
0.00117039	0.00302824	0.00053438	0.000858128	0.00083773	0.000614818	0.00276838	0.00770259
0.00105995	0.00222765	0.000510978	0.000841088	0.00106997	0.000669356	0.00233908	0.00629313
0.00152258	0.000772552	0.000528043	0.00145396	0.000441985	0.000792922	0.00190694	0.00435182
0.00054321	0.000783907	0.000674253	0.00137275	0.000511974	0.000753559	0.00180403	0.00512609
0.000619953	0.00114891	0.000590531	0.000990578	0.000522378	0.000599268	0.00174272	0.00259837
0.000639581	0.000576358	0.000703686	0.00131606	0.000573989	0.000620305	0.00538766	0.00141134
0.000685567	0.000897124	0.000776269	0.00146767	0.000681452	0.000875387	0.00415292	0.00828578
0.000592724	0.00222098	0.000777305	0.00084755	0.000511932	0.000779472	0.0048878	0.0147699
0.00327547	0.0104078	0.000676262	0.00111646	0.00069524	0.000532484	0.00316612	0.00487013
0.00247725	0.0109229	0.000714781	0.00122128	0.000559128	0.000633332	0.00606656	0.00512118
0.000760256	0.000890795	0.00064542	0.00112936	0.000480968	0.000612069	0.00421116	0.00424329
0.00049432	0.000717729	0.00053743	0.00140068	0.000706843	0.00047778	0.00422416	0.00303935
0.000447831	0.00194075	0.000594426	0.000962004	0.000679557	0.000554646	0.00318963	0.0055023
0.00118523	0.00547178	0.000736585	0.000908066	0.000623565	0.000577096	0.00243657	0.00500314
0.00169445	0.00185789	0.00064473	0.0016622	0.000625947	0.000442451	0.0050761	0.0149503
0.00165905	0.0017806	0.000726953	0.00104788	0.000597306	0.000675908	0.00297284	0.0104448
0.00381544	0.00102959	0.000856968	0.000755771	0.000393566	0.000685027	0.00254387	0.00468407
0.00251632	0.000862179	0.000695073	0.000643854	0.00034377	0.000528636	0.00244363	0.00391278
0.000617014	0.000656296	0.000646451	0.000948075	0.000518066	0.000672031	0.00322626	0.00380046
0.000604866	0.000652026	0.000634395	0.00185661	0.000604997	0.000715358	0.00384949	0.00583318
0.00058425	0.000671233	0.000618381	0.00231594	0.000487314	0.000503951	0.0036258	0.00632671
0.000532377	0.0102669	0.000737069	0.00107202	0.000510884	0.000581643	0.00297084	0.00891566
0.000931325	0.00960457	0.000682911	0.001008	0.000689989	0.000534654	0.00187229	0.0102683
0.00179963	0.00238406	0.000552612	0.00128926	0.000881684	0.000755443	0.00489017	0.00854405
0.00141182	0.00109788	0.000711961	0.00120054	0.000529375	0.000919867	0.00567733	0.0103787
0.00318489	0.00043591	0.000658833	0.00174887	0.000489078	0.000630876	0.00320756	0.0021051
0.000946257	0.000519538	0.000680099	0.00114106	0.00052503	0.000617943	0.00248065	0.00435117
0.000619107	0.000649979	0.000779366	0.000853129	0.000521821	0.000432567	0.00281266	0.0108041
0.000526813	0.000584845	0.000993337	0.00136391	0.000596602	0.000491083	0.00696907	0.00783829
0.00123295	0.000642681	0.000657439	0.00134854	0.000534228	0.000678916	0.00416232	0.0055247
0.000969411	0.000682807	0.000642178	0.00166644	0.000480793	0.000676709	0.0051431	0.00923342
0.000586594	0.000691279	0.000603354	0.00225046	0.000571298	0.000606465	0.00703744	0.0102813
0.000509118	0.000535305	0.000633061	0.00117975	0.000547899	0.000801233	0.00441348	0.00397048
0.00159465	0.000585439	0.000610391	0.00109427	0.000382503	0.000553131	0.00377228	0.00307573
0.00162402	0.000672535	0.000673715	0.000796139	0.000510351	0.00056223	0.00202914	0.00673242
0.000504955	0.00116898	0.000642056	0.000961737	0.000391867	0.000703608	0.00385165	0.00432978
0.00167468	0.00166267	0.000514076	0.00102051	0.00050624	0.000439249	0.00317967	0.00242485
0.00459042	0.000762094	0.0007078	0.00124785	0.000559286	0.000564008	0.00649787	0.00556152
0.0020593	0.000598625	0.000701095	0.00196444	0.000759965	0.000801116	0.00819146	0.00434694
0.00137586	0.000761534	0.000642987	0.00112949	0.00069647	0.000669952	0.00236888	0.00391478
0.000540383	0.000574672	0.000540759	0.00208324	0.00056136	0.000579898	0.00560075	0.00318922
0.000720881	0.000544076	0.000509276	0.00179166	0.000610856	0.000518174	0.00349697	0.00620993
0.000583695	0.000630458	0.000636235	0.0010649	0.00060986	0.000606238	0.00300236	0.00355435
0.00233172	0.000634105	0.000602614	0.000928964	0.000603609	0.000647821	0.00350565	0.0052213
0.00143042	0.000672544	0.000591776	0.000852928	0.000621085	0.000725799	0.0028283	0.00831443
0.00149238	0.00405629	0.000735466	0.00212246	0.000639015	0.000539939	0.0042739	0.00669127
0.00116718	0.00382279	0.000724207	0.00205951	0.000653005	0.000510905	0.00566346	0.00380833
0.00389576	0.000762233	0.000691988	0.00167435	0.000600917	0.000525805	0.00405293	0.00752161
0.0027966	0.000744276	0.000734423	0.00144557	0.000537714	0.000524525	0.00697186	0.0108245
0.001567	0.000725055	0.000642986	0.00116663	0.000519365	0.000458552	0.00494408	0.00559533
0.00180351	0.000898226	0.000527605	0.000840546	0.000500695	0.000503132	0.00260754	0.00278547
0.00166368	0.00102711	0.000612587	0.00103884	0.000750616	0.000607161	0.00305754	0.00589244
0.00075986	0.000730361	0.000585038	0.00113893	0.000614604	0.000601966	0.0023989	0.00820118
0.000571316	0.000683204	0.000824236	0.00150719	0.000570987	0.000590329	0.00338703	0.00553335
0.000520348	0.00154772	0.000974234	0.00221447	0.000578709	0.000755375	0.00816079	0.00446322
0.000554442	0.00464186	0.000879443	0.000930407	0.000547939	0.000539126	0.004868	0.0102935
0.00212155	0.00155205	0.000737842	0.00130414	0.000567265	0.000452218	0.00335095	0.0110522
0.00320694	0.00056285	0.000519623	0.0009098	0.000597675	0.000521969	0.00250574	0.00613486
0.00295636	0.000434684	0.000553956	0.00182322	0.000570458	0.000546734	0.00947285	0.00590975
0.000924144	0.000742593	0.000547951	0.00179807	0.000767425	0.000489623	0.00561652	0.00253426
0.00145573	0.00066078	0.000713559	0.00138931	0.000570775	0.000855034	0.00419356	0.0013298
0.00257069	0.000775473	0.000681895	0.000989803	0.000512744	0.000614081	0.00395335	0.00394587
0.000482786	0.000634909	0.000726809	0.00222986	0.00053411	0.000584435	0.00469071	0.0071456
0.000475156	0.000603584	0.000701347	0.00110305	0.000516709	0.00052443	0.0032343	0.00791617
0.000764839	0.000841259	0.000684261	0.00147195	0.000712934	0.000454105	0.00384538	0.00871528
0.00101639	0.000937282	0.000924767	0.00115914	0.000835676	0.000519471	0.00365716	0.00375471
0.0005509	0.00075507	0.000595666	0.000993827	0.000510804	0.000628671	0.00205447	0.00416119
0.000508892	0.00106438	0.000635746	0.000920241	0.000358398	0.000803712	0.00202394	0.00733655
0.00054537	0.00237084	0.00079287	0.000952043	0.000452969	0.00078104	0.00350697	0.00592774
0.000469718	0.00107704	0.00073442	0.000807279	0.000481634	0.000696634	0.0043845	0.00449899
0.00206456	0.000555257	0.000639996	0.00103708	0.000483196	0.000591714	0.00405084	0.00159612
0.00362061	0.000451424	0.000501231	0.0010464	0.00044084	0.000476766	0.00371918	0.00515265
0.0018952	0.000493598	0.000537026	0.00133609	0.000543131	0.00056539	0.00362298	0.00569096
0.00109596	0.00109218	0.000742515	0.00129537	0.000549895	0.000546323	0.00359876	0.00203978
0.00372447	0.00561013	0.000614762	0.000999632	0.000527477	0.000560886	0.00185057	0.00527586
0.00152212	0.00545202	0.000663273	0.000738364	0.00064131	0.000546244	0.00157222	0.00598318
0.000960658	0.000916821	0.000761206	0.000995184	0.000465123	0.000665246	0.00286105	0.00506232
0.00124767	0.000521326	0.0007868	0.00132642	0.000459742	0.000545709	0.00440217	0.00424886
0.000530172	0.000551966	0.00063635	0.00079794	0.000562901	0.00046832	0.00379142	0.00481346
0.00154179	0.000524756	0.000704541	0.000944648	0.000417883	0.000590367	0.00348799	0.0011737
0.00269304	0.000551203	0.000726138	0.000913451	0.000431267	0.000519114	0.00458051	0.0010906
0.00234036	0.00520863	0.000500274	0.00117672	0.000368792	0.00127038	0.00164649	0.00831871
0.00125676	0.00562755	0.000675678	0.00120238	0.000492648	0.00124503	0.00212543	0.00358279
0.000658074	0.0299319	0.000637734	0.000866381	0.000541677	0.0011063	0.00130507	0.00211852
0.00160154	0.0464125	0.000657527	0.00100025	0.000514287	0.00154046	0.00249714	0.00363502
0.00235413	0.0372601	0.000688869	0.00120172	0.000401063	0.00197188	0.00521342	0.0052079
0.0017266	0.0146265	0.000685274	0.000922783	0.000567405	0.00277312	0.00496573	0.0071448
0.000815944	0.0125067	0.000618948	0.000614332	0.000622082	0.00385858	0.00265347	0.00678604
0.000805262	0.00401383	0.000576516	0.000632406	0.000621315	0.00416604	0.00129903	0.00362445
0.000718559	0.00120701	0.000429987	0.000549617	0.000539093	0.00409487	0.00202588	0.00195263
0.000649793	0.000924103	0.000452907	0.000445498	0.000516823	0.0032763	0.00247713	0.00152828
0.00201735	0.00108038	0.000543601	0.00046858	0.000543988	0.00261712	0.00149331	0.000740201
0.00503011	0.00292477	0.000579413	0.00124704	0.000561984	0.00267827	0.0010442	0.00100937
0.00454475	0.00503539	0.000602268	0.00130077	0.00047569	0.00268558	0.00141132	0.00242281
0.00398262	0.0150773	0.00066842	0.000706583	0.000489437	0.00233683	0.00231729	0.00312378
0.00617818	0.0329536	0.000746176	0.000758202	0.000667867	0.0038171	0.00272491	0.00205237
0.00525061	0.0281618	0.000811758	0.000678117	0.000631277	0.00415825	0.0026025	0.00240372
0.00130813	0.00956562	0.000644449	0.00070183	0.000578345	0.00231581	0.00183011	0.00265609
0.0033826	0.00205804	0.000759632	0.000992728	0.000545243	0.00121277	0.00151106	0.00160642
0.015642	0.00176648	0.000678232	0.00090439	0.000664064	0.00111048	0.0011537	0.00332506
0.0170094	0.00983203	0.000575027	0.00074838	0.000685868	0.00159646	0.00110152	0.00395294
0.00625545	0.0132939	0.00058377	0.000910769	0.000590139	0.00161699	0.0011254	0.00280282
0.00220709	0.0164576	0.000660925	0.000681191	0.000487392	0.00199639	0.00106616	0.000864162
0.00556461	0.0190016	0.000684897	0.000627416	0.000472976	0.00411375	0.00071029	0.000877353
0.00678617	0.019311	0.000604463	0.000527746	0.00058389	0.00505018	0.000526	0.000896397
0.00435588	0.0110404	0.000791103	0.000387095	0.000766453	0.00259535	0.000521848	0.000917342
0.00347996	0.00633292	0.000839785	0.000467218	0.000594026	0.00151116	0.000665318	0.000870689
0.00321384	0.0130767	0.000624532	0.000407658	0.000532484	0.0042771	0.000844285	0.00138345
0.000926027	0.023535	0.000738744	0.00047426	0.000630623	0.00435618	0.000911293	0.00139174
0.000431272	0.0235108	0.000838712	0.000515359	0.000586581	0.00144545	0.000794403	0.000818809
0.000445419	0.015483	0.000772412	0.000507322	0.000480135	0.00118771	0.000579606	0.00102143
0.000563249	0.00566164	0.000603064	0.000406583	0.000497619	0.00132827	0.00052373	0.00125171
0.000996947	0.0092305	0.000656879	0.000433162	0.000810229	0.0016665	0.000490458	0.00133887
0.00362504	0.0115106	0.00064824	0.00067917	0.000930718	0.00173895	0.000806041	0.00307695
0.00375166	0.00573326	0.000629932	0.000780105	0.000806948	0.00137516	0.000975095	0.00314856
0.00279879	0.00334419	0.0006367	0.00061908	0.00054128	0.000896954	0.000780748	0.00186113
0.00296533	0.0035332	0.000651047	0.000432008	0.00062756	0.000974678	0.000620112	0.000796043
0.00290226	0.00285617	0.000800859	0.000467767	0.000597932	0.000849436	0.000617767	0.000610135
0.00194237	0.000678489	0.000814801	0.000531723	0.000504309	0.000606435	0.00055948	0.000533982
0.000907132	0.0030066	0.000551176	0.000535993	0.000454353	0.000656397	0.000595889	0.000574733
0.000630403	0.0192779	0.000560937	0.000546744	0.00053291	0.00151651	0.00084599	0.000601765
0.000598877	0.0292441	0.000849131	0.000517195	0.000617171	0.00167856	0.000978984	0.000724779
0.00131117	0.0249817	0.000953087	0.000540496	0.000607402	0.00144963	0.00099172	0.00075918
0.00466894	0.0205257	0.000727505	0.000573224	0.000436033	0.00207787	0.000648224	0.00090828
0.00801534	0.0136705	0.000425121	0.000600302	0.000468131	0.00231143	0.000672298	0.00186826
0.00563786	0.0100374	0.000539306	0.000664797	0.000600155	0.00147101	0.000717064	0.00237069
0.00168617	0.0118819	0.000519593	0.000652307	0.000562818	0.00105189	0.000678666	0.00186203
0.00135689	0.0120531	0.000558796	0.000615696	0.000726462	0.000929235	0.000815102	0.000671603
0.001954	0.0162367	0.000628667	0.000646395	0.000581147	0.000755882	0.000848502	0.000501834
0.00271395	0.0164895	0.00071987	0.000486303	0.0005175	0.000719347	0.0012483	0.000708508
0.00478439	0.0229137	0.000824045	0.000492109	0.000543761	0.000782005	0.00526183	0.000702682
0.00677965	0.0196946	0.000789014	0.000734797	0.000721252	0.000588336	0.00781139	0.000904003
0.0054871	0.00683069	0.000805145	0.000785785	0.000938233	0.000570086	0.00694324	0.00157674
0.002974	0.00167216	0.000774261	0.000544487	0.000868453	0.000696258	0.00440155	0.00251921
0.00104875	0.00250415	0.000866148	0.000652545	0.000513948	0.00120737	0.00186938	0.00301786
0.000733709	0.0047698	0.000935573	0.000721038	0.000606136	0.0012414	0.0020367	0.00251129
0.00133094	0.00536353	0.000847819	0.000588947	0.0011122	0.00112102	0.00214979	0.00217055
0.00178272	0.0055023	0.00105118	0.00056534	0.00167165	0.00138579	0.00182608	0.00301349
0.00171495	0.0096724	0.000992693	0.000666084	0.00178177	0.00138203	0.00334027	0.00267811
0.00238654	0.0184173	0.000769553	0.000744312	0.00103025	0.00105882	0.00465357	0.00223387
0.00589719	0.0206123	0.00101209	0.000670591	0.000926746	0.000919005	0.00284614	0.00179185
0.011086	0.0158837	0.00113483	0.000572313	0.000768508	0.000694298	0.000921459	0.00159908
0.0111159	0.00998862	0.00114696	0.000795706	0.000766789	0.000716852	0.000770422	0.00184125
0.00352341	0.00291246	0.000845948	0.000933779	0.000701674	0.000833557	0.000788293	0.00169267
0.000746817	0.00509366	0.00083778	0.000815512	0.000384459	0.000855013	0.000952823	0.00185335
0.000654381	0.0157953	0.000784266	0.000892726	0.000692834	0.000831909	0.00233645	0.00212493
0.000617072	0.0180208	0.000678353	0.000819585	0.000924834	0.000869285	0.00297624	0.00161186
0.000541651	0.00783809	0.000546263	0.000716037	0.000971765	0.000841332	0.00212325	0.000877136
0.00264193	0.00329786	0.000490142	0.000656068	0.00116667	0.000475854	0.00163784	0.000799777
0.00364204	0.00256528	0.000818567	0.000701901	0.0010411	0.000472544	0.00124263	0.000737302
0.00207205	0.00166907	0.00104963	0.000524639	0.000893544	0.000673371	0.00110508	0.00183039
0.000603339	0.00372527	0.0010266	0.000466432	0.000815349	0.000939621	0.000875951	0.00200784
0.000472558	0.00483247	0.000673743	0.000487436	0.000791115	0.00120032	0.000937154	0.00138623
0.000374258	0.00265684	0.000488328	0.000638234	0.000707074	0.00151501	0.00097939	0.00159377
0.000423014	0.00156136	0.000696044	0.0006585	0.000845906	0.00161353	0.00121409	0.00176286
0.000554805	0.00138843	0.000794314	0.000613809	0.000926275	0.000940892	0.000778725	0.00157305
0.000573738	0.0011118	0.000879558	0.000598489	0.000707623	0.000665351	0.000750891	0.00193766
0.000708069	0.00109043	0.000921015	0.00051138	0.0011499	0.000824301	0.000963063	0.00158932
0.0005347	0.000903215	0.000763863	0.000529042	0.00126858	0.000896211	0.000908618	0.00113052
0.000449665	0.000639441	0.00089453	0.000576206	0.000898888	0.000837496	0.000741124	0.000963711
0.000388521	0.000749775	0.00102963	0.00045637	0.00110369	0.000953788	0.000828555	0.000966145
0.000461987	0.000927733	0.000794783	0.000584011	0.00102916	0.00110235	0.00100152	0.000770341
0.000499574	0.000999706	0.000715695	0.000806753	0.000645677	0.000947672	0.000944556	0.000813332
0.000496918	0.00126636	0.000748801	0.000779424	0.00106573	0.000917093	0.000683039	0.000887827
0.000426595	0.00133553	0.000816354	0.000965696	0.00106923	0.00080928	0.000662877	0.00120082
0.00040965	0.00126085	0.000821762	0.00106827	0.000701789	0.000569182	0.000783945	0.00122946
0.000579137	0.00164019	0.000849021	0.000767079	0.000824383	0.000525461	0.000589396	0.000667112
0.000591357	0.00251315	0.000737894	0.00106583	0.00098685	0.000608774	0.000548922	0.000584603
0.00039114	0.00935069	0.000602849	0.00134987	0.000863788	0.000660919	0.000673621	0.000593407
0.000332317	0.012641	0.000617122	0.00102563	0.000671651	0.000687181	0.000708588	0.000674015
0.000491123	0.00520364	0.000620711	0.0005965	0.000575754	0.000525449	0.000584771	0.000811544
0.000550553	0.00149967	0.00054953	0.000479312	0.00105552	0.000715149	0.000504776	0.00103029
0.000480681	0.00086731	0.000555786	0.000639323	0.00116585	0.000974523	0.000608829	0.000969517
0.000601567	0.000852902	0.000664851	0.000854369	0.000910954	0.000923083	0.00069534	0.000985361
0.000621131	0.00127394	0.000792906	0.000896818	0.00104938	0.000795383	0.000647694	0.00142596
0.000474092	0.00329768	0.000912086	0.000663878	0.000939002	0.000721417	0.000633554	0.00202082
0.000403207	0.00813573	0.000801317	0.000435516	0.000550136	0.000987163	0.000609643	0.00167098
0.000444015	0.0139848	0.00067312	0.00048175	0.000848329	0.00198275	0.000630753	0.00122145
0.00048548	0.0136791	0.000720663	0.000508143	0.00132831	0.00208659	0.00073136	0.00205137
0.000463057	0.00828126	0.000733271	0.00060757	0.00108494	0.00119755	0.000828259	0.00233923
0.000524898	0.000928256	0.00112841	0.00072004	0.000808777	0.000720936	0.00104614	0.00184512
0.000549909	0.00183698	0.000514953	0.000417638	0.000188702	0.000237901	0.00387272	0.00120939
0.000543987	0.00236937	0.000811454	0.00119697	0.000362668	0.000579418	0.00375849	0.00298045
0.000784532	0.00117537	0.000700534	0.0011576	0.000542021	0.000627838	0.00255899	0.00662157
0.00201993	0.000805072	0.000528442	0.00173077	0.000442771	0.000612109	0.00558876	0.00517043
0.00108045	0.000903406	0.000531071	0.0010444	0.000550501	0.000708103	0.00432078	0.00690227
0.000673936	0.000605142	0.000684524	0.00114956	0.000428598	0.000665921	0.00473156	0.0109741
0.00204214	0.000596817	0.000631165	0.00106205	0.000514243	0.000676014	0.00258056	0.00847651
0.00476076	0.00924991	0.000666861	0.000746462	0.000660166	0.000555245	0.00378708	0.00853752
0.00185088	0.00851973	0.000456441	0.00130017	0.000507305	0.000623254	0.00386895	0.00653943
0.00133177	0.00236663	0.000537928	0.00167545	0.000430097	0.000542955	0.00533623	0.00705153
0.00194816	0.00404726	0.000852774	0.00122436	0.000459105	0.000654398	0.00251398	0.00678657
0.000692144	0.0130909	0.000685579	0.000827521	0.000765651	0.000845014	0.00475488	0.00667282
0.00192197	0.00383407	0.00073674	0.000802674	0.000549065	0.000713683	0.00311032	0.00615795
0.00264955	0.00154331	0.000732254	0.000758638	0.000564616	0.000556334	0.00331216	0.00362222
0.00296565	0.000642037	0.00065363	0.000581456	0.000480298	0.000675092	0.00214671	0.00353264
0.0019323	0.00494997	0.000664017	0.00106212	0.00051983	0.000577426	0.00346826	0.00866867
0.000650403	0.00269363	0.000537066	0.000726574	0.000953161	0.000652204	0.00279547	0.00710469
0.00153431	0.00139584	0.000545885	0.00123513	0.000675533	0.000670139	0.00216816	0.00512704
0.000608327	0.000700556	0.000683106	0.00136336	0.000481485	0.000750034	0.00139744	0.00479603
0.000607104	0.00113634	0.000562852	0.00101419	0.000544806	0.000613564	0.00172989	0.00268967
0.00063773	0.000561925	0.000679825	0.00138775	0.000619139	0.000563752	0.00569874	0.00137619
0.000661168	0.00160118	0.000762739	0.00103002	0.000648355	0.00084046	0.00442776	0.011743
0.00147368	0.00424259	0.000724297	0.00088456	0.000684251	0.000466318	0.00474243	0.00698747
0.00325691	0.0128274	0.000670638	0.00105424	0.000539815	0.000619353	0.00478251	0.00454016
0.000763968	0.00103713	0.000654446	0.00102237	0.000498407	0.00062216	0.00432506	0.00427674
0.000495352	0.000783292	0.000542932	0.00153344	0.000641209	0.000483741	0.00404864	0.00358211
0.000468413	0.00420572	0.000630037	0.00094862	0.000632336	0.00063339	0.0022842	0.00538191
0.00155594	0.00328436	0.000639553	0.00151414	0.000526836	0.000527377	0.00482963	0.00976641
0.00152781	0.00169927	0.000677317	0.00143049	0.000635034	0.000629863	0.00446665	0.0136759
0.00381924	0.00105487	0.00085262	0.000751625	0.000426154	0.000692802	0.00261351	0.00466681
0.00226198	0.000852446	0.00068433	0.000667984	0.000379164	0.000508892	0.00237305	0.00299677
0.000615289	0.000638171	0.000683955	0.000928537	0.000574014	0.00070214	0.00275474	0.00577813
0.000742216	0.000619733	0.000615154	0.00228768	0.000514945	0.000565373	0.00361244	0.00571327
0.000561069	0.00865993	0.000772002	0.000993216	0.000552101	0.000563722	0.00301281	0.00868099
0.000897011	0.0097983	0.000688603	0.0009939	0.000677843	0.0005185	0.00186032	0.0101477
0.00169506	0.00192731	0.000658941	0.00129931	0.000872616	0.000834271	0.00504216	0.010104
0.00282976	0.000887945	0.000808007	0.00121601	0.000449825	0.000707182	0.00428853	0.00760632
0.0021471	0.000561226	0.000577755	0.00150098	0.000525409	0.000550421	0.00291916	0.00231783
0.000639099	0.000644866	0.000774607	0.000846058	0.000498772	0.000484366	0.00203429	0.00986513
0.000531454	0.000581422	0.000995038	0.00138458	0.000605862	0.000489823	0.00698134	0.00775802
0.00126823	0.000749739	0.000587567	0.00149534	0.000578653	0.000701564	0.00442709	0.00657526
0.000625644	0.000660977	0.000662115	0.00194351	0.00059876	0.000547953	0.00611267	0.0113349
0.000503598	0.000608849	0.00066244	0.0015001	0.000627667	0.000751789	0.00566303	0.00591972
0.0015538	0.000557258	0.000503544	0.00119579	0.000443864	0.000597934	0.00375866	0.00228254
0.0015255	0.000674516	0.000673846	0.000778955	0.000503069	0.000594661	0.0020739	0.00676877
0.000406062	0.00120677	0.000610524	0.00100855	0.000390756	0.000653222	0.00389411	0.0035158
0.00357945	0.00124696	0.000640276	0.000943208	0.000521556	0.000393307	0.00260084	0.00332984
0.00236786	0.000563212	0.000785403	0.00193732	0.00065744	0.000741973	0.00837833	0.00557956
0.00138599	0.000681768	0.00063659	0.00104827	0.000675233	0.00065386	0.00203148	0.00393563
0.000542392	0.000559495	0.000538168	0.00210086	0.000571901	0.000624357	0.00568201	0.00321905
0.0007297	0.000548073	0.000513084	0.00129766	0.000648497	0.000550379	0.00276597	0.00606627
0.00124845	0.000739086	0.000626451	0.00115443	0.000595039	0.000641474	0.00277413	0.00290896
0.00221173	0.000588705	0.000557039	0.000842011	0.000585721	0.000731478	0.0027157	0.00766332
0.00145034	0.00351886	0.000667932	0.00211753	0.000679638	0.000550056	0.00404691	0.00683392
0.00143652	0.00313253	0.00068576	0.00189617	0.000669055	0.000506841	0.00535415	0.00432981
0.00402149	0.000824842	0.000736881	0.00121994	0.000617251	0.000567203	0.00407223	0.00895271
0.00172256	0.000883144	0.000669658	0.00130866	0.000539138	0.000563552	0.00618538	0.00944731
0.00168103	0.000869746	0.000541781	0.000876252	0.000488838	0.000499641	0.00285753	0.00236526
0.00161734	0.00104209	0.000614357	0.00104705	0.000683889	0.000615381	0.0027664	0.00545245
0.000709749	0.00068634	0.000544393	0.0010969	0.000625154	0.000606136	0.00244998	0.0087216
0.000642675	0.000772401	0.000873819	0.00183729	0.000547038	0.000623381	0.00518782	0.00462344
0.000611508	0.00383294	0.000742515	0.00134969	0.000624703	0.000657953	0.00702018	0.00638571
0.00109918	0.00256632	0.000741188	0.0011621	0.000469313	0.000422337	0.00380266	0.0117019
0.00300198	0.000535055	0.0005201	0.000926634	0.000631257	0.000517748	0.00212728	0.00644339
0.00300754	0.000449466	0.000543187	0.0019462	0.00065688	0.000498308	0.0096359	0.00525428
0.000694327	0.000755077	0.000627197	0.00166995	0.000695079	0.000583496	0.00344481	0.00150962
0.00250167	0.000746611	0.000665918	0.000979564	0.00053867	0.000762372	0.00381387	0.00163773
0.000775912	0.000726999	0.000697443	0.00189116	0.000558827	0.000599246	0.00485208	0.00653755
0.000470387	0.000593867	0.000739261	0.0011098	0.000536472	0.000531007	0.0031807	0.00774506
0.00082773	0.000853672	0.000790932	0.00171227	0.00077198	0.000417734	0.00417953	0.00759024
0.000825361	0.00100853	0.000739115	0.00111599	0.000593961	0.000470363	0.00340954	0.00224043
0.000384236	0.000781922	0.00060825	0.000879607	0.000339185	0.000705322	0.00243253	0.00736233
0.000544512	0.00220787	0.000742678	0.000979921	0.000452233	0.000700379	0.00366303	0.00748688
0.000470143	0.00107769	0.000737106	0.00080463	0.000481903	0.000702042	0.00438212	0.0045301
0.00246508	0.000508499	0.000607432	0.000873871	0.000482246	0.000556705	0.00419976	0.00110262
0.00313918	0.000413635	0.000461974	0.0011359	0.000417199	0.000584482	0.00357988	0.00606274
0.00128166	0.000655221	0.000749889	0.00125172	0.000511368	0.000581938	0.00323235	0.00248854
0.00352841	0.00411324	0.00072165	0.00116036	0.00045843	0.000575959	0.00239904	0.00457567
0.0014707	0.00541564	0.00064676	0.000740551	0.000637846	0.000536469	0.00166123	0.00597093
0.00114895	0.00058167	0.000740534	0.00106874	0.000461549	0.000590108	0.00417346	0.00388951
0.000982803	0.000507927	0.000587566	0.00120642	0.000473369	0.000400246	0.00420541	0.00525687
0.00139823	0.000525379	0.000632569	0.000987903	0.000481913	0.00054262	0.0040411	0.00133203
0.00280617	0.00052244	0.00076331	0.000901759	0.000425363	0.000547943	0.00382585	0.00119846
0.00107842	0.000771088	0.00056605	0.000936266	0.00043966	0.000633459	0.00540329	0.00392036
0.000445759	0.000543634	0.000676475	0.000895377	0.000485283	0.00075414	0.00240504	0.00485568
0.00125436	0.00095066	0.000578372	0.00137217	0.000509077	0.000539117	0.00505815	0.00382985
0.00151993	0.0019157	0.000572467	0.000994193	0.000560964	0.000436038	0.00355023	0.00289093
0.00240023	0.000625125	0.000612204	0.000794909	0.000453946	0.000540976	0.00381972	0.00119734
0.00289377	0.00525747	0.000680217	0.000777851	0.000551559	0.000738713	0.0022411	0.0106281
0.00161637	0.00225398	0.000913468	0.000944002	0.000468327	0.00060347	0.00391144	0.0059894
0.00305683	0.000480487	0.000789459	0.00110018	0.000399179	0.000522645	0.00572496	0.00818463
0.00213218	0.000416734	0.000751444	0.00135169	0.000483422	0.000575552	0.00599828	0.00450157
0.00171687	0.000463488	0.000772054	0.0010259	0.000413268	0.000456571	0.00276979	0.00175343
0.001157	0.000680187	0.000902712	0.000939534	0.000418618	0.000587473	0.00589196	0.00382994
0.00061152	0.000754641	0.000795662	0.00105164	0.000433846	0.000599966	0.00365576	0.00261286
0.000878825	0.00136444	0.000472909	0.00183416	0.000508062	0.000816447	0.00574543	0.0100847
0.00142966	0.00141682	0.000508952	0.00122348	0.000424408	0.00059936	0.0031992	0.00799012
0.000858884	0.000622353	0.000901595	0.00175071	0.000544321	0.000750692	0.0062486	0.00683527
0.00215942	0.000620274	0.000545902	0.000973955	0.00110695	0.000547911	0.00410452	0.00785896
0.00313361	0.00103769	0.000609588	0.00110621	0.000583059	0.0006199	0.00324816	0.00514928
0.00143013	0.0158649	0.000629993	0.000827516	0.00056268	0.00133473	0.00078387	0.00452937
0.000665647	0.0108719	0.000613826	0.000769655	0.000467739	0.00073451	0.00109915	0.005178
0.000755994	0.00938016	0.000733684	0.000683284	0.000513191	0.000689924	0.000934675	0.00714255
0.00125355	0.0130975	0.00115305	0.000666249	0.000719777	0.000811732	0.00151964	0.00395705
0.0019917	0.0254156	0.00138431	0.000830671	0.00152019	0.00165148	0.00255811	0.00271888
0.00378759	0.0224506	0.00132591	0.00102078	0.00245217	0.00298769	0.00322339	0.00262506
0.00460446	0.0153309	0.000962218	0.00165784	0.00243209	0.00495656	0.00350647	0.0051364
0.00530315	0.00405469	0.000903276	0.0016213	0.00194428	0.0065097	0.00292064	0.00525682
0.00291367	0.00301173	0.000848018	0.00143577	0.00126094	0.00548162	0.00238698	0.00336286
0.00209251	0.00648939	0.000864007	0.0010192	0.000886463	0.0032292	0.0020604	0.00104123
0.00217542	0.0106224	0.000856507	0.000808666	0.000744074	0.00300147	0.00265043	0.00113354
0.00438744	0.0114581	0.000988811	0.000612616	0.00076907	0.00385572	0.00304274	0.0012278
0.00581719	0.0073799	0.00109516	0.000649925	0.000839173	0.00357031	0.00238583	0.00213928
0.0083908	0.0127861	0.00123405	0.000718297	0.000862141	0.00330578	0.0023998	0.0025417
0.00761528	0.0221541	0.0010733	0.00096071	0.00070839	0.00281228	0.00284954	0.00437178
0.0161245	0.0216191	0.00093082	0.000915649	0.000732861	0.00493254	0.00352544	0.00431434
0.0203631	0.0133608	0.000654065	0.000997177	0.000750793	0.00767573	0.00399456	0.00404878
0.0217392	0.0057477	0.000603512	0.00101165	0.000695623	0.00697098	0.00361368	0.00211269
0.00707998	0.00312528	0.000635529	0.00100563	0.000668587	0.00410434	0.00221062	0.00174249
0.00248001	0.00213218	0.000690375	0.000904139	0.00056154	0.00225839	0.00169215	0.00151068
0.00114518	0.00371368	0.000574297	0.000722192	0.000590842	0.00227757	0.00111087	0.00119027
0.000847891	0.0110123	0.00053409	0.000720222	0.000497468	0.00179312	0.000910212	0.00192751
0.00167352	0.0162678	0.00048498	0.000641649	0.000530182	0.00127914	0.000427308	0.00267966
0.0019054	0.0149876	0.000469026	0.000729248	0.000510263	0.000778183	0.000674245	0.00288804
0.00196461	0.00976317	0.000434292	0.000762093	0.000574961	0.00141809	0.00072535	0.00182455
0.00194334	0.00956785	0.000604242	0.000792987	0.00059758	0.00207329	0.000682868	0.00292245
0.0040119	0.0133678	0.000703697	0.000737729	0.000710248	0.00184025	0.000633487	0.00337954
0.00504426	0.0191838	0.000696279	0.000587172	0.000671828	0.00143424	0.000766677	0.00315882
0.00460439	0.0261373	0.000578092	0.000520013	0.000660075	0.00169801	0.00103546	0.000986887
0.00261379	0.0226667	0.000494296	0.000560652	0.000567114	0.00202532	0.000965634	0.000611931
0.00119038	0.0118999	0.000495367	0.000615118	0.000560011	0.00180392	0.000855068	0.000418343
0.000938362	0.00407019	0.000610398	0.000615784	0.000424652	0.0019913	0.000684285	0.000551789
0.001298	0.0133765	0.000660992	0.00059085	0.000473006	0.00240307	0.000980208	0.000489062
0.00457855	0.0183112	0.000821891	0.000761074	0.000566088	0.00269728	0.0015855	0.000418533
0.00969121	0.0232169	0.000795428	0.000868563	0.000518635	0.00159956	0.00583196	0.000721305
0.0107292	0.0107879	0.000779032	0.000792802	0.000463881	0.00146942	0.00782082	0.00106366
0.00836483	0.0303737	0.000740352	0.000680054	0.000685187	0.00198855	0.00856743	0.00137255
0.00547589	0.0374792	0.000745054	0.000791011	0.000871235	0.00227132	0.00536858	0.00154511
0.00357728	0.0353087	0.00077797	0.000736247	0.000859737	0.00165417	0.00411994	0.00128459
0.00767998	0.0173523	0.000748766	0.000681597	0.000757503	0.00132595	0.00201746	0.000966339
0.0176302	0.0250278	0.000687448	0.000542606	0.000822654	0.00120382	0.000960004	0.00109987
0.0205436	0.0392294	0.00085217	0.000502647	0.000874183	0.00132803	0.000864117	0.00170987
0.0107773	0.0441848	0.000951391	0.000518492	0.000855851	0.00182536	0.000978515	0.00213838
0.00401207	0.0265516	0.00089071	0.000648195	0.000577347	0.0021757	0.000915255	0.00220711
0.00183369	0.0121008	0.000788979	0.000746229	0.000468319	0.00209873	0.000635745	0.00163985
0.000723793	0.00325579	0.000661124	0.00073907	0.000468659	0.00316421	0.000517917	0.0013326
0.00249952	0.0015735	0.000668733	0.000702768	0.000538233	0.00346251	0.00062077	0.00101479
0.00384829	0.00112825	0.000596336	0.000693933	0.000579624	0.00263032	0.000884102	0.00136913
0.00753012	0.00174727	0.00048339	0.000556958	0.000557645	0.00140645	0.00110713	0.00141443
0.0148983	0.00671041	0.000397146	0.000513943	0.000528679	0.00060235	0.000991297	0.00108745
0.0199591	0.0144244	0.000531626	0.000445062	0.000536373	0.000658532	0.000837026	0.000820758
0.0186996	0.0192414	0.000755293	0.000516841	0.00075898	0.000755313	0.000917588	0.000722445
0.0111618	0.0226003	0.000819822	0.000480926	0.000853837	0.00105498	0.00118485	0.000642025
0.00467614	0.0288018	0.000751007	0.000467698	0.000789575	0.00114512	0.00219449	0.000918438
0.00899233	0.0261191	0.000710264	0.000446352	0.000606401	0.00102144	0.00192415	0.00111644
0.0150132	0.0127006	0.000830492	0.000506579	0.000654372	0.0010428	0.00153348	0.0024501
0.0178513	0.00480669	0.000967897	0.000578285	0.000620695	0.00127088	0.00111017	0.00293736
0.00850357	0.00349573	0.00108339	0.000536913	0.000731516	0.00136897	0.00136216	0.0032869
0.00506295	0.00263449	0.000752728	0.000642794	0.000647957	0.00120505	0.00123167	0.00189943
0.00604832	0.00171251	0.000843981	0.000677843	0.00101477	0.000808847	0.000971065	0.00130114
0.00835954	0.00232646	0.000779455	0.000624626	0.00124309	0.00051145	0.000620528	0.00106558
0.00916692	0.00694993	0.000797173	0.000580182	0.00139062	0.00052356	0.00173763	0.00105533
0.00546784	0.0113083	0.000594052	0.000482074	0.000909294	0.00060465	0.00230117	0.000776549
0.00285776	0.0177485	0.000635198	0.000522084	0.000588491	0.000658257	0.00241735	0.000827504
0.00135751	0.0222465	0.00074023	0.000508771	0.0003941	0.000707348	0.00118773	0.000719332
0.000915838	0.0357611	0.000999467	0.000479887	0.000499835	0.00070869	0.000884721	0.000847909
0.000668726	0.0356996	0.00145242	0.00043423	0.00104605	0.000744319	0.000688551	0.000859423
0.000526246	0.0262454	0.00123776	0.000448039	0.00107351	0.000530858	0.000762932	0.00257322
0.000585879	0.00808097	0.0010314	0.000473513	0.00109195	0.000431825	0.000845841	0.00350067
0.000660296	0.00316939	0.000583878	0.000464042	0.000662604	0.000348156	0.000905646	0.00320138
0.000750469	0.00173883	0.000689711	0.000443717	0.000671851	0.000497893	0.000989553	0.00170792
0.000614131	0.00114509	0.000718322	0.000477979	0.000764114	0.000571906	0.00133612	0.000981862
0.000884601	0.00130713	0.000802188	0.000552087	0.00101905	0.000742004	0.00112742	0.00115139
0.00155794	0.00125091	0.000930424	0.000585969	0.00118882	0.000680032	0.00103023	0.00133625
0.00229814	0.00100003	0.000796388	0.000565055	0.00111577	0.000675347	0.000696344	0.00132816
0.00191912	0.00102833	0.000842124	0.000608371	0.000759667	0.000771796	0.000697177	0.00104812
0.00129421	0.00150623	0.00117246	0.000676177	0.00102145	0.000693184	0.00144403	0.000939743
0.000693066	0.00214362	0.00116738	0.000703159	0.00100513	0.000639184	0.00212122	0.000752797
0.000592691	0.00263399	0.00110194	0.0006383	0.000889096	0.000746464	0.00214431	0.000852021
0.000456335	0.00300862	0.000670139	0.000609128	0.000589758	0.000933629	0.00140481	0.00130075
0.000424552	0.00318403	0.000741676	0.000551131	0.000517416	0.00114537	0.00115114	0.00172203
0.000461539	0.00215758	0.000792041	0.000545649	0.000576617	0.00102585	0.00113216	0.00145805
0.000570808	0.000964793	0.000765093	0.000510298	0.000621138	0.00104175	0.00123923	0.00104855
0.000726873	0.000600483	0.000671506	0.000527088	0.000956319	0.000829354	0.00115408	0.000588177
0.000860168	0.000700075	0.000828551	0.000482197	0.000987567	0.000781101	0.00123188	0.00100276
0.000886904	0.000819427	0.00079059	0.000626077	0.000910358	0.00070946	0.00100335	0.000887265
0.000760131	0.000727571	0.000728471	0.000720337	0.000736731	0.00081848	0.000888628	0.00093909
0.00066324	0.00179832	0.000604822	0.000751791	0.000647754	0.000660609	0.000749411	0.000669976
0.000594122	0.00903933	0.000732334	0.000720653	0.000769077	0.000678854	0.000615337	0.00082723
0.000649383	0.0126602	0.000756239	0.000663191	0.000729844	0.000736907	0.000400679	0.000915465
0.000493673	0.0108861	0.00101346	0.000632666	0.000715019	0.000822679	0.000612746	0.001104
0.000456745	0.00455793	0.00146485	0.000715593	0.00162492	0.000903231	0.000795084	0.000894187
0.000405214	0.00128115	0.0012834	0.000955679	0.00179282	0.00122659	0.000910155	0.00100301
0.000389696	0.00117302	0.00117835	0.00101384	0.00172891	0.00127839	0.000741809	0.000868728
0.000420374	0.00106053	0.000648182	0.00131689	0.00081565	0.00131917	0.000684731	0.00105373
0.000472529	0.00100387	0.000756743	0.00118742	0.000555791	0.000918322	0.000817213	0.00097591
0.000571081	0.000731102	0.000824004	0.000850957	0.000529702	0.000956042	0.000896515	0.000805931
0.000648442	0.000626873	0.000891635	0.000490942	0.000580552	0.0010127	0.000698275	0.000780491
0.000685688	0.000673464	0.000868842	0.000510878	0.000594964	0.00120433	0.000586243	0.000764985
0.000570098	0.000749454	0.000773609	0.000780233	0.000472355	0.000982568	0.000652305	0.000891078
0.000549909	0.00183698	0.000514953	0.000417638	0.000188702	0.000237901	0.00387272	0.00120939
0.00050046	0.00225348	0.000650875	0.000955184	0.000361027	0.000399794	0.00392106	0.00186802
0.000522285	0.00219663	0.000797441	0.0012538	0.00040596	0.000572962	0.00322065	0.00385187
0.000579853	0.00114871	0.000756674	0.00120781	0.000434217	0.00060456	0.00288538	0.00627261
0.000764377	0.000808264	0.000644834	0.00122469	0.000547185	0.00058522	0.00352598	0.00576607
0.00197601	0.000964779	0.000525736	0.00168965	0.000457797	0.000534067	0.00561929	0.00471382
0.00217219	0.000938456	0.000504803	0.00152509	0.000401686	0.000537574	0.00595215	0.00647969
0.00113069	0.000907652	0.000536404	0.00101001	0.000543712	0.000688125	0.00427006	0.00726417
0.000735226	0.000710103	0.00050896	0.000969993	0.000484261	0.000721057	0.00505853	0.00733269
0.000897381	0.000510163	0.000701724	0.00108407	0.000370945	0.000722854	0.00442785	0.0113721
0.00133794	0.000546912	0.000688276	0.000973699	0.00042255	0.000787557	0.00290958	0.0103064
0.0031207	0.000724588	0.000690047	0.00101427	0.000537138	0.000759975	0.00324477	0.00758094
0.00476514	0.00486679	0.0007221	0.000772334	0.000655709	0.00052366	0.00335328	0.00948919
0.00438702	0.0104048	0.000587902	0.000689203	0.000646124	0.000598923	0.00249914	0.00836891
0.00220004	0.00992818	0.000437102	0.00123755	0.000504243	0.000625903	0.00336295	0.00658663
0.000803822	0.00452395	0.000453533	0.00140869	0.000410347	0.000552425	0.0054018	0.00860474
0.00133702	0.00240961	0.000543571	0.00173949	0.000442682	0.000543036	0.00539035	0.00702747
0.00207792	0.00229315	0.000763247	0.00156004	0.000430086	0.000576291	0.00301699	0.00546919
0.00155052	0.00604347	0.00075809	0.000963778	0.000457876	0.000647856	0.00338462	0.00802068
0.000776584	0.0135746	0.000745832	0.000901893	0.00066462	0.000839902	0.00478622	0.00896932
0.000830821	0.0123561	0.000782016	0.000954175	0.000737801	0.000906121	0.00420361	0.00590265
0.00196283	0.00507762	0.000812219	0.000763919	0.000623749	0.000726486	0.00333051	0.00621872
0.00181892	0.00301988	0.000708988	0.000635237	0.00059302	0.000563216	0.00326492	0.00504429
0.0027443	0.00145129	0.000706903	0.000752564	0.000539907	0.000543285	0.00329411	0.00361509
0.00342295	0.00106955	0.000631773	0.000818369	0.000406652	0.000544036	0.00294083	0.00327704
0.00201047	0.00131971	0.000637943	0.000764438	0.000469472	0.000548258	0.00224055	0.00368187
0.00179449	0.00408938	0.000569591	0.00101613	0.000509895	0.000623679	0.0029881	0.00750379
0.00165099	0.00507986	0.000575194	0.00106354	0.000455272	0.000537873	0.00339611	0.00837957
0.000920059	0.0029972	0.000533613	0.000754274	0.000868995	0.000645853	0.0028442	0.00719263
0.000996456	0.00246947	0.000493451	0.000876418	0.00105188	0.000576257	0.00278632	0.00635299
0.00154291	0.00141176	0.000545586	0.00123728	0.000682139	0.000672497	0.00216332	0.00518727
0.0013325	0.000578106	0.000616533	0.0014028	0.000446879	0.00083855	0.00154853	0.00461156
0.000502972	0.000769609	0.000692194	0.00134822	0.000484236	0.000728514	0.00169893	0.00480547
0.000543942	0.00105949	0.000633535	0.00117	0.000560529	0.000624039	0.00167854	0.00497697
0.00062881	0.000950222	0.000622687	0.000909286	0.000551762	0.000628291	0.00245052	0.00254256
0.000671643	0.000703925	0.000698171	0.00120824	0.00054752	0.000639498	0.00514346	0.00147596
0.000725102	0.00049717	0.00063452	0.00146432	0.000736544	0.000689493	0.00623398	0.00154822
0.000640479	0.0014484	0.000757162	0.00105689	0.000655216	0.000838209	0.00419906	0.0115046
0.000583286	0.00216525	0.000776416	0.000852908	0.000503732	0.000756791	0.00484915	0.0145609
0.00206131	0.0054227	0.000678167	0.000926248	0.000686301	0.00051155	0.00425656	0.00599617
0.00340987	0.0130583	0.000625975	0.00122901	0.000643388	0.000575061	0.00403484	0.00554644
0.00251899	0.0110255	0.000710519	0.001219	0.000563429	0.000636864	0.00606327	0.00511364
0.00086251	0.00200128	0.00078258	0.000874895	0.00052446	0.000672724	0.00527008	0.00439436
0.000660478	0.000737441	0.000658633	0.00115094	0.000517743	0.000543497	0.00321009	0.0036794
0.000499786	0.000747675	0.000531752	0.00141211	0.000715748	0.00047726	0.0042196	0.00316604
0.000496623	0.00105477	0.000534857	0.00124602	0.000622645	0.000614201	0.00315682	0.00506612
0.000442996	0.0041589	0.000660405	0.000994368	0.000584862	0.000616758	0.00215391	0.00512856
0.00135384	0.00543932	0.000688274	0.000903403	0.000613578	0.000607939	0.00267732	0.00515559
0.00166591	0.00211178	0.000638678	0.00174552	0.000640714	0.000469489	0.00506296	0.0142268
0.00161991	0.0015047	0.0007054	0.00169105	0.000584418	0.000624528	0.0052001	0.016512
0.0022467	0.00176163	0.000681144	0.000984497	0.000553728	0.000707928	0.00279874	0.00695097
0.0035735	0.00122707	0.000883648	0.000795564	0.00047368	0.000760324	0.00285565	0.00491116
0.00408432	0.00107002	0.000889832	0.000599434	0.000366984	0.000639073	0.00196837	0.00512188
0.00220578	0.00084467	0.000683518	0.000685941	0.00038327	0.000507737	0.00240127	0.00295108
0.000667762	0.000728149	0.000641766	0.000800026	0.000501577	0.000633732	0.00322483	0.00312328
0.000641768	0.000631501	0.000659539	0.00100592	0.000568865	0.000789645	0.00303675	0.00559734
0.000641703	0.000619766	0.000581148	0.00199644	0.000512375	0.000623256	0.00362159	0.00651831
0.000607786	0.000652919	0.000591298	0.00223926	0.000478298	0.000544526	0.00368582	0.00583556
0.000535346	0.00467464	0.000730229	0.00132689	0.00056324	0.000488738	0.00301986	0.00698658
0.000578435	0.0111318	0.000742044	0.00103876	0.000498983	0.000525352	0.00202958	0.00982568
0.000856979	0.0100243	0.000695243	0.000977452	0.000663672	0.000500537	0.00185482	0.0100159
0.00173589	0.00315911	0.000606611	0.00116748	0.000807826	0.000488521	0.00345871	0.00804479
0.00169175	0.0017722	0.000671314	0.00131775	0.000758066	0.000830648	0.00496981	0.0100437
0.00144852	0.00108607	0.000712872	0.00119073	0.000529687	0.000931795	0.00561913	0.0102951
0.00296877	0.000566305	0.000636242	0.00144569	0.000434106	0.000683785	0.00416912	0.00508027
0.00269934	0.000509252	0.000644143	0.00170935	0.000512478	0.000672595	0.00276305	0.00162082
0.000938306	0.000552622	0.000691203	0.00111139	0.000504158	0.000605526	0.00224936	0.004415
0.000638024	0.000654858	0.000760407	0.00084109	0.000492897	0.000510328	0.00165544	0.00964451
0.000561619	0.000747092	0.000848364	0.000857864	0.000603177	0.000448338	0.00493147	0.0109671
0.000577069	0.000558337	0.000949134	0.00151098	0.000608817	0.00055499	0.00692104	0.00745231
0.00120072	0.00055175	0.000749976	0.00157437	0.000581456	0.000659953	0.00432386	0.00611332
0.00129535	0.000749519	0.000627381	0.00128633	0.000525054	0.000808634	0.00365358	0.00693583
0.000746094	0.000739406	0.000662899	0.0019116	0.000486456	0.00067549	0.00587397	0.00970822
0.000549418	0.000681277	0.000572828	0.00204583	0.000558737	0.000557819	0.00724755	0.0101603
0.000556648	0.000655763	0.000688274	0.0016114	0.000603953	0.000743475	0.00571259	0.00680496
0.000476113	0.000524456	0.000668432	0.000960316	0.000514759	0.000658779	0.00418179	0.00360244
0.00157135	0.000574884	0.000531282	0.00117029	0.000431789	0.000553142	0.00369716	0.00261074
0.00196064	0.000694927	0.000575123	0.00105098	0.000416651	0.000544058	0.00255205	0.00586359
0.000909521	0.000732444	0.000678471	0.000659018	0.000517206	0.000615598	0.00195554	0.0074071
0.000497692	0.00110586	0.000650254	0.000921671	0.000400147	0.000682749	0.00384879	0.00445991
0.000483536	0.00150151	0.000615654	0.00108717	0.000391582	0.000539313	0.00378901	0.00286327
0.00343955	0.00144652	0.000641733	0.000913834	0.000529564	0.000422602	0.00265343	0.00318249
0.00459119	0.000775916	0.000700873	0.00120384	0.000561044	0.00055184	0.00632214	0.00549374
0.00227966	0.000568996	0.00078387	0.00193142	0.000661474	0.000751024	0.00838533	0.00546714
0.00135023	0.000688261	0.000662498	0.00178154	0.00070129	0.000821292	0.00547155	0.00441887
0.00130907	0.000770138	0.000646403	0.00115025	0.000681734	0.000650902	0.00251227	0.0039906
0.00076382	0.0007273	0.000613183	0.00176115	0.000616473	0.000588581	0.00455286	0.00385968
0.000548191	0.000547143	0.000471183	0.00241976	0.00055901	0.000614303	0.00541983	0.00358745
0.000702243	0.000540123	0.000497828	0.00158474	0.000581355	0.000491712	0.00342427	0.0061185
0.000674569	0.000618631	0.000554104	0.00116337	0.000554064	0.00053142	0.002808	0.00586971
0.00115226	0.000743031	0.000635834	0.00115095	0.000602554	0.000641565	0.002769	0.00279127
0.00242733	0.000611534	0.000585567	0.000912486	0.000611855	0.000721286	0.00328651	0.00622506
0.0019957	0.000620108	0.000526079	0.000878824	0.000614509	0.000694783	0.00279162	0.00828542
0.00126762	0.00169646	0.00069012	0.00144117	0.000615178	0.0005862	0.00288857	0.00641623
0.00157002	0.00488689	0.000702425	0.00208962	0.00058239	0.000539914	0.0045165	0.00539742
0.00127554	0.00467904	0.000744333	0.00213061	0.00060903	0.000479981	0.00619208	0.00358203
0.00270339	0.00144421	0.000691304	0.00169314	0.000685174	0.000475571	0.00489077	0.0062668
0.00394897	0.000778242	0.000711885	0.00123258	0.000611939	0.000563186	0.00389956	0.00863796
0.0030979	0.000756238	0.000710534	0.0014456	0.000509236	0.000486675	0.00712495	0.0105616
0.001793	0.000866474	0.000690797	0.00134655	0.000529271	0.000525751	0.00634484	0.00894804
0.00050309	0.00712916	0.000581983	0.00177428	0.000537056	0.00141013	0.00539073	0.00647174
0.00273298	0.0164504	0.000655014	0.00103711	0.000607821	0.00191768	0.00185479	0.00757386
0.00815295	0.0128688	0.000554296	0.000638597	0.000471972	0.00196766	0.00150432	0.0051232
0.0032678	0.019272	0.000631239	0.000801496	0.000424611	0.000731038	0.0026085	0.00623959
0.000937057	0.0270951	0.000971445	0.00119988	0.00043483	0.00252419	0.0016449	0.00438868
0.00179617	0.0215774	0.000937704	0.00198102	0.000488213	0.00657323	0.00396287	0.00557204
0.0045263	0.00972592	0.000664832	0.00149012	0.000459414	0.00635679	0.00593184	0.00326494
0.00389629	0.00297982	0.000518686	0.00153873	0.000524538	0.00266241	0.0048242	0.00352567
0.0032154	0.00402148	0.000531357	0.00164378	0.000615643	0.00517631	0.00351626	0.00289657
0.0174903	0.00507428	0.000396129	0.00200608	0.000788707	0.00757089	0.00637827	0.00686973
0.0104664	0.00246724	0.000569676	0.00148472	0.000687656	0.00557086	0.00697535	0.0058937
0.00103396	0.0062692	0.000682062	0.00104852	0.000382379	0.00540087	0.00230625	0.00233293
0.00136256	0.0108235	0.000655893	0.00115859	0.000440235	0.00247551	0.00271063	0.00272679
0.00612839	0.0106856	0.000683676	0.0008479	0.000510106	0.00147403	0.00144907	0.00348069
0.00627609	0.0157122	0.000831076	0.000812692	0.000575159	0.000904356	0.00256029	0.0021707
0.00424461	0.0251587	0.000774304	0.00205429	0.000512085	0.00283475	0.0036595	0.0024141
0.00205582	0.038048	0.000773087	0.00212993	0.000454396	0.00381147	0.00329826	0.00206831
0.0021016	0.0228061	0.000530963	0.00133002	0.000462608	0.00201196	0.00149177	0.0054639
0.00157783	0.00760622	0.000453257	0.000749771	0.000430416	0.00119363	0.00118845	0.00435119
0.00350998	0.0101123	0.000492146	0.000584036	0.000566793	0.00287275	0.00188269	0.00181102
0.0044475	0.0121507	0.000768539	0.000972656	0.000591367	0.00792442	0.00230548	0.00294125
0.00389817	0.0159768	0.000937871	0.000664301	0.000612162	0.00611507	0.000815236	0.00570442
0.00123323	0.015991	0.000649715	0.000508073	0.000669225	0.00343521	0.000584631	0.0023525
0.00651957	0.040723	0.000668824	0.000420451	0.000797372	0.00226128	0.000717564	0.00091393
0.0202581	0.0396105	0.000665238	0.00055948	0.00063137	0.00328713	0.000795746	0.000522787
0.0116398	0.0151722	0.000641115	0.000619136	0.000577643	0.00390407	0.000965971	0.000587143
0.0018304	0.0101812	0.000707291	0.00114525	0.000697676	0.00317241	0.00111849	0.000716348
0.00308219	0.00448018	0.000846889	0.000957976	0.000565181	0.00161118	0.00162645	0.000917106
0.010057	0.0103948	0.000734692	0.000786184	0.000608545	0.00162597	0.00107163	0.000738325
0.00465555	0.00466955	0.00074754	0.000721278	0.000460301	0.00131022	0.0006885	0.00102473
0.00107354	0.00256303	0.00073467	0.000582769	0.000523787	0.00261607	0.000665596	0.00114833
0.000648074	0.00332626	0.000761339	0.00128941	0.000615603	0.00685936	0.000628878	0.000662299
0.000499368	0.0124571	0.000568173	0.00121779	0.000485268	0.00336061	0.00081242	0.00189421
0.000563068	0.0209084	0.000537467	0.00119052	0.000563364	0.0011762	0.000802762	0.00271857
0.000714766	0.0225894	0.000728005	0.00180596	0.000626619	0.00198277	0.000685423	0.00179411
0.000743842	0.00826557	0.000662612	0.000821021	0.000576595	0.00200181	0.000664343	0.00120103
0.00155931	0.00422273	0.000549164	0.000600728	0.000613682	0.00201192	0.000724237	0.000719921
0.00324888	0.00376894	0.000584531	0.000537154	0.000600069	0.00249541	0.000543192	0.000942196
0.00502532	0.00176034	0.000787431	0.000577018	0.000554536	0.00134225	0.000585882	0.00188658
0.00194433	0.00264333	0.000868223	0.000549885	0.000591118	0.00141226	0.000619977	0.00202415
0.00180446	0.0166102	0.000688125	0.000877175	0.000479517	0.00088796	0.000581722	0.00169107
0.00183664	0.0316767	0.00080655	0.000948156	0.000655192	0.000783896	0.000861628	0.000976338
0.00494705	0.0241442	0.000706131	0.000706557	0.000786205	0.00110544	0.000589899	0.000757566
0.00363806	0.00472717	0.000643964	0.000549107	0.000531403	0.00223021	0.00063677	0.000755948
0.00177685	0.000901875	0.000692832	0.000640888	0.000333665	0.00163146	0.000715462	0.000673939
0.000968566	0.00317782	0.000742848	0.000427385	0.000441008	0.0013813	0.000829961	0.000566612
0.00367096	0.0140734	0.000593405	0.000478405	0.000617162	0.00186031	0.000487905	0.00111149
0.00337256	0.010145	0.000676509	0.000734939	0.00050143	0.00179258	0.000505435	0.00124082
0.00180757	0.0126717	0.000727587	0.00055872	0.000462761	0.00122914	0.000788917	0.000714168
0.00229293	0.0186226	0.000657228	0.000600799	0.000567602	0.00165374	0.000760906	0.000425895
0.00405566	0.0179095	0.000688749	0.000664901	0.000521108	0.0021848	0.000828098	0.000620835
0.00826252	0.00463164	0.000672789	0.000779932	0.000573278	0.00112666	0.000875928	0.000680181
0.00628776	0.00567314	0.000502693	0.000788584	0.000558115	0.00152785	0.000817575	0.000757293
0.00199376	0.0194491	0.000492315	0.000676404	0.000489584	0.00175905	0.00051804	0.00144207
0.00285427	0.0309275	0.000545336	0.000525671	0.000507065	0.00152639	0.000441742	0.00143702
0.003353	0.0212084	0.000506926	0.000520499	0.000638269	0.000753465	0.000607615	0.000960243
0.0191774	0.00743325	0.000676445	0.000481794	0.000671712	0.000699394	0.000686698	0.000759387
0.0212169	0.00210777	0.000627575	0.000556449	0.000681205	0.00119924	0.000734639	0.000765278
0.0059163	0.00892685	0.000642518	0.000573715	0.000514189	0.00215783	0.000668072	0.00131849
0.00532232	0.0117396	0.000658622	0.00058907	0.000605218	0.00104337	0.000642066	0.00182024
0.00194746	0.00487781	0.000693586	0.000484507	0.000532685	0.000995603	0.000494464	0.00119851
0.00620931	0.0157015	0.000629496	0.000467228	0.000478295	0.000839431	0.000591758	0.000999939
0.0170154	0.028492	0.000689404	0.000657202	0.000530869	0.000819192	0.000843011	0.000816412
0.00816055	0.00760153	0.000821483	0.000662612	0.0005273	0.000826644	0.000691249	0.00100491
0.00707085	0.00346674	0.000694794	0.000505447	0.000491	0.000764655	0.000682113	0.000858489
0.0044575	0.00834549	0.000581125	0.000376447	0.000478709	0.000574448	0.000549901	0.000753332
0.00579841	0.0234484	0.000654056	0.000458361	0.000499727	0.000403373	0.000594449	0.000614618
0.00349346	0.0102255	0.000618124	0.000495251	0.00055424	0.000540113	0.000635794	0.000752391
0.00242552	0.00406003	0.000534376	0.000682639	0.000489051	0.000680987	0.000715358	0.00101001
0.00879325	0.00973699	0.000657872	0.000588681	0.000615842	0.000685766	0.000839256	0.00079948
0.0190253	0.0304819	0.00117774	0.00060336	0.00111674	0.0016406	0.000841804	0.00156781
0.0158005	0.0213039	0.00095617	0.000554216	0.000778135	0.00253235	0.00298768	0.00129339
0.00251614	0.00928743	0.000697077	0.000606539	0.000605677	0.00131071	0.00256946	0.000528847
0.00534473	0.00306321	0.000585272	0.000561362	0.000844434	0.000648326	0.00189697	0.000823145
0.00396746	0.00453534	0.00104726	0.000583842	0.00112895	0.000545928	0.00294608	0.00207383
0.0012664	0.00185011	0.00106464	0.00065594	0.00129343	0.000674517	0.00305249	0.00226176
0.00251636	0.000600701	0.000616535	0.000726319	0.000826612	0.00103702	0.001091	0.00245155
0.00155054	0.00270393	0.000688663	0.000855316	0.00100213	0.00106442	0.000563322	0.00203978
0.00158047	0.0105107	0.000861766	0.000782518	0.0013287	0.000764056	0.000741401	0.000719466
0.00138536	0.0119541	0.000992775	0.00051004	0.00124826	0.0007836	0.00148096	0.00167341
0.00147407	0.0105903	0.00125137	0.000672447	0.00248915	0.00174574	0.00351801	0.00214099
0.0010791	0.0152156	0.0014736	0.000893206	0.00191031	0.00245774	0.0036294	0.00112296
0.000886433	0.013337	0.0016495	0.00103334	0.00152644	0.00120392	0.00327716	0.000855678
0.000921521	0.0140851	0.00121587	0.000716494	0.00107768	0.000620354	0.00257577	0.000827846
0.00058345	0.0045056	0.000878549	0.000511849	0.000681222	0.000674681	0.00278913	0.00087019
0.000480028	0.00143477	0.000864715	0.000657168	0.000710971	0.000671233	0.00220023	0.00156541
0.000507159	0.00109026	0.000668655	0.000681681	0.000911156	0.000489063	0.00147255	0.00179793
0.000645646	0.00167398	0.000671653	0.000718493	0.00112589	0.000778885	0.000981931	0.00103588
0.000590921	0.00254408	0.000941479	0.000569125	0.000732893	0.00100441	0.000682743	0.000682417
0.000448689	0.00333809	0.000912925	0.000618748	0.000696252	0.00104189	0.000922998	0.000722719
0.000378206	0.00176346	0.000857279	0.000883739	0.00078577	0.000594884	0.0010877	0.000866047
0.000516305	0.00167735	0.000973945	0.0013981	0.00184849	0.000594692	0.000898353	0.000947375
0.000585467	0.00970893	0.000802458	0.00108931	0.00151006	0.000723586	0.000585817	0.00101201
0.000558827	0.00949849	0.000620231	0.000624778	0.000527384	0.000616456	0.00057297	0.000932182
0.000573126	0.00230378	0.000547108	0.000669001	0.000558156	0.00115376	0.000654847	0.000868695
0.000511145	0.00324183	0.000563145	0.000629932	0.000621288	0.00102902	0.000586099	0.00054982
0.000424356	0.00546214	0.000633243	0.000495939	0.000534852	0.00101528	0.000627476	0.000547637
0.000510172	0.00508885	0.000522742	0.000853019	0.000411739	0.00127004	0.000937913	0.000658371
0.000577753	0.00124046	0.000497671	0.00109678	0.000462342	0.00109328	0.00126335	0.000819534
0.000716841	0.000774489	0.00070142	0.000712272	0.000547975	0.000870575	0.00109236	0.000606028
0.000549909	0.00183698	0.000514953	0.000417638	0.000188702	0.000237901	0.00387272	0.00120939
0.000500912	0.00222642	0.000770849	0.00109069	0.000334826	0.0004578	0.00387369	0.00264734
0.000545026	0.00138712	0.000730675	0.00128364	0.00041349	0.000570966	0.00309952	0.0046844
0.000789961	0.000920325	0.000647182	0.00126152	0.000567167	0.000584674	0.00278145	0.0065605
0.00197624	0.000951991	0.000516673	0.00171333	0.000458673	0.000540204	0.00563166	0.00479509
0.00216647	0.00094684	0.00049626	0.00115798	0.000481842	0.00050647	0.00433068	0.00658216
0.000918561	0.000835067	0.000526878	0.000999933	0.000491226	0.000708826	0.00467871	0.00556305
0.000734494	0.000596856	0.00070398	0.00113131	0.000404997	0.000678323	0.00463749	0.011013
0.00172846	0.000543881	0.00070179	0.00100496	0.000421347	0.0008225	0.00259876	0.0108952
0.00373253	0.00130356	0.000753945	0.000872509	0.00053242	0.00055183	0.00269991	0.00848919
0.0049323	0.0102723	0.000613453	0.000695166	0.000644357	0.000626131	0.00337945	0.00864051
0.00226087	0.0100412	0.000431374	0.00123619	0.000517751	0.000628152	0.00320062	0.00660571
0.00089916	0.0042692	0.000419888	0.00162311	0.000433555	0.000531816	0.00575524	0.00909877
0.00158944	0.00173891	0.000621105	0.00161308	0.00040692	0.000539386	0.0042092	0.0056583
0.00174547	0.00424034	0.000815757	0.00116521	0.000467201	0.000637814	0.00253882	0.0076189
0.000768569	0.0138519	0.00072855	0.000889249	0.000680955	0.000848021	0.00486892	0.00875411
0.00129894	0.0104226	0.000675147	0.000858999	0.000706969	0.000879527	0.00367772	0.00672536
0.00203504	0.00359444	0.000767208	0.000738528	0.000566956	0.000685262	0.00311575	0.00639133
0.00233374	0.00172445	0.000744815	0.000763547	0.000597111	0.000547659	0.00341601	0.00360047
0.0034761	0.00103911	0.000602215	0.000780079	0.000387172	0.000569272	0.00286069	0.00313839
0.00169629	0.00249103	0.000594916	0.000948838	0.000469168	0.00054141	0.00211949	0.0055574
0.00170831	0.00501359	0.000704926	0.00106072	0.000514157	0.000562041	0.00353046	0.00831853
0.00101199	0.00298426	0.00054089	0.000787008	0.00085635	0.000634138	0.00284256	0.00741405
0.00103744	0.00223491	0.000508147	0.00083773	0.00106746	0.000660021	0.002508	0.00628483
0.00157598	0.00111938	0.000522143	0.00154625	0.000467079	0.000722063	0.00180781	0.00415836
0.000643634	0.000682636	0.000693426	0.00138949	0.000483099	0.000758857	0.00138729	0.00481424
0.000535856	0.00106547	0.000636858	0.00115922	0.000560213	0.000618235	0.00167572	0.00496767
0.000621781	0.00087579	0.000626072	0.000725006	0.000545444	0.000626104	0.00291242	0.00224105
0.000614264	0.000595051	0.000694388	0.00149998	0.000665813	0.000620909	0.00611494	0.00147845
0.000638584	0.00116906	0.000788878	0.00109805	0.000662175	0.000863248	0.00404442	0.0109922
0.000598569	0.00222267	0.000777414	0.000845442	0.000513009	0.000784255	0.00489912	0.0147869
0.00281646	0.00973396	0.000631633	0.00108708	0.000680981	0.000531777	0.00308647	0.00520487
0.00322186	0.0126509	0.000679513	0.00106499	0.000531972	0.000624435	0.00482458	0.00455459
0.000917271	0.00254485	0.000783101	0.000929403	0.000469088	0.000688853	0.00522227	0.00439752
0.000665269	0.000749697	0.000663546	0.00125026	0.000514345	0.000592407	0.00316715	0.00341085
0.000483661	0.000714004	0.00049729	0.00150159	0.000593759	0.000470114	0.00374212	0.0042349
0.000454335	0.00375513	0.000600535	0.000977098	0.000616126	0.000664374	0.00243411	0.00588507
0.00133171	0.00547087	0.000685575	0.000902727	0.000615317	0.000600057	0.00261747	0.00511964
0.00172869	0.00206358	0.000628892	0.00165503	0.000625115	0.000440957	0.00511615	0.0147763
0.0015317	0.00166902	0.000653562	0.00135386	0.000628149	0.000633791	0.00412749	0.0128205
0.00339949	0.00145507	0.000900243	0.00087967	0.000475131	0.000714213	0.00292061	0.00540861
0.00383567	0.00105065	0.000885136	0.00057419	0.000352685	0.000642883	0.00200136	0.00511982
0.00154001	0.000813961	0.000666149	0.000732628	0.000348208	0.000540937	0.00265834	0.00275229
0.000564116	0.000643367	0.000684748	0.000907249	0.000557125	0.000722651	0.00287144	0.00562016
0.00061425	0.000650414	0.000573545	0.00183746	0.000523322	0.000619325	0.00378681	0.00669075
0.000580692	0.000673171	0.000625816	0.00231222	0.000490796	0.000500793	0.00360344	0.00636768
0.000593094	0.00909135	0.000737943	0.000910331	0.000523857	0.000546822	0.00303043	0.00902436
0.000777185	0.0111436	0.000743555	0.000873831	0.000455802	0.000458724	0.0018482	0.00988939
0.00174335	0.00317949	0.000626956	0.00108687	0.000804212	0.000477092	0.00341019	0.0080318
0.00144627	0.00164144	0.00071969	0.001244	0.000633581	0.000782893	0.00566576	0.0105197
0.00271183	0.000904932	0.000805519	0.00117208	0.00046633	0.000757923	0.00443123	0.00812445
0.0033152	0.000499068	0.000613018	0.00174717	0.000545705	0.000651218	0.0027744	0.00178379
0.000932042	0.000559701	0.000692826	0.0011153	0.000507932	0.000596312	0.00221617	0.00447038
0.000619985	0.000696742	0.000771749	0.000829097	0.000504238	0.000462933	0.00244227	0.0106041
0.000522667	0.000666492	0.000953557	0.00117791	0.000577611	0.000516724	0.0059471	0.00965586
0.00102515	0.00063718	0.000800373	0.00156082	0.00061094	0.000662763	0.0049371	0.0065277
0.00126254	0.000755741	0.000607067	0.00122056	0.000516662	0.000762377	0.00378251	0.0071237
0.000627001	0.000657381	0.000665403	0.0019386	0.000599645	0.000551627	0.0060992	0.0113359
0.000574026	0.00064009	0.000681027	0.00196907	0.000567317	0.00067821	0.00710515	0.00790786
0.000476067	0.00053657	0.000654583	0.000987517	0.000525474	0.000703971	0.00407428	0.00371418
0.00160776	0.000586154	0.000608837	0.00109304	0.000378709	0.000559724	0.00377811	0.00306998
0.00177084	0.000679763	0.000644469	0.000947717	0.000537955	0.000513489	0.00178741	0.00669895
0.000557528	0.000850749	0.000584944	0.00085159	0.000448159	0.000687117	0.00304339	0.00491465
0.000482324	0.00150186	0.000618782	0.00108698	0.0003914	0.000539328	0.00379387	0.00288061
0.00359345	0.0012343	0.000662198	0.000956499	0.000501324	0.000393359	0.00268408	0.00345642
0.00382759	0.000733918	0.000791603	0.00198225	0.000557239	0.000636901	0.00872446	0.00595701
0.00160177	0.000633236	0.000675673	0.00184614	0.000667183	0.000784158	0.00681839	0.00450892
0.00125098	0.000764993	0.000649492	0.00117912	0.000651444	0.000583009	0.00254815	0.00409567
0.000552528	0.000561296	0.000536637	0.00209054	0.00056821	0.000551141	0.00553379	0.0031507
0.000621393	0.000627404	0.000448606	0.00218548	0.000693954	0.000475295	0.0044037	0.0059034
0.000703509	0.000623175	0.000523495	0.00111995	0.000565168	0.000547726	0.00256628	0.00601789
0.00155082	0.000695351	0.000616675	0.00118933	0.000596847	0.000641816	0.00288176	0.00307886
0.00259408	0.000603182	0.000589469	0.000828275	0.000547659	0.000732506	0.00286792	0.0062186
0.00128516	0.00107637	0.000630914	0.00150242	0.000643361	0.000641253	0.00263253	0.00840579
0.00157322	0.004803	0.000707775	0.00208464	0.000597327	0.000538374	0.00444024	0.00562999
0.00119545	0.00368626	0.000734323	0.00203103	0.000657838	0.000505604	0.00557092	0.00391645
0.00377215	0.000782415	0.00076976	0.00161567	0.000607387	0.000539448	0.00446707	0.00748276
0.00336823	0.00079018	0.000773124	0.00139674	0.00051545	0.00048429	0.00647026	0.0118008
0.00179699	0.000863599	0.000707476	0.00134644	0.000522649	0.000514789	0.00641858	0.00885888
0.00171185	0.000866462	0.000594177	0.000946982	0.000441761	0.000459161	0.00308903	0.00253748
0.00179573	0.000964876	0.000434194	0.00103817	0.000599891	0.000609195	0.0025629	0.00512963
0.00161625	0.000963379	0.000680987	0.00130021	0.000671963	0.00061728	0.00313681	0.00717109
0.000683981	0.000688614	0.000535504	0.00111348	0.000636238	0.000596107	0.0024019	0.00862248
0.000570292	0.000681924	0.000823988	0.00143515	0.000568337	0.000589216	0.00315559	0.00555
0.00053834	0.000755039	0.000887291	0.00212846	0.000587148	0.000756926	0.0079885	0.00418772
0.000574238	0.00396309	0.00067947	0.00108627	0.000597374	0.00059493	0.00656177	0.00826093
0.000938721	0.00358863	0.000726555	0.00110877	0.000459195	0.000428981	0.00404519	0.011154
0.00270791	0.0006784	0.000602636	0.00118724	0.000596972	0.000541077	0.00250007	0.00795226
0.00336364	0.000491637	0.000663447	0.00104452	0.000613623	0.000465629	0.00451603	0.0061394
0.00299989	0.000453166	0.00054864	0.00194872	0.000664276	0.000493315	0.00962793	0.00525595
0.00090022	0.000750987	0.000555174	0.00175593	0.000772544	0.000494505	0.00557635	0.00244291
0.000944442	0.000623244	0.000711039	0.00138595	0.000595119	0.000853785	0.00417859	0.00122902
0.00248059	0.000808174	0.000691908	0.000877066	0.000516483	0.000679071	0.0038053	0.00280501
0.00131801	0.000706891	0.000716053	0.00177903	0.000590453	0.000586788	0.0050501	0.006153
0.000354172	0.000620822	0.000864233	0.00202036	0.000593899	0.000551336	0.00427185	0.00609592
0.000472137	0.000678935	0.000651475	0.000804927	0.000618702	0.000492453	0.00349031	0.00791376
0.000826454	0.000845993	0.000827814	0.00173704	0.000751419	0.000417258	0.00423912	0.00731001
0.000947063	0.000926917	0.000891861	0.00108016	0.00074675	0.00053684	0.00356384	0.00312657
0.000559991	0.000772029	0.000618432	0.000998455	0.000543796	0.000604719	0.00208824	0.00383707
0.000454984	0.00102779	0.000674761	0.000846082	0.000353709	0.000758993	0.00219646	0.00795447
0.000425843	0.00885167	0.000740053	0.00148424	0.000536324	0.00228885	0.00345408	0.00519798
0.00045127	0.0318847	0.000887151	0.00215967	0.000469365	0.00352012	0.00330317	0.00990771
0.00356061	0.0295785	0.0007452	0.00164459	0.000570343	0.00328237	0.00297141	0.00774228
0.0114027	0.00702431	0.000494609	0.000745607	0.00073193	0.000715245	0.00302588	0.00472054
0.0091473	0.0017133	0.000513852	0.00102326	0.000633054	0.000509892	0.00275947	0.00470975
0.00144138	0.000766323	0.000568176	0.00170046	0.000637167	0.00109445	0.00218424	0.00364597
0.00177623	0.00155256	0.000608082	0.00165335	0.000672259	0.00366994	0.0018299	0.00179182
0.00198031	0.00464837	0.000652854	0.000852045	0.000590972	0.00540625	0.00119498	0.00125148
0.00185706	0.0107176	0.000661057	0.000581514	0.000672811	0.00300561	0.000941023	0.0011477
0.00171437	0.0153677	0.000683759	0.000944181	0.000578361	0.00177272	0.0021548	0.000966316
0.00139397	0.0183013	0.000621977	0.00122041	0.000420132	0.00348996	0.00598891	0.00615968
0.0025104	0.0157492	0.000624077	0.00107006	0.000438466	0.00336292	0.00745702	0.00869805
0.00405197	0.00763344	0.000776205	0.0011645	0.000471733	0.00365062	0.00556043	0.005376
0.00358408	0.00371332	0.000725946	0.00213222	0.000492541	0.00392785	0.00690084	0.00402248
0.00244115	0.00217209	0.000589949	0.00309048	0.000458452	0.00265817	0.00645061	0.00334087
0.00175838	0.00186201	0.000642236	0.00224788	0.000563126	0.00225056	0.00261842	0.00489695
0.000635868	0.00203289	0.000584442	0.000864013	0.000570865	0.002737	0.000894536	0.00451322
0.000569815	0.00575964	0.000468799	0.000669856	0.000452568	0.00253248	0.000912602	0.00186492
0.0019841	0.0121211	0.000585255	0.00060774	0.000555158	0.00386655	0.000801435	0.0019863
0.00491958	0.0136947	0.00060903	0.000567675	0.000605092	0.00648835	0.000690805	0.00357628
0.00557125	0.0174877	0.000661192	0.000589341	0.000679597	0.00543743	0.00109763	0.00449798
0.00298599	0.0211159	0.000662342	0.000578251	0.000693496	0.00325094	0.00112311	0.00303334
0.000875874	0.0134229	0.000571869	0.000623989	0.000655108	0.00287797	0.000706826	0.000986996
0.000701358	0.00517435	0.000573041	0.000559901	0.00068368	0.00208914	0.000784421	0.00364069
0.00070147	0.0033528	0.000596214	0.00073108	0.000607695	0.00100108	0.0012994	0.00467542
0.00192951	0.00330706	0.000545793	0.000693895	0.000574631	0.000834434	0.00164507	0.00242191
0.00463179	0.00893203	0.000698528	0.000869219	0.000576949	0.00211536	0.00207005	0.00202482
0.00432357	0.0106762	0.000861471	0.00115009	0.00055859	0.0036698	0.00267318	0.00164673
0.00264902	0.00645917	0.000730896	0.000834415	0.000584502	0.00289457	0.00202401	0.00143913
0.00260084	0.0155942	0.000743832	0.00053102	0.000585068	0.0012457	0.000931724	0.00166243
0.0071932	0.0211936	0.000718189	0.000851051	0.000597098	0.00113164	0.000634411	0.0012444
0.00878138	0.0136163	0.0005746	0.00126136	0.000764038	0.00196509	0.000692701	0.000609827
0.0066227	0.00609683	0.000826687	0.00138671	0.000642069	0.00204528	0.000777953	0.000564429
0.017708	0.00530516	0.00100381	0.000952385	0.000518349	0.00127015	0.00075159	0.000540265
0.0190757	0.0136166	0.000765794	0.000516359	0.000572833	0.00162899	0.000567705	0.000623712
0.00588625	0.0159698	0.000697608	0.000545349	0.000628791	0.00137121	0.000576047	0.000726344
0.00133805	0.0201372	0.000637081	0.00076555	0.000561806	0.000581482	0.000581612	0.00121077
0.000845043	0.0238615	0.00052567	0.000669915	0.000508221	0.00103649	0.000540505	0.00144548
0.000646937	0.0128717	0.000600611	0.000520596	0.000451114	0.00306345	0.000471441	0.00105471
0.000655156	0.00924878	0.00048825	0.000488317	0.000491356	0.00334849	0.000549934	0.000731107
0.00182477	0.0215513	0.00043696	0.000372375	0.00051123	0.00151621	0.000622251	0.000658863
0.00232323	0.0204564	0.000543663	0.000439421	0.000483079	0.00103656	0.000632468	0.000937727
0.00543123	0.00655433	0.000636199	0.000612602	0.000559904	0.00135669	0.000787581	0.00100532
0.00674894	0.00211491	0.00052047	0.00051332	0.000587814	0.00191388	0.000791368	0.00196651
0.00326207	0.00261979	0.000582124	0.000567631	0.000622642	0.00166253	0.000594466	0.002043
0.00183348	0.00311659	0.000743108	0.000636686	0.000618343	0.000874309	0.000576747	0.000933821
0.00160476	0.00848398	0.000719083	0.000658178	0.000564622	0.000680308	0.000539766	0.000657736
0.000739863	0.0198599	0.000685542	0.000649558	0.000559665	0.00107509	0.000465394	0.000592411
0.00150463	0.031078	0.000688501	0.000644452	0.000560369	0.0010415	0.000586273	0.000749295
0.00303694	0.023139	0.0007618	0.000704737	0.000630504	0.00131215	0.000659908	0.000831163
0.0022473	0.0110108	0.000602192	0.000588294	0.00056424	0.00138059	0.000581685	0.000713574
0.000632516	0.011832	0.000578729	0.000580783	0.000566899	0.000923748	0.000560192	0.000697848
0.00078532	0.0116645	0.00057773	0.000590122	0.000552743	0.000978782	0.000552096	0.000732364
0.00201807	0.0127913	0.000583614	0.000737575	0.000493221	0.00184256	0.000537106	0.00202682
0.00850535	0.00846256	0.000562993	0.000575595	0.000616393	0.00170403	0.000531533	0.00312316
0.00990348	0.00692605	0.000509174	0.000593063	0.000759764	0.000601105	0.000643064	0.00255441
0.0031399	0.00988454	0.000709081	0.000639488	0.000639602	0.000409447	0.000671823	0.00157172
0.00141105	0.0129771	0.000808325	0.000473731	0.000553249	0.000584685	0.000456997	0.00108185
0.00302721	0.0210717	0.000774412	0.000472272	0.000541317	0.000788759	0.000417481	0.00115556
0.0027912	0.020212	0.000747092	0.000472382	0.000639922	0.000818785	0.00053475	0.00303598
0.00119469	0.00924248	0.000572073	0.000566571	0.000768883	0.000740587	0.000501001	0.00445306
0.00248425	0.00333641	0.00053159	0.000535795	0.000553841	0.00058725	0.000663137	0.0027116
0.0042422	0.00706782	0.000580499	0.000517483	0.000458711	0.000825016	0.000629337	0.000738437
0.00285607	0.00768898	0.000734622	0.000462074	0.000427981	0.00232067	0.000583086	0.000634014
0.000673315	0.00414922	0.00104143	0.000677086	0.000724842	0.00279637	0.0016237	0.00194544
0.000609418	0.00914933	0.00110252	0.000721717	0.000915029	0.00145212	0.00219248	0.00275014
0.00166082	0.0126336	0.000732028	0.000425475	0.000675991	0.00100175	0.00211011	0.00154164
0.00269456	0.0103171	0.000726544	0.000712276	0.001005	0.000926531	0.00160886	0.000801012
0.00213878	0.0241438	0.000850419	0.000814182	0.00190316	0.000800142	0.00124065	0.000845342
0.000914241	0.0299643	0.000596799	0.000645799	0.0016547	0.000974989	0.0011072	0.000836281
0.000477794	0.0176304	0.00104209	0.000756581	0.000995353	0.00106917	0.000610514	0.000801923
0.000572496	0.0110718	0.00146439	0.000677021	0.00142485	0.00107046	0.000587832	0.000638008
0.000581016	0.00401988	0.001051	0.000455475	0.00129675	0.000849771	0.000978023	0.000793414
0.000423249	0.0022454	0.000667079	0.000511011	0.001007	0.000824572	0.00104443	0.000933432
0.000450709	0.005407	0.000509045	0.000579053	0.000919858	0.000905113	0.000723521	0.000869501
0.00363866	0.00793621	0.000701088	0.000593415	0.000683973	0.000678333	0.000494345	0.00133181
0.00434684	0.00417388	0.00102277	0.000573175	0.000721081	0.000699825	0.000607165	0.00179768
0.00144864	0.0011415	0.00101135	0.000548449	0.00125005	0.00121646	0.0007327	0.00177906
0.000625253	0.00183479	0.00109369	0.000543431	0.0015407	0.00167235	0.000802273	0.00217783
0.000541189	0.00833092	0.000922363	0.000552221	0.00102261	0.00128612	0.000944124	0.0018896
0.000537651	0.0116528	0.00120702	0.000455397	0.00105156	0.000856719	0.000740898	0.00152388
0.000454669	0.00591422	0.00136367	0.000428511	0.00107447	0.00102979	0.000535848	0.00135051
0.000432477	0.00161055	0.000869559	0.000490588	0.000657411	0.00122862	0.000616045	0.000634601
0.000459354	0.00205681	0.000797659	0.000521736	0.000787121	0.00107055	0.000723015	0.000710369
0.000592777	0.00176074	0.000842728	0.000635948	0.00112076	0.000872779	0.00059903	0.000922952
0.00061275	0.00131617	0.000971601	0.000693134	0.00115007	0.00127404	0.00046941	0.000833811
0.000471422	0.00136093	0.000882163	0.00063718	0.000758964	0.00109354	0.000535727	0.000610874
0.000461798	0.00157295	0.000543347	0.000597614	0.000533531	0.000800276	0.000827773	0.000563644
0.000578496	0.0018874	0.000537365	0.000680468	0.000510549	0.0012264	0.00105635	0.000802596
0.000657136	0.00152697	0.000644802	0.000760354	0.00068604	0.00127494	0.00087517	0.00121652
0.000723911	0.000987324	0.000634077	0.000732655	0.000823212	0.000935626	0.000790801	0.00107473
0.000623397	0.0025292	0.000733365	0.000688047	0.0010537	0.000946794	0.000606372	0.00059845
0.000531881	0.00464387	0.000929303	0.000904807	0.0010287	0.00121761	0.000457039	0.000668375
0.00056173	0.00532816	0.000721844	0.000919439	0.000812031	0.00157511	0.000627884	0.00127824
0.000570619	0.00370956	0.000507844	0.000782846	0.00077913	0.00125113	0.000659919	0.00152953
0.000515269	0.00162064	0.000589684	0.000761009	0.00083482	0.000894036	0.000529668	0.00133881
0.000414098	0.000796329	0.000571959	0.000602445	0.000881068	0.00128975	0.00056494	0.00109058
0.00050347	0.000554773	0.000666353	0.000466347	0.000933945	0.00128833	0.0006119	0.000838403
0.00055403	0.000715779	0.000672739	0.000497261	0.000948001	0.00181842	0.000481803	0.000914638
0.000520725	0.00103126	0.000553884	0.000602672	0.000610087	0.00199976	0.000734916	0.00124789
0.000549909	0.00183698	0.000514953	0.000417638	0.000188702	0.000237901	0.00387272	0.00120939
0.000583584	0.00217738	0.000750129	0.0011613	0.000341586	0.000503467	0.00381345	0.00263458
0.000576522	0.00115707	0.000760435	0.001203	0.000429645	0.000614516	0.00294458	0.00621639
0.00111121	0.000793197	0.000564567	0.00145448	0.000497008	0.000588715	0.00490993	0.00490772
0.00216571	0.000924766	0.000502298	0.00151987	0.000381685	0.000536793	0.00607191	0.00639388
0.000986222	0.000928035	0.000528512	0.00102102	0.00050932	0.000704182	0.00452643	0.00684186
0.000742568	0.000595751	0.000706574	0.00112975	0.00040159	0.000682005	0.00462195	0.0110341
0.00182986	0.000573862	0.000610748	0.00102217	0.000492277	0.000759693	0.00257077	0.00952717
0.00439691	0.00359156	0.000788358	0.000782849	0.000642257	0.000552671	0.00335461	0.00954091
0.00316874	0.0115914	0.000507416	0.000834285	0.000670466	0.000625436	0.00266034	0.00694096
0.000901639	0.00444221	0.000519142	0.00131604	0.000437448	0.000592834	0.00466647	0.00790952
0.00139355	0.00222839	0.000546007	0.00178428	0.000418262	0.000550045	0.00424543	0.00665601
0.00172123	0.00427772	0.000810301	0.00115581	0.000465374	0.000633775	0.00256718	0.00768916
0.000735657	0.0137544	0.000647459	0.000793806	0.000741581	0.000890195	0.00472944	0.00789333
0.00181427	0.00594467	0.000707454	0.000804628	0.000597022	0.000737477	0.00296797	0.00685762
0.00140612	0.00224403	0.000747883	0.000698557	0.000557407	0.000551608	0.00334769	0.0048124
