"Time"	"45 sw offset"	"44 sw onset"	"11 Gr"	"10 Gs"	"9 TA"	"8 St"	"7 VL"	"6 BF"	"5 Ip"	"4 GM"
0.00	0	0	0.00697	0.00188	0.00803	0.00062	0.00057	0.00050	0.02234	0.00281
0.01	0	0	0.00231	0.00179	0.00372	0.00090	0.00045	0.00052	0.00769	0.00455
0.02	0	0	0.00547	0.00249	0.00321	0.00076	0.00076	0.00078	0.01836	0.00476
0.03	0	0	0.00123	0.00111	0.00160	0.00120	0.00037	0.00068	0.01492	0.00080
0.04	0	0	0.00085	0.00059	0.00135	0.00046	0.00051	0.00071	0.00662	0.00226
0.05	0	0	0.00161	0.00055	0.00108	0.00050	0.00051	0.00062	0.00824	0.00080
0.06	0	0	0.00193	0.00055	0.00092	0.00053	0.00062	0.00064	0.00171	0.00338
0.07	0	0	0.00078	0.00065	0.00078	0.00068	0.00064	0.00062	0.00581	0.00049
0.08	0	0	0.00063	0.00055	0.00111	0.00046	0.00087	0.00089	0.00175	0.00063
0.09	0	0	0.00099	0.00052	0.00061	0.00058	0.00097	0.00105	0.00117	0.00069
0.10	1	0	0.00078	0.00052	0.00070	0.00061	0.00119	0.00097	0.00064	0.00064
0.11	0	0	0.00143	0.00067	0.00126	0.00070	0.00063	0.00073	0.00090	0.00051
0.12	0	0	0.00114	0.00080	0.00084	0.00096	0.00063	0.00059	0.00089	0.00059
0.13	0	0	0.00107	0.00080	0.00079	0.00227	0.00049	0.00093	0.00086	0.00052
0.14	0	0	0.00205	0.00116	0.00085	0.00196	0.00075	0.00084	0.00155	0.00058
0.15	0	0	0.00105	0.00138	0.00104	0.00226	0.00055	0.00082	0.00042	0.00053
0.16	0	0	0.00090	0.00093	0.00094	0.00148	0.00068	0.00078	0.00102	0.00044
0.17	0	0	0.00093	0.00101	0.00088	0.00128	0.00063	0.00055	0.00078	0.00054
0.18	0	0	0.00280	0.00147	0.00046	0.00117	0.00054	0.00068	0.00064	0.00049
0.19	0	0	0.00253	0.00224	0.00054	0.00197	0.00064	0.00076	0.00063	0.00039
0.20	0	0	0.00061	0.00151	0.00083	0.00211	0.00081	0.00067	0.00140	0.00040
0.21	0	0	0.00058	0.00088	0.00039	0.00068	0.00063	0.00103	0.00090	0.00054
0.22	0	0	0.00090	0.00143	0.00084	0.00064	0.00078	0.00136	0.00078	0.00104
0.23	0	0	0.00123	0.00059	0.00054	0.00078	0.00054	0.00071	0.00064	0.00053
0.24	0	1	0.00191	0.00858	0.00232	0.00152	0.00091	0.00062	0.04314	0.00983
0.25	0	0	0.00930	0.00819	0.00181	0.00257	0.00082	0.00078	0.00734	0.00076
0.26	0	0	0.00228	0.00136	0.00134	0.00105	0.00104	0.00087	0.02889	0.00059
0.27	0	0	0.00349	0.00073	0.00041	0.00067	0.00042	0.00070	0.00066	0.00199
0.28	0	0	0.00282	0.00111	0.00068	0.00090	0.00050	0.00064	0.01053	0.00370
0.29	0	0	0.00117	0.00060	0.00079	0.00060	0.00064	0.00087	0.01194	0.00164
0.30	0	0	0.00187	0.00063	0.00180	0.00053	0.00055	0.00074	0.01316	0.00699
0.31	0	0	0.00091	0.00061	0.00060	0.00051	0.00069	0.00053	0.02361	0.00479
0.32	0	0	0.00146	0.00074	0.00072	0.00050	0.00137	0.00098	0.01093	0.00520
0.33	0	0	0.00088	0.00073	0.00088	0.00046	0.00090	0.00095	0.00171	0.00055
0.34	0	0	0.00067	0.00075	0.00053	0.00083	0.00099	0.00078	0.00124	0.00055
0.35	1	0	0.00216	0.00059	0.00113	0.00049	0.00093	0.00068	0.00521	0.00057
0.36	0	0	0.00479	0.00071	0.00052	0.00124	0.00100	0.00066	0.00137	0.00051
0.37	0	0	0.00107	0.00061	0.00106	0.00067	0.00076	0.00087	0.00095	0.00063
0.38	0	0	0.00261	0.00089	0.00169	0.00318	0.00183	0.00126	0.00106	0.00040
0.39	0	0	0.00125	0.00264	0.00059	0.00422	0.00195	0.00176	0.00104	0.00062
0.40	0	0	0.00077	0.00068	0.00063	0.00088	0.00143	0.00087	0.00099	0.00060
0.41	0	0	0.00123	0.00136	0.00065	0.00154	0.00193	0.00182	0.00284	0.00072
0.42	0	0	0.00070	0.00051	0.00062	0.00050	0.00095	0.00092	0.00098	0.00061
0.43	0	0	0.00075	0.00069	0.00041	0.00062	0.00078	0.00106	0.00238	0.00049
0.44	0	0	0.00059	0.00300	0.00069	0.00058	0.00084	0.00104	0.00181	0.00075
0.45	0	1	0.00349	0.00406	0.00362	0.00298	0.00078	0.00063	0.02553	0.00193
0.46	0	0	0.00626	0.00501	0.00100	0.00099	0.00060	0.00063	0.02244	0.00108
0.47	0	0	0.00613	0.00249	0.00186	0.00190	0.00054	0.00061	0.00781	0.00296
0.48	0	0	0.00468	0.00565	0.00709	0.00195	0.00060	0.00055	0.00483	0.01713
0.49	0	0	0.00224	0.00082	0.00289	0.00133	0.00052	0.00063	0.01049	0.00084
0.50	0	0	0.00104	0.00053	0.00195	0.00063	0.00057	0.00059	0.00970	0.00947
0.51	0	0	0.00079	0.00052	0.00077	0.00064	0.00054	0.00056	0.01391	0.00233
0.52	0	0	0.00074	0.00064	0.00177	0.00054	0.00057	0.00065	0.02121	0.00594
0.53	0	0	0.00201	0.00070	0.00204	0.00047	0.00059	0.00055	0.01003	0.00378
0.54	0	0	0.00075	0.00094	0.00088	0.00058	0.00048	0.00089	0.00697	0.00230
0.55	0	0	0.00111	0.00069	0.00078	0.00047	0.00101	0.00094	0.00696	0.00130
0.56	0	0	0.00148	0.00113	0.00079	0.00080	0.00081	0.00081	0.00236	0.00061
0.57	1	0	0.00132	0.00075	0.00085	0.00122	0.00060	0.00084	0.00101	0.00059
0.58	0	0	0.00112	0.00849	0.00135	0.00224	0.00151	0.00103	0.00333	0.00158
0.59	0	0	0.00131	0.00081	0.00087	0.00115	0.00118	0.00082	0.00117	0.00079
0.60	0	0	0.00136	0.00175	0.00146	0.00239	0.00083	0.00107	0.00193	0.00062
0.61	0	0	0.00157	0.00151	0.00081	0.00092	0.00061	0.00115	0.00074	0.00068
0.62	0	0	0.00115	0.00086	0.00065	0.00076	0.00054	0.00082	0.00085	0.00060
0.63	0	0	0.00142	0.00253	0.00078	0.00484	0.00104	0.00101	0.00051	0.00054
0.64	0	0	0.00255	0.00355	0.00058	0.00661	0.00303	0.00153	0.00263	0.00073
0.65	0	0	0.00113	0.00060	0.00086	0.00057	0.00343	0.00963	0.00245	0.00059
0.66	0	0	0.00068	0.00065	0.00079	0.00054	0.00139	0.00115	0.00110	0.00072
0.67	0	0	0.00073	0.00078	0.00064	0.00060	0.00242	0.00182	0.00282	0.00049
0.68	0	1	0.00108	0.00078	0.00062	0.00059	0.00059	0.00090	0.00105	0.00489
0.69	0	0	0.00250	0.00272	0.00218	0.00199	0.00068	0.00061	0.01847	0.00170
0.70	0	0	0.00707	0.00194	0.00295	0.00216	0.00067	0.00066	0.00443	0.00092
0.71	0	0	0.00123	0.00235	0.00375	0.00094	0.00054	0.00063	0.01042	0.00179
0.72	0	0	0.00299	0.00288	0.00268	0.00083	0.00050	0.00063	0.01850	0.00298
0.73	0	0	0.00220	0.00063	0.00198	0.00070	0.00054	0.00070	0.01630	0.02332
0.74	0	0	0.00129	0.00076	0.00327	0.00049	0.00046	0.00050	0.02346	0.00885
0.75	0	0	0.00106	0.00053	0.00149	0.00062	0.00052	0.00065	0.00814	0.00161
0.76	0	0	0.00248	0.00047	0.00053	0.00062	0.00053	0.00057	0.00494	0.00886
0.77	0	0	0.00076	0.00061	0.00192	0.00069	0.00101	0.00090	0.00384	0.00088
0.78	0	0	0.00135	0.00402	0.00105	0.00073	0.00094	0.00096	0.00323	0.00418
0.79	1	0	0.00072	0.00103	0.00072	0.00089	0.00068	0.00087	0.00094	0.00082
0.80	0	0	0.00088	0.00069	0.00080	0.00081	0.00058	0.00052	0.00286	0.00051
0.81	0	0	0.00113	0.00084	0.00085	0.00102	0.00140	0.00100	0.00114	0.00052
0.82	0	0	0.00073	0.00087	0.00110	0.00072	0.00072	0.00094	0.00081	0.00049
0.83	0	0	0.00175	0.00329	0.00105	0.00177	0.00074	0.00058	0.00084	0.00057
0.84	0	0	0.00254	0.00067	0.00065	0.00059	0.00030	0.00075	0.00073	0.00033
0.85	0	0	0.00135	0.00161	0.00084	0.00133	0.00044	0.00065	0.00055	0.00055
0.86	0	0	0.00130	0.00148	0.00072	0.00179	0.00079	0.00078	0.00110	0.00056
0.87	0	0	0.00150	0.00119	0.00079	0.00106	0.00047	0.00078	0.00099	0.00050
0.88	0	0	0.00087	0.00104	0.00097	0.00233	0.00348	0.00157	0.00163	0.00055
0.89	0	0	0.00087	0.00074	0.00098	0.00126	0.00085	0.00051	0.00081	0.00067
0.90	0	0	0.00108	0.00133	0.00048	0.00103	0.00127	0.00105	0.00181	0.00057
0.91	0	0	0.00159	0.00057	0.00058	0.00168	0.00132	0.00092	0.00078	0.00086
0.92	0	0	0.00094	0.00084	0.00069	0.00081	0.00063	0.00104	0.00084	0.00080
0.93	0	0	0.00091	0.00088	0.00060	0.00078	0.00061	0.00074	0.03758	0.00413
0.94	0	1	0.00317	0.00668	0.00102	0.00160	0.00082	0.00068	0.00882	0.02238
0.95	0	0	0.00748	0.00376	0.00314	0.00059	0.00056	0.00067	0.01502	0.00124
0.96	0	0	0.00228	0.00167	0.00208	0.00077	0.00055	0.00065	0.00572	0.00149
0.97	0	0	0.00137	0.00094	0.00450	0.00048	0.00061	0.00073	0.02319	0.00098
0.98	0	0	0.00045	0.00066	0.00064	0.00049	0.00046	0.00069	0.00057	0.00109
0.99	0	0	0.00070	0.00167	0.00076	0.00047	0.00049	0.00073	0.01845	0.00301
1.00	0	0	0.00179	0.00292	0.00092	0.00068	0.00093	0.00098	0.02028	0.00568
1.01	0	0	0.00183	0.00109	0.00094	0.00049	0.00091	0.00107	0.00332	0.00097
1.02	0	0	0.00075	0.00090	0.00107	0.00076	0.00093	0.00078	0.00093	0.00041
1.03	1	0	0.00096	0.00061	0.00097	0.00065	0.00117	0.00056	0.00087	0.00047
1.04	0	0	0.00127	0.00173	0.00128	0.00050	0.00115	0.00132	0.00116	0.00046
1.05	0	0	0.00161	0.00111	0.00108	0.00095	0.00173	0.00097	0.00167	0.00064
1.06	0	0	0.00080	0.00062	0.00063	0.00134	0.00112	0.00075	0.00133	0.00059
1.07	0	0	0.00167	0.00058	0.00060	0.00087	0.00079	0.00069	0.00086	0.00046
1.08	0	0	0.00070	0.00128	0.00080	0.00376	0.00090	0.00088	0.00129	0.00068
1.09	0	0	0.00242	0.00203	0.00106	0.00254	0.00055	0.00044	0.00058	0.00062
1.10	0	0	0.00154	0.00168	0.00054	0.00187	0.00058	0.00072	0.00084	0.00048
1.11	0	0	0.00577	0.00077	0.00068	0.00074	0.00061	0.00062	0.00078	0.00063
1.12	0	0	0.00088	0.00135	0.00071	0.00239	0.00043	0.00060	0.00109	0.00057
1.13	0	0	0.00172	0.00193	0.00057	0.00265	0.00048	0.00054	0.00060	0.00064
1.14	0	0	0.00088	0.00243	0.00066	0.00193	0.00068	0.00098	0.00054	0.00062
1.15	0	0	0.00064	0.00136	0.00060	0.00163	0.00074	0.00095	0.00088	0.00050
1.16	0	0	0.00069	0.00178	0.00099	0.00181	0.00139	0.00081	0.00063	0.00061
1.17	0	0	0.00061	0.00076	0.00063	0.00068	0.00077	0.00086	0.00145	0.00047
1.18	0	0	0.00100	0.00096	0.00064	0.00084	0.00063	0.00114	0.00061	0.00051
1.19	0	0	0.00061	0.00065	0.00053	0.00058	0.00087	0.00069	0.01011	0.00092
1.20	0	0	0.00413	0.00207	0.00065	0.00118	0.00080	0.00071	0.02343	0.00873
1.21	0	1	0.00921	0.00581	0.00163	0.00148	0.00058	0.00067	0.00993	0.00043
1.22	0	0	0.00569	0.00353	0.00623	0.00159	0.00221	0.00094	0.00944	0.00494
1.23	0	0	0.00131	0.00116	0.00226	0.00085	0.00059	0.00064	0.00235	0.00113
1.24	0	0	0.00049	0.00133	0.00283	0.00074	0.00053	0.00073	0.01807	0.00371
1.25	0	0	0.00100	0.00061	0.00342	0.00070	0.00052	0.00065	0.00172	0.00210
1.26	0	0	0.00128	0.00095	0.00081	0.00068	0.00101	0.00086	0.00167	0.00618
1.27	0	0	0.00121	0.00112	0.00064	0.00056	0.00107	0.00082	0.00135	0.00094
1.28	0	0	0.00096	0.00100	0.00074	0.00068	0.00082	0.00070	0.00082	0.00090
1.29	1	0	0.00094	0.00071	0.00109	0.00073	0.00054	0.00085	0.00072	0.00058
1.30	0	0	0.00142	0.00139	0.00212	0.00113	0.00090	0.00177	0.00128	0.00069
1.31	0	0	0.00102	0.00065	0.00130	0.00126	0.00193	0.00198	0.00089	0.00087
1.32	0	0	0.00219	0.00074	0.00104	0.00138	0.00278	0.00180	0.00066	0.00055
1.33	0	0	0.00100	0.00080	0.00088	0.00322	0.00080	0.00065	0.00062	0.00059
1.34	0	0	0.00133	0.00243	0.00048	0.00527	0.00063	0.00069	0.00090	0.00051
1.35	0	0	0.00119	0.00102	0.00080	0.00104	0.00245	0.00166	0.00270	0.00053
1.36	0	0	0.00062	0.00066	0.00107	0.00062	0.00080	0.00094	0.00129	0.00048
1.37	0	0	0.00080	0.00084	0.00054	0.00090	0.00132	0.00221	0.00349	0.00064
1.38	0	0	0.00186	0.00064	0.00072	0.00054	0.00076	0.00071	0.00063	0.00067
1.39	0	1	0.00256	0.00598	0.00151	0.00179	0.00064	0.00060	0.01490	0.00081
1.40	0	0	0.00351	0.00450	0.00295	0.00145	0.00048	0.00048	0.00332	0.00448
1.41	0	0	0.00253	0.00345	0.00253	0.00179	0.00054	0.00080	0.02062	0.00478
1.42	0	0	0.00114	0.00069	0.00248	0.00047	0.00077	0.00075	0.02420	0.00333
1.43	0	0	0.00110	0.00070	0.00486	0.00063	0.00052	0.00070	0.00209	0.00089
1.44	0	0	0.00208	0.00055	0.00119	0.00055	0.00054	0.00085	0.00132	0.00487
1.45	0	0	0.00115	0.00048	0.00191	0.00048	0.00061	0.00061	0.01421	0.00375
1.46	0	0	0.00149	0.00043	0.00159	0.00059	0.00049	0.00052	0.02975	0.00276
1.47	0	0	0.00091	0.00075	0.00081	0.00059	0.00061	0.00055	0.02632	0.01520
1.48	0	0	0.00130	0.00091	0.00081	0.00059	0.00091	0.00106	0.02518	0.01377
1.49	0	0	0.00118	0.00043	0.00074	0.00090	0.00111	0.00067	0.00354	0.00156
1.50	0	0	0.00157	0.00210	0.00069	0.00069	0.00070	0.00080	0.00116	0.00050
1.51	1	0	0.00098	0.00058	0.00065	0.00066	0.00052	0.00065	0.00962	0.00055
1.52	0	0	0.00071	0.00067	0.00100	0.00089	0.00044	0.00056	0.00118	0.00060
1.53	0	0	0.00133	0.00078	0.00107	0.00113	0.00163	0.00067	0.00105	0.00063
1.54	0	0	0.00145	0.00064	0.00071	0.00115	0.00090	0.00084	0.00103	0.00079
1.55	0	0	0.00079	0.00296	0.00096	0.00119	0.00075	0.01623	0.00062	0.00061
1.56	0	0	0.00252	0.00050	0.00100	0.00115	0.00084	0.00080	0.00098	0.00050
1.57	0	0	0.00226	0.00196	0.00069	0.00298	0.00070	0.00086	0.00129	0.00050
1.58	0	0	0.00266	0.00074	0.00053	0.00126	0.00100	0.00083	0.00087	0.00063
1.59	0	0	0.00169	0.00107	0.00062	0.00168	0.00085	0.00103	0.00182	0.00048
1.60	0	0	0.00100	0.00191	0.00064	0.00221	0.00090	0.00097	0.00243	0.00057
1.61	0	0	0.00113	0.00072	0.00083	0.00099	0.00142	0.00109	0.00094	0.00047
1.62	0	0	0.00156	0.00053	0.00085	0.00055	0.00068	0.00753	0.00225	0.00040
1.63	0	0	0.00066	0.00106	0.00063	0.00088	0.00062	0.00065	0.00070	0.00063
1.64	0	1	0.00288	0.00420	0.00063	0.00205	0.00078	0.00073	0.00825	0.00448
1.65	0	0	0.00464	0.00268	0.00046	0.00095	0.00062	0.00052	0.00202	0.00949
1.66	0	0	0.00291	0.00701	0.00344	0.00304	0.00048	0.00067	0.00265	0.00273
1.67	0	0	0.00402	0.00102	0.00159	0.00060	0.00072	0.00060	0.00424	0.00075
1.68	0	0	0.00051	0.00074	0.00135	0.00095	0.00051	0.00093	0.00598	0.01759
1.69	0	0	0.00193	0.00080	0.00174	0.00053	0.00053	0.00055	0.00216	0.00669
1.70	0	0	0.00092	0.00054	0.00146	0.00073	0.00052	0.00056	0.01199	0.00132
1.71	0	0	0.00066	0.00064	0.00115	0.00051	0.00046	0.00063	0.00737	0.00436
1.72	0	0	0.00079	0.00098	0.00085	0.00046	0.00128	0.00103	0.00399	0.00058
1.73	0	0	0.00077	0.00061	0.00113	0.00042	0.00076	0.00111	0.00203	0.00040
1.74	1	0	0.00057	0.00044	0.00114	0.00085	0.00100	0.00087	0.00391	0.00057
1.75	0	0	0.00069	0.00062	0.00055	0.00093	0.00149	0.00069	0.00131	0.00049
1.76	0	0	0.00141	0.00058	0.00116	0.00078	0.00076	0.00075	0.00109	0.00077
1.77	0	0	0.00134	0.00074	0.00136	0.00083	0.00058	0.00059	0.00136	0.00054
1.78	0	0	0.00092	0.00065	0.00057	0.00101	0.00041	0.00074	0.00086	0.00076
1.79	0	0	0.00185	0.00069	0.00071	0.00093	0.00081	0.00078	0.00126	0.00060
1.80	0	0	0.00182	0.00091	0.00065	0.00092	0.00050	0.00084	0.00049	0.00053
1.81	0	0	0.00264	0.00197	0.00074	0.00217	0.00054	0.00076	0.00104	0.00040
1.82	0	0	0.00069	0.00144	0.00070	0.00147	0.00056	0.00055	0.00071	0.00046
1.83	0	0	0.00130	0.00301	0.00085	0.00341	0.00151	0.00898	0.00119	0.00120
1.84	0	0	0.00144	0.00102	0.00069	0.00096	0.00066	0.00073	0.00088	0.00067
1.85	0	0	0.00111	0.00247	0.00069	0.00294	0.00246	0.00138	0.00159	0.00038
1.86	0	0	0.00120	0.00075	0.00091	0.00170	0.00072	0.00117	0.00153	0.00116
1.87	0	0	0.00094	0.00111	0.00069	0.00119	0.00131	0.00094	0.00159	0.00054
1.88	0	0	0.00114	0.00043	0.00052	0.00062	0.00045	0.00080	0.00419	0.00378
1.89	0	1	0.00218	0.00256	0.00089	0.00272	0.00059	0.00066	0.02535	0.01020
1.90	0	0	0.00672	0.00573	0.00229	0.00113	0.00062	0.00069	0.01673	0.00275
1.91	0	0	0.00696	0.00368	0.00572	0.00087	0.00059	0.00061	0.00367	0.00055
1.92	0	0	0.00055	0.00071	0.00238	0.00055	0.00067	0.00069	0.00636	0.00259
1.93	0	0	0.00105	0.00074	0.00059	0.00068	0.00049	0.00057	0.00936	0.00110
1.94	0	0	0.00099	0.00047	0.00123	0.00052	0.00062	0.00081	0.02365	0.00640
1.95	0	0	0.00052	0.00209	0.00078	0.00044	0.00095	0.00081	0.01060	0.00222
1.96	0	0	0.00120	0.00082	0.00078	0.00049	0.00114	0.00089	0.00126	0.00598
1.97	0	0	0.00077	0.00080	0.00059	0.00053	0.00065	0.00080	0.00144	0.00049
1.98	0	0	0.00097	0.00105	0.00072	0.00059	0.00066	0.00084	0.00098	0.00076
1.99	1	0	0.00089	0.00147	0.00211	0.00109	0.00083	0.00125	0.00121	0.00111
2.00	0	0	0.00202	0.00110	0.00208	0.00148	0.00070	0.00072	0.00120	0.00094
2.01	0	0	0.00101	0.00105	0.00106	0.00065	0.00125	0.00094	0.00131	0.00071
2.02	0	0	0.00145	0.00096	0.00094	0.00072	0.00077	0.00078	0.00151	0.00050
2.03	0	0	0.00317	0.00130	0.00074	0.00329	0.00047	0.00056	0.00086	0.00069
2.04	0	0	0.00075	0.00142	0.00058	0.00118	0.00083	0.00066	0.00258	0.00045
2.05	0	0	0.00352	0.00077	0.00066	0.00107	0.00061	0.00059	0.00056	0.00059
2.06	0	0	0.00591	0.00198	0.00080	0.00386	0.00045	0.00094	0.00070	0.00063
2.07	0	0	0.00156	0.00173	0.00076	0.00176	0.00066	0.00074	0.00067	0.00046
2.08	0	0	0.00574	0.00146	0.00087	0.00354	0.00061	0.00070	0.00078	0.00048
2.09	0	0	0.00511	0.00146	0.00071	0.00093	0.00063	0.00056	0.00056	0.00046
2.10	0	0	0.00199	0.00137	0.00070	0.00254	0.00062	0.00085	0.00077	0.00052
2.11	0	0	0.00198	0.00182	0.00084	0.00207	0.00049	0.00102	0.00070	0.00059
2.12	0	0	0.00090	0.00101	0.00070	0.00126	0.00053	0.00080	0.00113	0.00078
2.13	0	0	0.00477	0.00255	0.00094	0.01278	0.00343	0.01330	0.00111	0.00111
2.14	0	0	0.00206	0.00287	0.00128	0.00434	0.00060	0.01382	0.00084	0.00067
2.15	0	0	0.00096	0.00176	0.00236	0.00293	0.00119	0.00111	0.00069	0.00057
2.16	0	0	0.00070	0.00096	0.00138	0.00153	0.00074	0.00085	0.00154	0.00603
2.17	0	0	0.00101	0.00187	0.00102	0.00047	0.00055	0.00145	0.00145	0.00083
2.18	0	1	0.00128	0.00293	0.00105	0.00144	0.00069	0.00057	0.03776	0.00665
2.19	0	0	0.00363	0.00109	0.00114	0.00074	0.00087	0.00069	0.01073	0.00068
2.20	0	0	0.00179	0.00072	0.00433	0.00122	0.00085	0.00055	0.02689	0.00548
2.21	0	0	0.00215	0.00055	0.00159	0.00163	0.00055	0.00079	0.00348	0.00046
2.22	0	0	0.00132	0.00077	0.00079	0.00046	0.00059	0.00068	0.01448	0.00159
2.23	0	0	0.00088	0.00044	0.00110	0.00048	0.00063	0.00064	0.01184	0.00274
2.24	0	0	0.00106	0.00050	0.00087	0.00064	0.00064	0.00062	0.00262	0.00527
2.25	0	0	0.00101	0.00058	0.00154	0.00045	0.00079	0.00099	0.01138	0.00314
2.26	0	0	0.00076	0.00067	0.00062	0.00046	0.00092	0.00072	0.00115	0.00628
2.27	0	0	0.00161	0.00132	0.00093	0.00080	0.00108	0.00159	0.00105	0.00057
2.28	1	0	0.00160	0.00627	0.00217	0.00100	0.00089	0.00169	0.00155	0.00074
2.29	0	0	0.00221	0.00093	0.00189	0.00049	0.00086	0.00068	0.00128	0.00099
2.30	0	0	0.00169	0.00059	0.00189	0.00065	0.00156	0.00072	0.00318	0.00062
2.31	0	0	0.00113	0.00077	0.00374	0.00113	0.00115	0.00102	0.00077	0.00052
2.32	0	0	0.00218	0.00168	0.00084	0.00218	0.00059	0.00069	0.00124	0.00059
2.33	0	0	0.00097	0.00128	0.00078	0.00073	0.00098	0.00106	0.00156	0.00078
2.34	0	0	0.00142	0.00118	0.00098	0.00216	0.00046	0.00087	0.00214	0.00078
2.35	0	0	0.00307	0.00075	0.00075	0.00113	0.00065	0.00144	0.00065	0.00061
2.36	0	0	0.00058	0.00094	0.00053	0.00152	0.00063	0.00082	0.00066	0.00059
2.37	0	0	0.00050	0.00082	0.00078	0.00160	0.00064	0.00138	0.00061	0.00033
2.38	0	0	0.00502	0.00138	0.00059	0.00085	0.00068	0.00057	0.00058	0.00060
2.39	0	0	0.00074	0.00106	0.00068	0.00133	0.00049	0.00075	0.00058	0.00051
2.40	0	0	0.00077	0.00140	0.00051	0.00101	0.00074	0.00066	0.00049	0.00058
2.41	0	0	0.00490	0.00222	0.00084	0.00244	0.00052	0.00073	0.00072	0.00052
2.42	0	0	0.00107	0.00090	0.00074	0.00177	0.00037	0.00078	0.00055	0.00030
2.43	0	0	0.00078	0.00149	0.00080	0.00112	0.00058	0.00066	0.00070	0.00047
2.44	0	0	0.00166	0.00087	0.00084	0.00064	0.00057	0.00070	0.00081	0.00044
2.45	0	0	0.00333	0.00161	0.00058	0.00066	0.00069	0.00066	0.02277	0.00337
2.46	0	1	0.00245	0.00668	0.00205	0.00281	0.00045	0.00075	0.03802	0.00750
2.47	0	0	0.00792	0.00151	0.00876	0.00070	0.00062	0.00082	0.01379	0.01107
2.48	0	0	0.00151	0.00125	0.00537	0.00072	0.00056	0.00076	0.00933	0.00198
2.49	0	0	0.00103	0.00054	0.00268	0.00057	0.00087	0.00055	0.03036	0.00580
2.50	0	0	0.00044	0.00062	0.00082	0.00032	0.00087	0.00163	0.00362	0.01328
2.51	0	0	0.00170	0.00053	0.00072	0.00053	0.00074	0.00096	0.00093	0.00050
2.52	1	0	0.00082	0.00070	0.00117	0.00066	0.00067	0.00063	0.00311	0.00044
2.53	0	0	0.00153	0.00615	0.00083	0.00113	0.00078	0.00093	0.00084	0.00062
2.54	0	0	0.00153	0.00161	0.00073	0.00160	0.00069	0.00074	0.00080	0.00064
2.55	0	0	0.00106	0.00134	0.00127	0.00108	0.00137	0.00124	0.00138	0.00126
2.56	0	0	0.00183	0.00066	0.00072	0.00204	0.00255	0.00177	0.00147	0.00055
2.57	0	0	0.00121	0.00191	0.00082	0.00498	0.00266	0.00158	0.00207	0.00046
2.58	0	0	0.00129	0.00307	0.00141	0.00161	0.00196	0.00190	0.00168	0.00120
2.59	0	0	0.00118	0.00182	0.00080	0.00114	0.00079	0.00157	0.00195	0.00059
2.60	0	0	0.00070	0.00090	0.00120	0.00055	0.00104	0.00271	0.00198	0.00084
2.61	0	0	0.00198	0.00079	0.00071	0.00054	0.00065	0.00093	0.00065	0.00068
2.62	0	0	0.00052	0.00046	0.00064	0.00065	0.00060	0.00112	0.00241	0.00045
2.63	0	1	0.00321	0.00366	0.00379	0.00377	0.00055	0.00054	0.01128	0.00628
2.64	0	0	0.00417	0.00185	0.00225	0.00181	0.00061	0.00058	0.00293	0.00381
2.65	0	0	0.00096	0.00166	0.00250	0.00144	0.00081	0.00072	0.02059	0.00205
2.66	0	0	0.00295	0.00051	0.00254	0.00066	0.00064	0.00051	0.02196	0.00058
2.67	0	0	0.00515	0.00145	0.00389	0.00059	0.00055	0.00063	0.01279	0.00046
2.68	0	0	0.00477	0.00071	0.00369	0.00061	0.00058	0.00059	0.01909	0.00213
2.69	0	0	0.00204	0.00102	0.00290	0.00145	0.00046	0.00071	0.01858	0.00792
2.70	0	0	0.00068	0.00196	0.00155	0.00081	0.00131	0.00083	0.01168	0.00724
2.71	0	0	0.00128	0.00053	0.00123	0.00086	0.00067	0.00068	0.02534	0.00076
2.72	0	0	0.00137	0.00048	0.00069	0.00058	0.00062	0.00079	0.02135	0.00129
2.73	0	0	0.00140	0.00053	0.00092	0.00046	0.00060	0.00063	0.03064	0.00523
2.74	0	0	0.00238	0.00095	0.00059	0.00060	0.00121	0.00063	0.00439	0.00149
2.75	0	0	0.00195	0.00240	0.00070	0.00064	0.00115	0.00100	0.00194	0.00052
2.76	1	0	0.00095	0.00079	0.00156	0.00093	0.00053	0.00099	0.00350	0.00059
2.77	0	0	0.00118	0.00083	0.00065	0.00128	0.00135	0.00103	0.00079	0.00055
2.78	0	0	0.00076	0.00078	0.00196	0.00171	0.00087	0.00080	0.00121	0.00053
2.79	0	0	0.00101	0.00068	0.00098	0.00108	0.00143	0.00158	0.00064	0.00074
2.80	0	0	0.00106	0.00109	0.00070	0.00268	0.00175	0.00189	0.00099	0.00049
2.81	0	0	0.00098	0.00118	0.00067	0.00266	0.00051	0.00047	0.00162	0.00049
2.82	0	0	0.00078	0.00090	0.00054	0.00090	0.00047	0.00071	0.00109	0.00053
2.83	0	0	0.00112	0.00210	0.00091	0.00307	0.00104	0.01516	0.00253	0.00086
2.84	0	0	0.00112	0.00056	0.00066	0.00080	0.00108	0.00212	0.00157	0.00097
2.85	0	0	0.00075	0.00085	0.00052	0.00098	0.00141	0.00131	0.00267	0.00044
2.86	0	0	0.00109	0.00068	0.00053	0.00056	0.00080	0.00228	0.00244	0.00047
2.87	0	0	0.00051	0.00045	0.00069	0.00052	0.00113	0.00084	0.00127	0.00480
2.88	0	1	0.00160	0.00402	0.00308	0.00315	0.00046	0.00065	0.00308	0.00105
2.89	0	0	0.01001	0.00170	0.00347	0.00106	0.00066	0.00067	0.00701	0.00052
2.90	0	0	0.00212	0.00574	0.00168	0.00283	0.00053	0.00067	0.01154	0.00182
2.91	0	0	0.00194	0.00052	0.00187	0.00050	0.00033	0.00076	0.00834	0.00036
2.92	0	0	0.00074	0.00150	0.00198	0.00072	0.00072	0.00039	0.01170	0.00077
2.93	0	0	0.00133	0.00070	0.00072	0.00056	0.00045	0.00058	0.00384	0.00406
2.94	0	0	0.00092	0.00057	0.00105	0.00040	0.00068	0.00070	0.03271	0.00744
2.95	0	0	0.00241	0.00138	0.00120	0.00063	0.00062	0.00133	0.01751	0.00625
2.96	0	0	0.00104	0.00054	0.00095	0.00077	0.00078	0.00091	0.00428	0.00052
2.97	1	0	0.00070	0.00061	0.00072	0.00093	0.00066	0.00063	0.00112	0.00066
2.98	0	0	0.00129	0.00046	0.00147	0.00051	0.00073	0.00076	0.00079	0.00060
2.99	0	0	0.00389	0.00159	0.00126	0.00073	0.00064	0.00064	0.00086	0.00049
3.00	0	0	0.00088	0.00085	0.00107	0.00051	0.00073	0.00069	0.00166	0.00058
3.01	0	0	0.00133	0.00088	0.00109	0.00299	0.00060	0.00064	0.00076	0.00050
3.02	0	0	0.00109	0.00168	0.00064	0.00205	0.00050	0.00063	0.00053	0.00054
3.03	0	0	0.00081	0.00528	0.00061	0.00578	0.00066	0.00063	0.00112	0.00047
3.04	0	0	0.00109	0.00106	0.00066	0.00089	0.00269	0.00105	0.00136	0.00048
3.05	0	0	0.00238	0.00091	0.00049	0.00152	0.00050	0.00095	0.00091	0.00044
3.06	0	0	0.00157	0.00112	0.00096	0.00151	0.00060	0.00081	0.00075	0.00079
3.07	0	0	0.00090	0.00104	0.00092	0.00063	0.00065	0.00079	0.00084	0.00050
3.08	0	0	0.00151	0.00479	0.00096	0.00215	0.00178	0.00133	0.00202	0.00064
3.09	0	0	0.00067	0.00070	0.00096	0.00112	0.00070	0.00091	0.00195	0.00055
3.10	0	0	0.00190	0.00065	0.00068	0.00051	0.00125	0.00162	0.00450	0.00053
3.11	0	0	0.00065	0.00066	0.00055	0.00049	0.00049	0.00075	0.00070	0.00066
3.12	0	0	0.00133	0.00067	0.00074	0.00075	0.00070	0.00093	0.02983	0.00270
3.13	0	1	0.00136	0.00293	0.00067	0.00113	0.00057	0.00059	0.00132	0.00054
3.14	0	0	0.00512	0.00478	0.00098	0.00269	0.00067	0.00070	0.00159	0.00455
3.15	0	0	0.00126	0.00155	0.00524	0.00075	0.00050	0.00088	0.02793	0.01002
3.16	0	0	0.00161	0.00128	0.00384	0.00220	0.00046	0.00061	0.00230	0.00065
3.17	0	0	0.00101	0.00053	0.00229	0.00069	0.00053	0.00071	0.01430	0.00476
3.18	0	0	0.00084	0.00055	0.00100	0.00053	0.00053	0.00072	0.01352	0.01525
3.19	0	0	0.00176	0.00067	0.00082	0.00040	0.00066	0.00098	0.00926	0.01590
3.20	0	0	0.00163	0.00096	0.00113	0.00064	0.00091	0.00079	0.00430	0.00062
3.21	0	0	0.00081	0.00104	0.00059	0.00060	0.00049	0.00072	0.00070	0.00072
3.22	1	0	0.00158	0.00053	0.00143	0.00086	0.00076	0.00075	0.00480	0.00046
3.23	0	0	0.00366	0.00071	0.00082	0.00101	0.00102	0.00074	0.00143	0.00063
3.24	0	0	0.00102	0.00046	0.00066	0.00100	0.00089	0.00063	0.00068	0.00059
3.25	0	0	0.00113	0.00054	0.00057	0.00097	0.00097	0.00138	0.00112	0.00049
3.26	0	0	0.00172	0.00094	0.00067	0.00075	0.00065	0.00075	0.00067	0.00052
3.27	0	0	0.00065	0.00084	0.00072	0.00113	0.00082	0.00075	0.00187	0.00070
3.28	0	0	0.00174	0.00058	0.00154	0.00048	0.00056	0.00068	0.00085	0.00048
3.29	0	0	0.00211	0.00120	0.00056	0.00082	0.00072	0.00071	0.00131	0.00048
3.30	0	0	0.00076	0.00050	0.00050	0.00042	0.00045	0.00077	0.00044	0.00064
3.31	0	0	0.00460	0.00059	0.00073	0.00069	0.00062	0.00068	0.00063	0.00045
3.32	0	0	0.00100	0.00084	0.00075	0.00097	0.00061	0.00091	0.00103	0.00054
3.33	0	0	0.00078	0.00092	0.00071	0.00104	0.00058	0.00061	0.00064	0.00054
3.34	0	0	0.00094	0.00061	0.00081	0.00076	0.00054	0.00086	0.00073	0.00057
3.35	0	0	0.00085	0.00082	0.00077	0.00056	0.00057	0.00085	0.00076	0.00216
3.36	0	0	0.00068	0.00054	0.00058	0.00080	0.00058	0.00070	0.00103	0.00061
3.37	0	0	0.00065	0.00095	0.00072	0.00087	0.00093	0.00075	0.00062	0.00075
3.38	0	0	0.00072	0.01171	0.00050	0.00070	0.00053	0.00081	0.00134	0.00071
3.39	0	0	0.00064	0.00179	0.00130	0.00057	0.00054	0.00092	0.02361	0.00566
3.40	0	1	0.00594	0.00481	0.00132	0.00141	0.00044	0.00076	0.00274	0.00553
3.41	0	0	0.00575	0.00543	0.00153	0.00064	0.00063	0.00063	0.01111	0.00084
3.42	0	0	0.00542	0.00511	0.00692	0.00110	0.00062	0.00076	0.01998	0.00746
3.43	0	0	0.00077	0.00120	0.00156	0.00051	0.00057	0.00063	0.01991	0.00874
3.44	0	0	0.00088	0.00361	0.00128	0.00048	0.00053	0.00105	0.01516	0.00103
3.45	0	0	0.00223	0.00132	0.00116	0.00075	0.00098	0.00079	0.02203	0.01366
3.46	0	0	0.00085	0.00213	0.00129	0.00054	0.00080	0.00082	0.01041	0.00068
3.47	0	0	0.00097	0.00080	0.00122	0.00079	0.00068	0.00071	0.00091	0.00058
3.48	1	0	0.00063	0.00045	0.00064	0.00057	0.00059	0.00056	0.00178	0.00048
3.49	0	0	0.00274	0.00273	0.00116	0.00121	0.00200	0.00106	0.00177	0.00055
3.50	0	0	0.00113	0.00058	0.00077	0.00153	0.00087	0.00119	0.00097	0.00065
3.51	0	0	0.00162	0.00062	0.00056	0.00093	0.00074	0.00096	0.00079	0.00052
3.52	0	0	0.00148	0.00094	0.00057	0.00117	0.00060	0.00067	0.00062	0.00042
3.53	0	0	0.00247	0.00129	0.00065	0.00205	0.00207	0.00197	0.00198	0.00055
3.54	0	0	0.00080	0.00079	0.00061	0.00065	0.00070	0.00097	0.00100	0.00062
3.55	0	0	0.00206	0.00204	0.00162	0.00077	0.00143	0.00219	0.00251	0.00119
3.56	0	0	0.00108	0.00082	0.00045	0.00085	0.00397	0.00354	0.00175	0.00046
3.57	0	0	0.00169	0.00049	0.00053	0.00060	0.00071	0.00059	0.00095	0.00087
3.58	0	1	0.00091	0.00256	0.00058	0.00258	0.00062	0.00063	0.01105	0.00282
