0.00559772	0.0176441	0.000688342	0.00123362	0.000698904	0.00283291	0.00377298	0.00331496
0.0056007	0.017587	0.000684344	0.00122972	0.00069339	0.00285406	0.00378255	0.00334059
0.00563438	0.0172772	0.000690665	0.00121492	0.000690166	0.00284505	0.00378714	0.00348832
0.00568066	0.01719	0.000693173	0.00121365	0.000684038	0.00283891	0.00378224	0.00365
0.00574929	0.0171959	0.000694891	0.00121566	0.00068081	0.00283487	0.00377973	0.00367257
0.00575694	0.0171822	0.000686973	0.00121201	0.000661035	0.00282989	0.0037871	0.00367288
0.0056589	0.0167294	0.000673039	0.00120724	0.000641826	0.00282533	0.00377585	0.00367936
0.00559862	0.0161998	0.000675524	0.00120798	0.000630864	0.00281954	0.00378068	0.00371022
0.00576516	0.015802	0.000686203	0.00121286	0.000624625	0.00286208	0.00378266	0.00372115
0.00547095	0.0154815	0.000687408	0.00121313	0.000617555	0.00298549	0.00379746	0.00371621
0.00500067	0.0152816	0.000679069	0.00120515	0.000611816	0.00303362	0.00379902	0.00371325
0.00489881	0.0146567	0.000687642	0.00120746	0.000608352	0.0031053	0.00379436	0.00370837
0.00490912	0.0128266	0.00069012	0.0012099	0.000602619	0.00312709	0.0037807	0.00378851
0.00503757	0.0121709	0.000688257	0.00120493	0.000600634	0.00310609	0.00370212	0.00383921
0.00467679	0.0111002	0.000692089	0.00118832	0.000582034	0.00304646	0.00341995	0.0038366
0.00402136	0.0110188	0.000694463	0.00106067	0.000577936	0.00288296	0.00315791	0.00369059
0.00391158	0.0110176	0.00069706	0.00104444	0.000572987	0.00270371	0.00305487	0.00360583
0.00387728	0.010434	0.00070687	0.00102384	0.000571337	0.00253346	0.00301232	0.00348845
0.0038318	0.0101733	0.00070002	0.000943782	0.000571845	0.00240771	0.0026878	0.0034139
0.00371381	0.0101402	0.000696576	0.000879767	0.000570775	0.00231439	0.00249798	0.00340677
0.00372423	0.0103465	0.000694479	0.00087116	0.000573864	0.00215011	0.00240357	0.00335443
0.00370666	0.0104739	0.000695651	0.000868141	0.000576011	0.00205056	0.00240438	0.00326655
0.00369222	0.010101	0.000701201	0.000835559	0.000573014	0.00194076	0.00225583	0.00316443
0.0037291	0.0103558	0.000699678	0.000760068	0.000560085	0.00191167	0.00203573	0.00290517
0.00373204	0.0103953	0.00069392	0.000761478	0.000561826	0.00189803	0.00188948	0.00274499
0.00373171	0.0105661	0.000694717	0.000756088	0.000555686	0.00180476	0.00162652	0.00258488
0.00398413	0.0111888	0.000694813	0.000755483	0.000557521	0.00167772	0.0015321	0.00250098
0.00408166	0.0115566	0.000709498	0.000747109	0.000558246	0.00165571	0.00143455	0.00238949
0.00414744	0.0116691	0.000707795	0.000723213	0.000557993	0.00164948	0.00131708	0.00241134
0.00332404	0.0116759	0.000706016	0.000686929	0.000553155	0.00148624	0.00110614	0.00221125
0.00308742	0.0116647	0.000705775	0.00067543	0.000547704	0.00134764	0.00103787	0.00209578
0.00305213	0.0118944	0.000707488	0.000667536	0.000546933	0.0013318	0.00102662	0.00199744
0.00311665	0.0118512	0.000717621	0.000652402	0.000535377	0.00132565	0.00101261	0.00194976
0.00336871	0.0111139	0.000705811	0.000642734	0.000524211	0.00135815	0.000990325	0.0019727
0.00356175	0.0115696	0.000704527	0.000632995	0.000519072	0.00134966	0.00098971	0.00187017
0.00357155	0.0122256	0.000711794	0.000614165	0.000520558	0.00133885	0.000937998	0.00181015
0.00352144	0.0121607	0.000713349	0.000604626	0.000519265	0.00132074	0.000873705	0.00179545
0.00343381	0.0114419	0.000713319	0.000585721	0.000519998	0.00131687	0.000826619	0.00172923
0.00367056	0.0107244	0.000705543	0.000575537	0.000526714	0.00130917	0.000782897	0.00172388
0.00419239	0.011021	0.000702498	0.000573165	0.000532127	0.00126492	0.000771046	0.00173418
0.00433423	0.0112464	0.000698523	0.000565182	0.000544493	0.00126118	0.000750011	0.00160268
0.00436145	0.0118377	0.000696339	0.000566592	0.000559991	0.00126565	0.000747436	0.00143439
0.00446702	0.0125188	0.000691936	0.000563458	0.000568209	0.00126572	0.000753299	0.00137145
0.00445545	0.0126208	0.000693566	0.000560127	0.000571896	0.00127405	0.000741666	0.00138006
0.00449645	0.0125371	0.000698232	0.000553551	0.000578847	0.00127168	0.000742771	0.00138009
0.00452044	0.0121441	0.000690251	0.000546105	0.000579375	0.00127603	0.000729475	0.00134129
0.0045415	0.0116095	0.000694053	0.00053907	0.000599219	0.0012728	0.000723741	0.00130596
0.00485157	0.0111314	0.000686239	0.000547798	0.000617945	0.00111581	0.000714394	0.00132245
0.00495275	0.0111165	0.000716786	0.000546056	0.000637747	0.00104783	0.000703188	0.00138767
0.00496795	0.0116195	0.000716347	0.000542153	0.000640103	0.000995889	0.000699071	0.00141332
0.00520909	0.0119711	0.000717382	0.000537017	0.000655723	0.000939638	0.000686591	0.00134072
0.00529078	0.0123227	0.000727423	0.000543309	0.000690767	0.000944965	0.000684836	0.00130983
0.00530322	0.0122316	0.000735736	0.000517185	0.000701665	0.000945613	0.000674301	0.00125957
0.00529869	0.0117039	0.000741422	0.000519475	0.000708519	0.000898208	0.000669314	0.001344
0.00530202	0.0116059	0.000742693	0.000518707	0.000720513	0.000913921	0.000670644	0.00135182
0.00529531	0.0116953	0.000729932	0.00052881	0.000716147	0.000921697	0.000663812	0.00136438
0.00530093	0.0115457	0.000734897	0.000530917	0.000749845	0.000916897	0.000664656	0.00135796
0.00521335	0.0114432	0.000749706	0.0005259	0.000764538	0.000910927	0.000666264	0.00133152
0.0050805	0.0110319	0.000763277	0.000528559	0.000770993	0.000891886	0.000668787	0.00131304
0.00500438	0.0106466	0.00076202	0.000527214	0.000776653	0.000893396	0.000677647	0.00126035
0.00500246	0.0106645	0.000765328	0.000528133	0.00079871	0.000896369	0.000680211	0.00122175
0.00496156	0.0102951	0.000760574	0.000519981	0.00080307	0.000898554	0.00068268	0.00121487
0.00494686	0.0101147	0.000773476	0.000517468	0.000809008	0.000901305	0.000682532	0.00121207
0.00494385	0.00995464	0.000777026	0.000513241	0.000816909	0.000896787	0.000692247	0.00122343
0.00473912	0.00920332	0.00078586	0.000516716	0.000851506	0.000876926	0.000689026	0.00122537
0.0045924	0.00851422	0.000784621	0.000517404	0.00087506	0.000862244	0.000697258	0.00122264
0.00456282	0.00796502	0.000785404	0.000515847	0.000883291	0.000850097	0.000693023	0.00120765
0.00433645	0.00791782	0.000791569	0.000524402	0.000895218	0.000852706	0.000682326	0.00113814
0.00416216	0.00793535	0.00080268	0.000533599	0.000892153	0.000852827	0.000688938	0.00113489
0.0041444	0.00774449	0.000804933	0.000539285	0.00089953	0.000854646	0.000690951	0.00113712
0.00410647	0.0072874	0.000794393	0.000550854	0.000928195	0.000841711	0.000693454	0.00110892
0.00395598	0.00707699	0.000803049	0.000562898	0.000932823	0.000794972	0.000689289	0.00107468
0.00360873	0.00678258	0.000809453	0.000577642	0.000927286	0.000792427	0.000699855	0.00106847
0.00351964	0.00630947	0.000797983	0.000587954	0.000928636	0.000792921	0.000716037	0.00107653
0.0034368	0.006298	0.000802986	0.000586578	0.000928722	0.000787235	0.000719203	0.0010629
0.003398	0.00624031	0.00080356	0.00059891	0.000942522	0.000790032	0.000723757	0.00103773
0.0033049	0.00616066	0.00080296	0.000624283	0.000968571	0.000793595	0.000717924	0.00104361
0.00271796	0.00582565	0.000808488	0.000629448	0.000972041	0.000785685	0.000719209	0.0010405
0.00248376	0.00561998	0.000816997	0.000637745	0.000974958	0.00079099	0.000728275	0.00102879
0.00239544	0.00523352	0.000813948	0.000637544	0.000975536	0.000812312	0.000728509	0.00102542
0.00223294	0.00444411	0.000812681	0.00063853	0.000989103	0.000839857	0.000728782	0.00106095
0.00218575	0.00436092	0.000817218	0.000637206	0.000990266	0.000841927	0.000725154	0.00109539
0.00214292	0.00432821	0.000814458	0.000652068	0.000989366	0.000863765	0.000719587	0.00109418
0.0021207	0.00432162	0.000815046	0.000653201	0.000991565	0.000864009	0.000716893	0.00110768
0.00206646	0.00429822	0.000813416	0.000657053	0.000981924	0.00086892	0.000728118	0.00110746
0.00131456	0.00427281	0.000819373	0.000665944	0.000952589	0.000911892	0.00072805	0.00109098
0.00110329	0.00423631	0.000802294	0.000672196	0.000934972	0.000943644	0.000728576	0.00112754
0.00107518	0.00379526	0.000772601	0.000682924	0.000920651	0.000955379	0.000739723	0.00118478
0.000916409	0.00339773	0.000772728	0.000691321	0.000919349	0.000951199	0.0007484	0.00122151
0.000647265	0.00275264	0.000770598	0.000693228	0.000893967	0.000945035	0.00075211	0.0013217
0.000546366	0.00260588	0.000764135	0.000716657	0.00089341	0.00094177	0.000753724	0.00140572
0.00053895	0.00242345	0.000756405	0.000783844	0.000889166	0.00095238	0.000751897	0.00135741
0.00053811	0.00227774	0.000764858	0.000801658	0.000902857	0.000933813	0.000754205	0.00132948
0.000539337	0.00211584	0.000769064	0.000796029	0.000899988	0.000918687	0.000748747	0.00129389
0.000542254	0.00206939	0.000769295	0.000791868	0.000885538	0.000916137	0.000743032	0.00129665
0.000538555	0.00205699	0.000758286	0.000801657	0.000871457	0.000905864	0.000745839	0.00129635
0.000547361	0.00207246	0.000753486	0.000844338	0.000866215	0.000911482	0.000756615	0.00130826
0.000549071	0.00209403	0.000773647	0.000891509	0.000928758	0.000925291	0.000760973	0.00136909
0.000544726	0.00208794	0.00078431	0.000894265	0.000970891	0.000963041	0.000753626	0.00139436
0.000542664	0.00206607	0.000787368	0.00090383	0.000968102	0.000980172	0.000750536	0.00139701
0.00104058	0.00272371	0.000495676	0.000599241	0.000286514	0.000330357	0.00393627	0.00382812
0.00106635	0.00281249	0.000503449	0.000621269	0.000300399	0.000349355	0.00391073	0.00394446
0.00111742	0.00286752	0.000515898	0.00063712	0.000311432	0.000365893	0.00389861	0.00411198
0.00112029	0.00286208	0.000524565	0.000654786	0.000326073	0.000377966	0.00388478	0.00418536
0.00124252	0.00284959	0.000533162	0.000676515	0.000335216	0.000392654	0.00386167	0.00426511
0.00127725	0.00282901	0.000537458	0.000694005	0.000342827	0.000407098	0.00380028	0.00429472
0.00130816	0.0028943	0.000547027	0.000723739	0.000355573	0.000419728	0.00376999	0.00452052
0.00135176	0.00300257	0.000553268	0.00074829	0.000366348	0.00043617	0.00377459	0.00471241
0.00135399	0.00301092	0.000557349	0.000764818	0.000380167	0.000448752	0.00375377	0.0048541
0.0013571	0.00304653	0.000561293	0.000784271	0.000417539	0.000467327	0.00370929	0.00499876
0.00140457	0.0030347	0.000564666	0.000821756	0.000426439	0.000484618	0.00366433	0.00515903
0.00141367	0.0030065	0.000570083	0.000859827	0.000436765	0.000507154	0.0036029	0.0051928
0.00141188	0.00298751	0.000582235	0.000892318	0.000447313	0.000522925	0.00353076	0.00537803
0.00141447	0.00297077	0.000586435	0.000923477	0.000461436	0.000539718	0.00349236	0.00544886
0.00141838	0.0029535	0.000598213	0.000939076	0.000473409	0.000553327	0.0034408	0.00547938
0.00142521	0.00292361	0.00060442	0.000984635	0.000486688	0.000572088	0.00355459	0.00549246
0.00143102	0.00289495	0.000614817	0.00101449	0.000507961	0.000589716	0.00355611	0.00554552
0.00143385	0.00292613	0.000626465	0.00103615	0.000516396	0.000614568	0.00359303	0.00608751
0.00144192	0.00292691	0.000635268	0.00105594	0.00053134	0.00062912	0.00361455	0.00628808
0.00154581	0.00332962	0.000642793	0.00108777	0.000545783	0.000640348	0.00358198	0.00637211
0.00159099	0.00353168	0.000649284	0.00109112	0.000552397	0.000645632	0.00365965	0.0064849
0.00160232	0.00350891	0.000646433	0.00108514	0.000555462	0.000653656	0.00371901	0.00653037
0.00160046	0.0034963	0.000640574	0.00107867	0.000554957	0.000648772	0.00372941	0.0064691
0.00159173	0.00348641	0.000638779	0.00109873	0.000558676	0.000644813	0.00378981	0.0063081
0.00155963	0.00349173	0.000639585	0.00106797	0.000561534	0.000644874	0.00365852	0.00644927
0.00150817	0.00362666	0.000645449	0.00105806	0.000567512	0.000650451	0.00361899	0.0062753
0.00152521	0.00373267	0.000652098	0.00106598	0.000569888	0.000644018	0.00355941	0.00633651
0.00154549	0.00372452	0.000652755	0.00109667	0.000573394	0.000637916	0.00362519	0.00658788
0.00157753	0.00377068	0.000651545	0.00108951	0.000578787	0.000640211	0.00357634	0.0066162
0.0015946	0.00379008	0.000652593	0.00109598	0.0005816	0.000633092	0.00359394	0.00646297
0.00161287	0.00379754	0.000661853	0.00107854	0.000576143	0.000640007	0.00355283	0.00646689
0.00154817	0.003577	0.000660873	0.00108626	0.000565527	0.000639277	0.00352251	0.00622645
0.00149989	0.00328211	0.00066912	0.00107821	0.000562103	0.00063551	0.00355409	0.00617841
0.00148286	0.00315501	0.000671022	0.00106727	0.000566212	0.000641825	0.00348156	0.00607775
0.00148178	0.00308226	0.000677844	0.00107023	0.000570254	0.000649164	0.00342717	0.00597761
0.00144751	0.00306682	0.000674552	0.0010913	0.000571232	0.000643022	0.0034332	0.00606198
0.00140628	0.00295904	0.000668292	0.00110095	0.000576731	0.000641022	0.00347593	0.00599124
0.00140157	0.0031034	0.000668292	0.00109549	0.000570787	0.000630199	0.00335052	0.00606048
0.00141071	0.0029023	0.000673736	0.00110182	0.000562966	0.000622236	0.00332805	0.00618431
0.00138906	0.00284521	0.000666014	0.00110946	0.00057925	0.000612763	0.00333525	0.00611444
0.00139475	0.00282419	0.000664335	0.00112979	0.000578366	0.00062914	0.00343155	0.0063579
0.00135542	0.00280899	0.000667963	0.00112881	0.000577627	0.000632377	0.00348274	0.0065201
0.00137304	0.00280202	0.000667772	0.00116478	0.000578335	0.000636415	0.00347593	0.00649608
0.00137042	0.00279733	0.000665649	0.00118911	0.000578588	0.000632542	0.00351543	0.00642854
0.00133414	0.00262183	0.000672244	0.00117442	0.000578957	0.000635746	0.00345699	0.00635785
0.00131465	0.00255855	0.00067435	0.00117529	0.000580387	0.000631478	0.00342749	0.00649975
0.00131387	0.00250303	0.000690133	0.0011871	0.000564689	0.000625086	0.00358571	0.00657032
0.00128993	0.00246715	0.000697608	0.00120803	0.000556317	0.000632005	0.00364075	0.00656861
0.00129986	0.00246724	0.000697525	0.00118843	0.000560985	0.000627924	0.00368844	0.00661101
0.00130133	0.00247302	0.000696603	0.00120695	0.000565058	0.000626735	0.00376233	0.00670941
0.00130447	0.00245824	0.000697249	0.00122073	0.000563433	0.000617852	0.0039167	0.00693426
0.0013034	0.00245082	0.000696677	0.0012568	0.000564825	0.000625312	0.00403586	0.00703687
0.00129736	0.00244705	0.000698345	0.00125464	0.000567476	0.000626525	0.00398226	0.00706783
0.00131842	0.0024503	0.000692061	0.00123394	0.000554033	0.000625115	0.00394984	0.00706957
0.00135926	0.00243413	0.000689011	0.00123074	0.00055084	0.000608086	0.00392223	0.00694323
0.00136364	0.00238612	0.000686238	0.00123394	0.00055204	0.000610384	0.00378582	0.0067051
0.00132227	0.00226894	0.000680482	0.00123613	0.000536724	0.000618942	0.00381613	0.00669877
0.00121088	0.00182864	0.000684114	0.00122855	0.000537445	0.000612984	0.00379203	0.00656685
0.00133608	0.00174395	0.00067607	0.00121938	0.000535598	0.000608024	0.00366924	0.00658222
0.00140295	0.00173051	0.000679467	0.00124106	0.000542426	0.00060504	0.00383868	0.00661476
0.00141976	0.00173509	0.00068236	0.00125911	0.000543936	0.00061951	0.00393606	0.00667261
0.00144876	0.00173033	0.00068712	0.0012586	0.000541179	0.000621643	0.00386304	0.00666883
0.00145747	0.00169891	0.000685368	0.00126386	0.000542428	0.00061696	0.00389586	0.00661625
0.00145948	0.00152715	0.000681408	0.00131318	0.000540085	0.000617174	0.00402857	0.00658003
0.00141204	0.00147602	0.000675618	0.00133068	0.000541892	0.000615793	0.00400494	0.00655636
0.00140644	0.00145275	0.000674925	0.00129476	0.000539915	0.000622685	0.00389424	0.00612483
0.00136438	0.0014219	0.000673844	0.00130488	0.000541187	0.000615439	0.00391997	0.00595829
0.00133466	0.00140636	0.000664441	0.00130009	0.000546319	0.000616603	0.00395763	0.00599425
0.00127068	0.00139928	0.000656635	0.00131094	0.000555158	0.000622498	0.00394095	0.00603902
0.00126664	0.00141123	0.000655375	0.00134712	0.000561996	0.000620999	0.00396484	0.00620467
0.00129801	0.00156586	0.000661046	0.0013817	0.000564902	0.000615311	0.00401972	0.00627403
0.00130469	0.00163935	0.000659221	0.0014009	0.000564616	0.000608722	0.00413718	0.0061208
0.00139948	0.00163988	0.00066411	0.00137174	0.00057115	0.000604804	0.00408159	0.00624785
0.00147589	0.00164491	0.000665343	0.00135381	0.000569789	0.000606585	0.00412633	0.00625784
0.00153426	0.00148311	0.000664425	0.00137395	0.000569118	0.000604992	0.00429093	0.0064446
0.00154023	0.00110814	0.000664181	0.00136797	0.000571392	0.000605328	0.00435893	0.00621089
0.00157124	0.00101118	0.000659949	0.00137199	0.00055722	0.000601939	0.0043582	0.00606994
0.00154741	0.000994557	0.000660299	0.00135175	0.000553022	0.000605591	0.00431467	0.00596008
0.00157875	0.000978389	0.000655813	0.00136056	0.000560353	0.000593626	0.00420306	0.00577391
0.00152194	0.000984399	0.000649497	0.00135797	0.000562601	0.000590495	0.00419421	0.00592418
0.00145532	0.000988391	0.000649248	0.00132581	0.000566671	0.000589587	0.00414525	0.00605822
0.00144457	0.00099117	0.000663455	0.00135945	0.000564652	0.000593082	0.0042187	0.00609715
0.00144104	0.000998904	0.000656964	0.00139401	0.000568334	0.000596675	0.00444275	0.00590823
0.00144419	0.00115481	0.000662682	0.00138956	0.000567197	0.000606351	0.0044277	0.00580856
0.00144523	0.00120526	0.00065305	0.00138042	0.000565439	0.000596395	0.00436613	0.00598792
0.00150505	0.00120746	0.000653786	0.00137367	0.000561747	0.000593143	0.00433617	0.00607776
0.00152519	0.00120135	0.000650147	0.00135615	0.000569353	0.000582896	0.00425304	0.00601131
0.00162156	0.00119857	0.000652588	0.00133807	0.000569091	0.000582375	0.00435447	0.00590318
0.00165281	0.00118949	0.000645757	0.00134727	0.000572834	0.000580453	0.00438897	0.00577205
0.0016575	0.00120492	0.000642895	0.00136272	0.000576521	0.00057101	0.00436635	0.00569341
0.00165952	0.00120506	0.000644139	0.00137415	0.000580437	0.000580613	0.00435198	0.00565714
0.00168836	0.0012088	0.000651008	0.00136153	0.000582418	0.000585203	0.00436281	0.00560739
0.00169313	0.00120966	0.000648319	0.00136727	0.000585815	0.000585089	0.00444708	0.00555204
0.00168797	0.0012092	0.000654549	0.00142433	0.000588342	0.000583288	0.00451076	0.00559537
0.00168533	0.00117919	0.000663634	0.00142639	0.000594901	0.000579747	0.00446952	0.005657
0.0016708	0.001159	0.000660716	0.00141778	0.000586495	0.000580314	0.00452088	0.00587295
0.00152639	0.00116117	0.000659375	0.0014531	0.000606192	0.000581793	0.00447078	0.00590135
0.001496	0.00117395	0.000667693	0.00140349	0.000602538	0.000576918	0.00426636	0.00581099
0.0014612	0.00118259	0.000661776	0.0014064	0.000598028	0.000564976	0.00423804	0.00578822
0.00144498	0.00117014	0.000663203	0.00139962	0.000590792	0.000572977	0.00425644	0.00586412
0.00455716	0.0117469	0.000768461	0.0018099	0.000638755	0.00265028	0.0038241	0.00337855
0.00469984	0.0120118	0.000743201	0.00179496	0.000610676	0.00283969	0.00365995	0.00355518
0.00537727	0.0120775	0.000730065	0.00182312	0.000604481	0.00297286	0.00373252	0.00363515
0.00555842	0.012357	0.000707656	0.00188037	0.000597705	0.00317803	0.0038628	0.00374239
0.00562582	0.0126077	0.000706245	0.00188809	0.000599077	0.00319607	0.00387983	0.00376866
0.00584715	0.0130088	0.000708885	0.00188653	0.000605624	0.00322434	0.00389025	0.00376574
0.00591333	0.0133238	0.00069661	0.00188642	0.000605391	0.00322887	0.00387623	0.00376753
0.00578016	0.0142222	0.000695443	0.00186833	0.000616397	0.00325102	0.00387015	0.00373886
0.00618843	0.014331	0.000687144	0.0018606	0.000610453	0.00320864	0.00382805	0.00375524
0.0064597	0.014356	0.000688818	0.00183789	0.000606555	0.00324391	0.0037323	0.00392549
0.00646399	0.014441	0.000693838	0.00186697	0.000591583	0.00324728	0.00356563	0.00395288
0.00644477	0.0138034	0.000692989	0.0017584	0.000587827	0.00326629	0.00348096	0.00389396
0.00628369	0.0136126	0.000690903	0.00172065	0.000574735	0.00314911	0.00343079	0.00385738
0.00633524	0.0136899	0.00069495	0.00151804	0.000572218	0.00303939	0.00286321	0.00375938
0.00636845	0.0135587	0.00069333	0.00139687	0.000573436	0.00303941	0.00268538	0.0037344
0.00635681	0.0139253	0.000696121	0.00134602	0.00056717	0.00304373	0.00265416	0.00352971
0.00603667	0.0146227	0.000697218	0.00138177	0.000569729	0.00296229	0.00261106	0.00347808
0.00530203	0.0144999	0.00070654	0.00139099	0.000568489	0.00292223	0.00259544	0.0034281
0.00517121	0.01421	0.000701556	0.00139295	0.000559848	0.0027176	0.00257424	0.00342444
0.00528779	0.0139248	0.00069557	0.00136612	0.000556206	0.00275531	0.00238119	0.00332199
0.00571276	0.0134109	0.000695266	0.00137202	0.000558135	0.00277613	0.00232781	0.00312543
0.00566266	0.013239	0.000687794	0.00136979	0.000558964	0.00278098	0.00226127	0.00299064
0.0054414	0.0130609	0.000687941	0.00132754	0.000558124	0.00290733	0.00207562	0.00264223
0.00486967	0.0133616	0.000683902	0.00128681	0.000561816	0.00300886	0.00184392	0.00253971
0.00506995	0.0135469	0.000684573	0.00129126	0.000564159	0.00303291	0.00182281	0.00252516
0.00552076	0.0134697	0.000686476	0.00122492	0.000564633	0.00295476	0.00159987	0.00246689
0.00560687	0.0135591	0.000680317	0.00117024	0.000567126	0.00289574	0.00154749	0.00231278
0.00570075	0.0136258	0.000673959	0.00113361	0.000564988	0.00287177	0.00151465	0.00218129
0.00571562	0.0139249	0.000669543	0.00109881	0.000567847	0.00283052	0.00144533	0.00196514
0.00559491	0.0139743	0.000667993	0.00106073	0.00056531	0.00272321	0.00138699	0.00197379
0.00560507	0.0134283	0.000663525	0.00102214	0.000562275	0.00267348	0.00134949	0.0020252
0.00557842	0.0128706	0.000659571	0.00105186	0.000566407	0.00265789	0.00129862	0.00204407
0.00553031	0.0123734	0.000647839	0.00100085	0.000563535	0.00265226	0.0012438	0.00187164
0.00531401	0.0123537	0.000657789	0.0009739	0.000559385	0.00252931	0.00121369	0.00174513
0.00529661	0.0123468	0.000672318	0.000958774	0.000554441	0.00251838	0.00111581	0.0016688
0.00522971	0.0124339	0.000667007	0.000952049	0.000558987	0.00249447	0.001092	0.00163419
0.00493814	0.0130623	0.000667067	0.000941877	0.000557648	0.00228808	0.00101706	0.00145039
0.00463658	0.0134055	0.000673359	0.000875806	0.000557217	0.00214773	0.000835216	0.00139207
0.00482676	0.0131777	0.000680735	0.000852087	0.000554517	0.00207518	0.000776183	0.00130136
0.00473869	0.0130288	0.000677845	0.00084336	0.000552542	0.00208579	0.000769484	0.00131578
0.00477019	0.0132558	0.000670005	0.000843899	0.000550515	0.00207644	0.000762526	0.00136102
0.00494191	0.0122146	0.000670947	0.000824669	0.000547165	0.00204856	0.000754069	0.00138241
0.00521708	0.011608	0.000678597	0.000766506	0.000543651	0.00202143	0.000728295	0.00138481
0.00510665	0.011712	0.000675359	0.000764776	0.000537064	0.00202429	0.000715517	0.00123877
0.00509434	0.0122278	0.000676681	0.000724558	0.000541814	0.00194478	0.000707275	0.00112839
0.0052249	0.0121156	0.000671364	0.000687124	0.000544995	0.00192172	0.000701292	0.00112551
0.00523896	0.0118689	0.000674344	0.000690769	0.000543978	0.00188415	0.000694847	0.00114794
0.00515413	0.0117801	0.000673809	0.000690554	0.000553125	0.00186714	0.000668706	0.00114935
0.00513108	0.0119169	0.000671191	0.000693376	0.000550591	0.00186138	0.000670924	0.00115044
0.00513777	0.0122747	0.000683106	0.000699382	0.000552038	0.00185723	0.000664343	0.00109548
0.00521771	0.0121678	0.000677923	0.000684328	0.000559312	0.00185383	0.000657685	0.00103866
0.00613739	0.0116257	0.000669433	0.000660631	0.00056367	0.00186159	0.000661348	0.00104027
0.00629287	0.0117146	0.000663668	0.000651665	0.000567544	0.00183336	0.00066303	0.00105262
0.00635518	0.0119293	0.000663423	0.000642512	0.000568994	0.00182849	0.000669306	0.00106812
0.00598863	0.0117681	0.000674301	0.000640457	0.000563939	0.00179344	0.000681765	0.00105545
0.00597855	0.0118128	0.000673025	0.000639396	0.000565346	0.00178788	0.000831851	0.00106755
0.00614942	0.0122563	0.000671282	0.000649475	0.000570819	0.00168785	0.000867909	0.00108706
0.00624939	0.0126322	0.000661989	0.000650597	0.00057076	0.00153205	0.000902664	0.00111342
0.00619846	0.012616	0.000667814	0.000626736	0.000564764	0.00144657	0.000902559	0.00114616
0.00558527	0.012689	0.00066041	0.00060367	0.000558849	0.00140365	0.000882387	0.00114342
0.00617119	0.0127477	0.000657929	0.000602873	0.000575792	0.00136831	0.000873718	0.00115153
0.00619379	0.0129925	0.00065959	0.000611321	0.000584498	0.001347	0.000887671	0.00115615
0.00613896	0.0129432	0.000675893	0.000608266	0.00058245	0.00134867	0.000899193	0.00115819
0.00611752	0.0125927	0.000674566	0.000603984	0.00061415	0.00135054	0.000894559	0.0011764
0.00609591	0.0124763	0.000678994	0.000593493	0.000620886	0.00135129	0.000894927	0.00116285
0.00613617	0.0124766	0.000684729	0.000570367	0.000622204	0.00133532	0.000898496	0.00110559
0.00615225	0.0123643	0.000702328	0.000536465	0.000638142	0.00134083	0.000903352	0.00110302
0.00615977	0.0126203	0.000700056	0.000528442	0.000639458	0.00130721	0.000900573	0.00106299
0.00613252	0.0127351	0.000692875	0.000533674	0.000643511	0.00127839	0.000897338	0.00107975
0.00605011	0.0124795	0.000724502	0.000528116	0.000672562	0.00124765	0.0009281	0.00106676
0.00603981	0.0116969	0.00073038	0.000533408	0.000705753	0.00120035	0.000948871	0.00105964
0.00589256	0.0113601	0.000736516	0.000544389	0.000709487	0.00117916	0.000965075	0.00108134
0.00560509	0.0108807	0.00073268	0.000548938	0.000715679	0.00116677	0.000975223	0.00111951
0.00551243	0.0108107	0.00073578	0.000552261	0.000722252	0.00114671	0.000975352	0.00113392
0.00536703	0.0104886	0.000744047	0.000553766	0.00073384	0.00111238	0.000992422	0.00110378
0.00511385	0.0101118	0.000742633	0.000560606	0.000737192	0.00110839	0.000991655	0.00106372
0.00496412	0.01002	0.00074216	0.000558127	0.000747314	0.00109833	0.000997622	0.00105186
0.00424549	0.00988952	0.00073863	0.000573983	0.000758573	0.00103275	0.00100254	0.00105926
0.00405399	0.00890408	0.000741202	0.000602266	0.000763912	0.000924994	0.00100203	0.00105682
0.00391862	0.0083219	0.000743158	0.000638799	0.000764467	0.000895997	0.00100052	0.00106224
0.00385684	0.00826425	0.000753712	0.000652587	0.000766198	0.000860918	0.00100311	0.00101989
0.00384927	0.00813219	0.000750845	0.000645773	0.00077335	0.000855862	0.00101987	0.000995091
0.00384755	0.00797654	0.000747485	0.000644674	0.00077075	0.000840045	0.00100978	0.000965565
0.00373427	0.0073257	0.000744819	0.00065945	0.000775535	0.000822691	0.00105204	0.000960156
0.00370584	0.00668001	0.000749412	0.000664429	0.000779861	0.000843258	0.00107901	0.00095438
0.00288186	0.00680798	0.000756843	0.000670368	0.000780653	0.000829159	0.00108832	0.000955921
0.00246852	0.00678435	0.000767828	0.000680193	0.000787624	0.000810818	0.00109945	0.000949786
0.00242434	0.00643017	0.000771195	0.000685616	0.000790773	0.000817026	0.00111281	0.000934698
0.00240865	0.00634802	0.00077842	0.000730113	0.000805886	0.000837016	0.00132779	0.000947985
0.00236037	0.00621631	0.00079131	0.000806555	0.00087067	0.000833775	0.00165749	0.000954136
0.00209547	0.00579333	0.000838927	0.000934877	0.000976247	0.000854538	0.00226495	0.000992667
0.00202806	0.00537166	0.000851925	0.000950724	0.000985677	0.000851794	0.0022758	0.000989274
0.00175502	0.00468713	0.0008518	0.000971508	0.00100188	0.000846222	0.00229592	0.000969276
0.00168285	0.00419942	0.000849969	0.000971578	0.00100567	0.00084117	0.00229529	0.00100107
0.00105901	0.00407704	0.000853174	0.000995146	0.000996584	0.000825565	0.00229635	0.0010169
0.000789409	0.00387986	0.000854252	0.000996593	0.000984622	0.000829935	0.00229988	0.00104815
0.000770533	0.00350523	0.0008528	0.00101599	0.0010034	0.000829518	0.00230057	0.0010519
0.000762402	0.00333723	0.000848447	0.00103904	0.00100625	0.000835639	0.00230663	0.00106793
0.000755068	0.00333316	0.000850818	0.00104907	0.00100088	0.00084173	0.00234756	0.00105373
0.000724358	0.00321023	0.000861932	0.00111004	0.0010297	0.00086228	0.0023548	0.00105527
0.00104058	0.00272371	0.000495676	0.000599241	0.000286514	0.000330357	0.00393627	0.00382812
0.00107324	0.00282631	0.000503418	0.000622594	0.000301561	0.000351094	0.00391811	0.00397174
0.00111639	0.0028648	0.000518136	0.000641347	0.000313893	0.000370182	0.00389193	0.00412214
0.00113595	0.00286675	0.000523953	0.000664872	0.000327985	0.000379836	0.00389646	0.00419933
0.00126719	0.0028497	0.000534644	0.000681489	0.000336612	0.000395351	0.00385106	0.00427133
0.00129044	0.00281687	0.000540092	0.000700095	0.000350645	0.000416295	0.0037911	0.00437822
0.00133427	0.00296731	0.000547284	0.000733198	0.000360297	0.000428527	0.00378102	0.00461259
0.00135708	0.00300944	0.000555204	0.000758897	0.000373285	0.000443271	0.00376154	0.00481217
0.00135708	0.00303738	0.000558527	0.000774786	0.000408344	0.000464086	0.00373003	0.0049854
0.00138892	0.00304114	0.000563195	0.000803848	0.000425814	0.000478969	0.00368516	0.00513815
0.00141432	0.00301404	0.000570091	0.000857593	0.000433166	0.000502199	0.00361227	0.00517308
0.00141265	0.00298535	0.00058271	0.000889199	0.000446242	0.000521378	0.00354046	0.00537336
0.0014134	0.00297178	0.000586592	0.00092259	0.000460208	0.000539211	0.00349658	0.00544627
0.0014185	0.0029524	0.000597961	0.000939314	0.000473603	0.000553974	0.00344612	0.00548091
0.00142526	0.00291934	0.00060629	0.000989184	0.000488607	0.00057233	0.00355384	0.00549803
0.00143253	0.00289595	0.000618179	0.00101864	0.000508927	0.000596628	0.00354137	0.00569309
0.00143435	0.0029284	0.000630006	0.00104121	0.000518911	0.000618034	0.00363466	0.00618567
0.00145838	0.00298916	0.000641911	0.00106411	0.000539995	0.000631763	0.00361476	0.00631946
0.00158229	0.00346268	0.00064284	0.00109288	0.000548578	0.000644176	0.00365567	0.00645765
0.00159519	0.00351523	0.000648054	0.00108823	0.000553925	0.000650225	0.00372298	0.00650303
0.00160371	0.00349279	0.000640696	0.00107179	0.000555705	0.000648955	0.00373814	0.00649843
0.00160079	0.00349322	0.000642591	0.0010953	0.000557446	0.000650306	0.0037322	0.00635591
0.00158395	0.00349269	0.000636525	0.00107756	0.000560303	0.000642266	0.00368562	0.00643267
0.00151124	0.00357159	0.000646201	0.00105908	0.000569366	0.000647917	0.0036228	0.00631222
0.00152107	0.00373033	0.000650574	0.00106986	0.000568126	0.000644458	0.00356256	0.00635582
0.00154534	0.00372435	0.000652695	0.00109612	0.000573215	0.00063802	0.00362663	0.00658278
0.00157802	0.00377477	0.000652212	0.00109028	0.000580584	0.000640615	0.00357661	0.00660478
0.00159439	0.00379079	0.00065259	0.00109863	0.000581537	0.00063431	0.00359561	0.0064118
0.00158071	0.00379894	0.000660873	0.00107688	0.000576352	0.000640712	0.0035534	0.00638589
0.00152569	0.00336505	0.000663764	0.00107995	0.000564908	0.000634875	0.00350424	0.00618755
0.00149165	0.00319936	0.000667187	0.00106862	0.000561871	0.000637987	0.00354275	0.00611528
0.00148677	0.00311109	0.000673851	0.00105834	0.000568622	0.000642437	0.00344367	0.00611567
0.00145229	0.00308027	0.000674629	0.00108009	0.000569984	0.000643777	0.00343746	0.00600877
0.00141229	0.00301847	0.000667913	0.00109707	0.000573346	0.000641374	0.00347049	0.00607346
0.00139811	0.00309948	0.000671824	0.00109312	0.000573795	0.000637649	0.0034077	0.00599724
0.00140575	0.00287351	0.000672773	0.0011043	0.000561619	0.000622674	0.00332255	0.0061793
0.00139067	0.00284134	0.000665957	0.00110598	0.000577267	0.000613287	0.00332943	0.00611693
0.00139571	0.00282377	0.000663273	0.00113005	0.000578087	0.000628614	0.00342131	0.00633582
0.00135376	0.00280894	0.000667297	0.00112916	0.000577783	0.000631958	0.0034829	0.00651881
0.00137224	0.00280254	0.000666698	0.00116689	0.000578047	0.00063711	0.00348776	0.00649593
0.0013652	0.00276222	0.00066226	0.00118296	0.000578712	0.000634503	0.00349904	0.00640364
0.00132049	0.002599	0.000673595	0.00117166	0.000580144	0.000633932	0.00342646	0.00640528
0.00131486	0.00255024	0.000675794	0.00117477	0.0005817	0.00062905	0.00345643	0.00654773
0.0013167	0.00248585	0.000692931	0.00119355	0.000556534	0.000628208	0.00358627	0.00658729
0.00128854	0.00246532	0.00069763	0.00119714	0.00056416	0.000627427	0.00365139	0.0065828
0.00130329	0.00247271	0.000702133	0.00119856	0.000563043	0.000629298	0.00373107	0.0067313
0.00130621	0.0024633	0.000695491	0.00122347	0.000563054	0.000623345	0.00388056	0.00685392
0.00130327	0.0024522	0.000695332	0.00125356	0.000565156	0.000625411	0.00402499	0.00701066
0.001299	0.00244664	0.000698903	0.00125883	0.000567466	0.000626835	0.00402316	0.00705915
0.00131419	0.00245133	0.000691702	0.00123456	0.000553902	0.000626874	0.00395689	0.00707429
0.00135868	0.00243406	0.000689159	0.00123165	0.000550433	0.000608325	0.00392578	0.00696436
0.00136323	0.00238579	0.000685802	0.00123285	0.000552553	0.000609609	0.00378711	0.00670075
0.00130977	0.00225769	0.000681405	0.00123127	0.000537383	0.000619535	0.00383518	0.00670318
0.00121115	0.00177301	0.000684706	0.00122556	0.00053721	0.000610403	0.00377186	0.00656014
0.00135663	0.00174104	0.000674719	0.00121993	0.000534704	0.000605666	0.00365945	0.00658872
0.00140474	0.00173193	0.000682235	0.00127677	0.000540939	0.000610883	0.00392503	0.00663781
0.00144198	0.00173005	0.000683892	0.00125354	0.000544199	0.000618155	0.00391003	0.00668761
0.00145663	0.00172923	0.000689249	0.00125344	0.000544307	0.000618395	0.00387683	0.00663753
0.00145946	0.00155784	0.000684325	0.00128925	0.000542893	0.000618498	0.00399763	0.00658976
0.00142009	0.0014737	0.00067558	0.0013357	0.00054169	0.000619912	0.0040428	0.00654708
0.00140892	0.00146202	0.000675956	0.0012873	0.000540514	0.000621095	0.00389746	0.00613723
0.00136326	0.00142041	0.000670467	0.00130559	0.00053978	0.000615619	0.0039265	0.00596023
0.00134175	0.00140815	0.000665816	0.00129817	0.000547113	0.000617528	0.0039558	0.00598747
0.0012693	0.00139951	0.000656757	0.00131085	0.000555271	0.0006225	0.00394172	0.00604036
0.0012677	0.00141883	0.000656007	0.0013486	0.000561456	0.000619459	0.00395599	0.0062104
0.00129968	0.00159814	0.000659187	0.00137789	0.000563444	0.000613625	0.00402461	0.00628825
0.00130527	0.00163996	0.000658849	0.00140922	0.0005637	0.00060434	0.00412071	0.00611797
0.00144398	0.00164096	0.000666868	0.00135406	0.000571516	0.000605765	0.00410132	0.00626077
0.00150622	0.00164671	0.000664299	0.00135052	0.000569998	0.000605964	0.00419622	0.00634598
0.00153271	0.00120395	0.000664661	0.00137206	0.000571354	0.00060601	0.00429754	0.00631511
0.00155324	0.00103797	0.000659309	0.00137159	0.000570962	0.000604735	0.00437271	0.006134
0.00154087	0.000996841	0.000658703	0.0013608	0.00055479	0.000607253	0.00431809	0.00600648
0.00157759	0.00097831	0.000654104	0.00135469	0.000557587	0.000594162	0.0042353	0.00586826
0.00153977	0.000983657	0.000655341	0.00136659	0.000564181	0.000593656	0.00419012	0.00587763
0.00145908	0.000987725	0.000650754	0.00132716	0.000566282	0.000588744	0.0041553	0.00605732
0.00144594	0.000991236	0.000664126	0.00135785	0.000564756	0.000592865	0.00421283	0.00609421
0.00143994	0.000999005	0.000657643	0.00139398	0.00056994	0.000597034	0.00445145	0.00590749
0.00144632	0.00115914	0.000656829	0.00138843	0.000566363	0.000604459	0.00442651	0.00583169
0.00144789	0.00120692	0.000654136	0.00137479	0.000564907	0.000596663	0.00432753	0.00602449
0.00150082	0.00120869	0.000653712	0.00137964	0.000565969	0.00059389	0.00433494	0.00609033
0.0015493	0.00120096	0.000648764	0.00135478	0.000568851	0.000583241	0.00424808	0.00598756
0.00164304	0.00119742	0.000649721	0.00136613	0.000565727	0.000586539	0.00439628	0.00582189
0.00165424	0.00120384	0.000645471	0.00134427	0.00057342	0.000572629	0.00436654	0.00570233
0.00165883	0.00120525	0.000646642	0.00137485	0.000574965	0.00057097	0.00435448	0.00566435
0.00167132	0.00120703	0.000651652	0.00136174	0.000578773	0.000587251	0.00435136	0.00566345
0.00169111	0.00120982	0.0006518	0.00136787	0.000583831	0.000582076	0.00439385	0.00551712
0.00168889	0.00120954	0.000655031	0.00141764	0.000586005	0.000583804	0.00451728	0.00559237
0.00168481	0.00118113	0.000662364	0.0014282	0.000594895	0.00057793	0.00447332	0.00565723
0.0016708	0.001159	0.000660716	0.00141778	0.000586495	0.000580314	0.00452088	0.00587295
0.00152194	0.00116104	0.000659324	0.00145176	0.000605098	0.000580341	0.00446604	0.00588815
0.00149349	0.00117589	0.000665598	0.00140564	0.000606887	0.000575212	0.00425579	0.00581045
0.00145908	0.0011786	0.000665308	0.00140387	0.000600693	0.000563851	0.0042594	0.00579314
0.00144142	0.00117279	0.000663014	0.00140044	0.000588756	0.000573186	0.00423759	0.00588253
0.00144683	0.0012107	0.000667687	0.00135419	0.000586194	0.000576706	0.00411805	0.00598628
0.00143904	0.00126702	0.000678537	0.00132229	0.000583584	0.000581888	0.004146	0.00598852
0.00143046	0.00127508	0.0006811	0.00131696	0.000579438	0.000588597	0.00418906	0.0059919
0.00143672	0.00126801	0.000680135	0.00130926	0.000574745	0.000587122	0.00422509	0.00597978
0.00145939	0.00126716	0.000684031	0.00131489	0.000571254	0.000580926	0.0042271	0.0058149
0.00150521	0.00125811	0.000676585	0.00132162	0.000566297	0.000574254	0.00427617	0.00582854
0.00150861	0.00119738	0.000673357	0.00130464	0.000563526	0.000575553	0.00424196	0.0057227
0.00361716	0.00897057	0.000773484	0.00174087	0.000701403	0.00212411	0.0028004	0.00312471
0.00362857	0.00905671	0.000772165	0.00174197	0.000633	0.00219221	0.00282533	0.00313119
0.00379842	0.00938582	0.000752078	0.00179255	0.000609316	0.00233146	0.00285061	0.00343808
0.00404258	0.0101556	0.000746942	0.00185092	0.000612348	0.00244468	0.0029361	0.00360021
0.00410645	0.0110109	0.00074282	0.0018963	0.000598739	0.00250164	0.00296487	0.00360106
0.00472362	0.0114248	0.00073855	0.00191539	0.000601462	0.00262398	0.00298113	0.00361454
0.00501874	0.0114856	0.000733306	0.00191157	0.000604283	0.00268004	0.00299181	0.00363935
0.00507208	0.0114745	0.000712809	0.00191026	0.0006006	0.0027469	0.00300245	0.00365805
0.00509199	0.0114778	0.000701531	0.00191366	0.000592398	0.0028039	0.00303	0.00371853
0.00506731	0.0117378	0.000688268	0.0019148	0.000583492	0.0028236	0.00305049	0.0037351
0.00502406	0.0122165	0.000682323	0.00192552	0.000583632	0.00288061	0.0031294	0.00377311
0.00514469	0.012727	0.00068216	0.00193707	0.000583108	0.00295428	0.00317924	0.00390401
0.00510897	0.0126541	0.000679532	0.00194431	0.000579159	0.00309921	0.00319838	0.00403126
0.00485151	0.0124142	0.000676618	0.00194282	0.000567467	0.00334608	0.00319262	0.00402841
0.00476907	0.0120858	0.000674225	0.00191268	0.000563052	0.00337202	0.00313028	0.0040391
0.00476618	0.0125687	0.000682913	0.00183395	0.000565089	0.00331043	0.00303713	0.00402697
0.00474784	0.0130133	0.000693089	0.00191146	0.00055933	0.0033192	0.00292256	0.00399758
0.00457386	0.0123497	0.000693131	0.00188542	0.000553627	0.00343197	0.0028477	0.00383575
0.00455467	0.0121267	0.000687787	0.0018485	0.000559155	0.00340064	0.0027436	0.00377407
0.00550689	0.0117636	0.00068962	0.00181055	0.000554028	0.00338608	0.00270323	0.00382017
0.00570821	0.012093	0.000691267	0.00175666	0.000547129	0.00349559	0.0026457	0.00371481
0.00575959	0.0119673	0.00067636	0.00171658	0.000553378	0.00360784	0.00261703	0.00366598
0.00582579	0.0116038	0.000687261	0.00164498	0.000552818	0.00357867	0.00257908	0.00362554
0.00583872	0.0115269	0.00067523	0.00160197	0.000544222	0.00345712	0.00248362	0.00357246
0.00482592	0.0109588	0.000670153	0.001559	0.000552309	0.00329325	0.00234762	0.00340535
0.00449484	0.010566	0.000673914	0.00145131	0.000541605	0.00317166	0.00219151	0.00320896
0.00430191	0.0108726	0.000674941	0.00141435	0.0005421	0.00315171	0.00207868	0.00307999
0.00427952	0.0109515	0.000665767	0.00141266	0.000546132	0.00312507	0.00202324	0.00304593
0.00439598	0.0110736	0.000662413	0.00138573	0.000539589	0.00307158	0.00199808	0.00291579
0.00486359	0.0120344	0.000658855	0.00132623	0.000532715	0.00314573	0.00195927	0.00273451
0.0051357	0.0125302	0.00065805	0.00131161	0.000538688	0.00310682	0.00187486	0.00268537
0.0053358	0.0116663	0.000653957	0.0012844	0.000537437	0.00305689	0.00174491	0.00269999
0.00539116	0.0112702	0.000649166	0.00129204	0.000540789	0.00290975	0.00159648	0.00265299
0.00539151	0.0111684	0.000648901	0.0012349	0.000538567	0.0028108	0.00141465	0.00242964
0.00543859	0.0111576	0.000647794	0.00122025	0.000532597	0.00280799	0.00127265	0.00208968
0.00543566	0.0111644	0.000639072	0.0012103	0.00053682	0.00284888	0.00119727	0.00202728
0.0054211	0.0112055	0.00064274	0.00119555	0.000543302	0.00283327	0.00118491	0.00198823
0.00540011	0.0108211	0.000646039	0.00118166	0.000545847	0.00277337	0.00112477	0.00199554
0.00543643	0.0110363	0.000641898	0.00118166	0.000542143	0.00272477	0.00109	0.00198304
0.00538884	0.0109822	0.000640405	0.00113122	0.000539195	0.00259152	0.00105772	0.00165539
0.00516274	0.0104063	0.000649811	0.00107434	0.000541242	0.00249081	0.000963552	0.00152494
0.0051385	0.00967028	0.000654374	0.0010243	0.000540325	0.0024551	0.000946422	0.00153399
0.00454039	0.00940977	0.000661636	0.00100302	0.00053153	0.00237325	0.000930609	0.00151231
0.00430568	0.00999384	0.000664117	0.00100488	0.000527717	0.00233338	0.000918833	0.00150107
0.00425941	0.0108487	0.000668396	0.00100631	0.000533274	0.00227148	0.000914247	0.00149254
0.0042865	0.0114411	0.000680961	0.0010032	0.000532815	0.00223632	0.000894736	0.00144707
0.00440761	0.0112401	0.00068188	0.000999918	0.000531901	0.00221298	0.000871233	0.00145837
0.0046908	0.0108716	0.000676567	0.000990238	0.000532525	0.00215177	0.000781722	0.00144377
0.00439159	0.0104818	0.000672523	0.00097192	0.000546592	0.00207763	0.00072097	0.00131051
0.0043073	0.0109342	0.000675612	0.000956252	0.000543131	0.00194813	0.00068684	0.00118703
0.00443681	0.0112	0.0006721	0.000954569	0.000547542	0.00173119	0.000667049	0.00125847
0.00452675	0.0113468	0.000669815	0.000947305	0.000549711	0.00169764	0.000656107	0.00130374
0.00473444	0.0110295	0.000662232	0.000886608	0.000555773	0.00168731	0.00063367	0.00129549
0.0048138	0.0109616	0.000661885	0.000725697	0.00057027	0.00160907	0.000625721	0.00135342
0.00487195	0.0115254	0.000661145	0.000690281	0.000583525	0.00145532	0.000627023	0.00140748
0.00493705	0.0117497	0.000663907	0.000687866	0.000586575	0.001404	0.000623209	0.0013994
0.00396415	0.0114862	0.00067007	0.000690034	0.000606042	0.0014292	0.000626004	0.00133992
0.00370019	0.0108641	0.00067257	0.000692182	0.00061959	0.0013288	0.000616403	0.00131134
0.0036158	0.0105548	0.000678139	0.000704187	0.000621821	0.0012216	0.000619207	0.00131409
0.00354236	0.010591	0.000670272	0.000704708	0.000648285	0.00121093	0.000613889	0.0013283
0.00353348	0.0109566	0.000689763	0.000710083	0.000668259	0.00118074	0.000607971	0.00134467
0.00353197	0.0111328	0.000696096	0.000715136	0.000671324	0.00117559	0.000619487	0.00136429
0.00349799	0.0115189	0.00070229	0.000713452	0.000682855	0.00117419	0.000641637	0.00136246
0.00343564	0.0113235	0.000707099	0.000681351	0.000682947	0.00118413	0.000778781	0.00137083
0.00345855	0.0113567	0.000716349	0.000686985	0.000698629	0.00119097	0.00093355	0.00135825
0.00347707	0.0112464	0.000723896	0.000690952	0.000718909	0.00114563	0.00106716	0.00136359
0.00297963	0.010197	0.00073425	0.00069588	0.000726085	0.00107711	0.00110146	0.00135777
0.00270322	0.0096033	0.000730856	0.000691756	0.000724657	0.00107609	0.00114998	0.00134237
0.0025118	0.00971557	0.000737269	0.000668757	0.000729074	0.00107254	0.00116772	0.00127604
0.00246016	0.0097167	0.000739034	0.000627755	0.000725856	0.00106342	0.00118148	0.00128
0.00246236	0.00971144	0.000732883	0.000621047	0.000731431	0.00105241	0.00119621	0.0012991
0.00240739	0.0097435	0.000742943	0.000601169	0.000734964	0.00104382	0.00125696	0.00131425
0.00234165	0.00974446	0.000753765	0.00060022	0.000749778	0.00099995	0.00132677	0.00133198
0.00230149	0.00957525	0.000758814	0.000630678	0.000746843	0.00101077	0.00133944	0.00133949
0.00230769	0.00952718	0.000759852	0.000645446	0.000748366	0.000991408	0.00136077	0.00131184
0.00225845	0.00919986	0.000769758	0.000645435	0.000756733	0.000969346	0.00136519	0.00132402
0.00213918	0.0088716	0.000771607	0.000650519	0.000752811	0.000972444	0.00136622	0.00133499
0.00212959	0.00865637	0.000767064	0.00066251	0.000752247	0.000953281	0.00138043	0.00130415
0.00208958	0.0085765	0.000767856	0.000665531	0.000764446	0.000962669	0.00138183	0.00127848
0.00202677	0.00841905	0.000762401	0.000671663	0.000782876	0.000949665	0.001389	0.00128672
0.00201989	0.00780713	0.000762059	0.000673282	0.000782566	0.000941535	0.00139304	0.00127905
0.00201536	0.00689016	0.000757081	0.00067558	0.000783124	0.000974048	0.00139294	0.0012669
0.00196935	0.00634793	0.000751653	0.000680515	0.000790189	0.000954818	0.00139105	0.00125256
0.00183864	0.00629936	0.000749989	0.000682194	0.000795815	0.000959307	0.00139147	0.00117509
0.00152486	0.00619402	0.000749872	0.000696579	0.000795913	0.000971491	0.00139897	0.00115551
0.0015079	0.00615812	0.000747722	0.00069804	0.000787738	0.000980376	0.00141143	0.00115559
0.00149074	0.00558946	0.000739658	0.000711103	0.000792612	0.000976454	0.00141708	0.00114816
0.0013576	0.00521144	0.000748144	0.000717042	0.000803074	0.000972188	0.00144251	0.00107043
0.00126183	0.00503117	0.000758442	0.000717731	0.000812211	0.0009808	0.00144082	0.00102096
0.0010432	0.00477419	0.000763043	0.000717755	0.000805041	0.00101768	0.00144775	0.00101337
0.000909421	0.00426583	0.000764685	0.000732179	0.000817174	0.00100791	0.0014388	0.00096805
0.000846122	0.00354075	0.000764345	0.000732406	0.000821527	0.00102186	0.00144366	0.000932203
0.00078422	0.00331101	0.000760023	0.000753781	0.000822408	0.00103446	0.00145765	0.000923224
0.000778358	0.00328743	0.000767285	0.000750799	0.000852719	0.000989321	0.00146245	0.000945516
0.000774433	0.00327864	0.000777882	0.000768636	0.000851172	0.000963478	0.00147571	0.000948497
0.000772319	0.00325467	0.000776332	0.000771486	0.000857209	0.000967741	0.00148055	0.000939502
0.000780045	0.00310912	0.000785522	0.0008055	0.000833428	0.000989775	0.00148326	0.000921015
0.000780194	0.00269591	0.000766868	0.000828676	0.000838964	0.00102056	0.00149753	0.000912926
0.000778025	0.00250975	0.000769198	0.000834684	0.000862734	0.00103738	0.00149812	0.000895636
0.000800541	0.00206046	0.000763445	0.000855343	0.000873087	0.0010355	0.00147443	0.000904715
0.00104058	0.00272371	0.000495676	0.000599241	0.000286514	0.000330357	0.00393627	0.00382812
0.00109912	0.00285036	0.00050643	0.000630072	0.000304279	0.000359903	0.00390391	0.00408412
0.00112023	0.00286433	0.000521119	0.000648688	0.000323847	0.000374593	0.00387209	0.00414879
0.0012515	0.00284843	0.000534964	0.000677512	0.000335513	0.000393734	0.00386185	0.00426429
0.00129307	0.00281998	0.000542068	0.000701407	0.000352957	0.000416337	0.00378617	0.00438405
0.00134825	0.00299473	0.000552009	0.000744439	0.000364899	0.000434413	0.00378692	0.00467412
0.00135471	0.00302832	0.000556752	0.000768986	0.000393378	0.000453943	0.00373703	0.00490787
0.00138618	0.00304307	0.000563497	0.000802204	0.000425411	0.000478265	0.00369152	0.0051248
0.00141383	0.00300749	0.00056995	0.000859329	0.000436569	0.00050616	0.00360271	0.00518645
0.00141279	0.00298152	0.000584224	0.000906423	0.000451974	0.000529709	0.00352896	0.00540283
0.00141969	0.00296195	0.000594034	0.000936718	0.000467879	0.000549747	0.00343565	0.00547257
0.00142537	0.00292035	0.000605893	0.000988207	0.000488272	0.000572258	0.0035535	0.00549691
0.00143243	0.00290017	0.000621473	0.00102695	0.000509171	0.000608992	0.003542	0.00583222
0.00143595	0.0029292	0.000635318	0.00105242	0.000528664	0.000625067	0.00361486	0.00624879
0.00158017	0.00337028	0.000643347	0.00109164	0.000545964	0.000641536	0.00360629	0.00638685
0.00159666	0.00351613	0.000647262	0.00109099	0.000554323	0.000649906	0.00372263	0.00650503
0.00160095	0.00349632	0.000641122	0.00107503	0.000555851	0.000648852	0.00373631	0.00647778
0.00158844	0.00348976	0.000637692	0.00108713	0.000558859	0.000646276	0.00380102	0.00635957
0.00151701	0.00354264	0.000646414	0.00106058	0.000568116	0.000647316	0.00361918	0.00636934
0.0015293	0.00373195	0.000653699	0.00106308	0.000571831	0.000643927	0.00355452	0.00632137
0.00154831	0.00374914	0.000647718	0.00109393	0.000579628	0.000634625	0.00359204	0.00661002
0.00155898	0.00378869	0.00065524	0.00109188	0.000580936	0.000633402	0.00359698	0.00649519
0.00158801	0.00380061	0.00066145	0.00107545	0.000576953	0.000640785	0.00355304	0.00640208
0.00150424	0.00332265	0.000665177	0.0010777	0.000561814	0.000635946	0.00353215	0.00617787
0.00148331	0.00316176	0.000670903	0.00106775	0.000566737	0.000641395	0.00350152	0.00608848
0.0014742	0.00308483	0.000679421	0.0010866	0.000572564	0.000645317	0.00343827	0.00595654
0.00141133	0.00301828	0.0006668	0.0010988	0.000573643	0.000641773	0.0034684	0.00607943
0.00140171	0.00308504	0.000667945	0.0010977	0.000570421	0.000629167	0.0033476	0.00606038
0.00140399	0.00289149	0.00066755	0.00109862	0.000571915	0.000616783	0.00332935	0.00616724
0.00139676	0.00282331	0.000659641	0.00112887	0.00057777	0.000625246	0.00339775	0.00628085
0.00134045	0.0028096	0.000662917	0.00113372	0.000576218	0.000629013	0.0034766	0.0065148
0.00137708	0.00280139	0.000669675	0.00118186	0.000582209	0.000634807	0.00350369	0.00649342
0.00134167	0.00262666	0.000671988	0.00117574	0.00058079	0.000635934	0.00345919	0.00639789
0.00131414	0.00255175	0.000675969	0.00117492	0.00058164	0.000629625	0.00343728	0.0065252
0.00131228	0.00247081	0.000698331	0.00119722	0.000554866	0.000628976	0.00363396	0.00660211
0.00129987	0.00246723	0.000697291	0.00118813	0.000560798	0.000628117	0.00369001	0.00661401
0.00130281	0.00246894	0.000694322	0.00120645	0.000564654	0.000622124	0.00382768	0.00680894
0.00130341	0.00245199	0.000695132	0.00125538	0.000565378	0.00062473	0.00402449	0.00701405
0.00129653	0.00244474	0.000696375	0.00124594	0.000567616	0.000625394	0.00395772	0.00707172
0.00134548	0.00245222	0.000694174	0.00123675	0.000548122	0.000622032	0.00394244	0.00712362
0.00136488	0.00238685	0.00068643	0.00123315	0.000551582	0.000608768	0.00378312	0.00670797
0.00128876	0.00221397	0.000683051	0.00123004	0.0005347	0.000618093	0.00384241	0.00670509
0.00125764	0.00174295	0.000674618	0.00122517	0.000537939	0.000609119	0.00371196	0.00657298
0.00140273	0.00173051	0.000679106	0.00124065	0.000542725	0.000604742	0.00383245	0.00661171
0.00143636	0.00173087	0.000683406	0.00124919	0.000544848	0.000617798	0.0039288	0.00667794
0.00145765	0.00173162	0.000688163	0.00125629	0.000544695	0.000618008	0.0038881	0.00662715
0.00145032	0.00151141	0.000681514	0.00131482	0.000539452	0.000619198	0.00403862	0.00657473
0.00141237	0.0014741	0.000675676	0.00129377	0.000543627	0.000618974	0.00392109	0.00633552
0.00136323	0.00142055	0.000670421	0.00130549	0.000539737	0.000615682	0.00392676	0.0059603
0.00133473	0.00140065	0.000658344	0.00130316	0.000547604	0.000613635	0.00394123	0.00601655
0.00125093	0.00139586	0.000657495	0.00131466	0.000558576	0.0006198	0.00395902	0.00618066
0.00129741	0.00155695	0.000660657	0.00138337	0.00056605	0.000616624	0.00402065	0.00626877
0.00130817	0.001642	0.000658537	0.00140451	0.000566386	0.000603707	0.00411825	0.00613183
0.0014718	0.00163939	0.000665675	0.0013524	0.000568367	0.00060843	0.00412205	0.00627152
0.001532	0.00142485	0.000664511	0.00137606	0.000569383	0.000606232	0.00429469	0.00645201
0.00155464	0.00105486	0.00066112	0.00136633	0.000571139	0.000604125	0.00438317	0.00614308
0.00154309	0.000993004	0.000660401	0.00135652	0.000555399	0.000608126	0.00429677	0.00598407
0.00158143	0.00098063	0.000653478	0.00135965	0.00056104	0.000593345	0.00416346	0.0057443
0.00145919	0.000984921	0.000649571	0.00133895	0.000566023	0.000591689	0.00415114	0.00601276
0.00144666	0.000990957	0.000664321	0.00135599	0.000565022	0.000592563	0.00420762	0.00609159
0.00143957	0.00102505	0.00066134	0.00139166	0.000571929	0.000600251	0.00448997	0.00580244
0.00144542	0.00120074	0.000654221	0.0013778	0.000566281	0.000596765	0.00436941	0.00592213
0.00150626	0.00120741	0.000652391	0.00137447	0.00056239	0.000592961	0.00433866	0.00607557
0.00155664	0.00120199	0.000648508	0.00135364	0.000568055	0.000583457	0.00425628	0.00598432
0.00164925	0.001193	0.000648303	0.00134756	0.000568622	0.000586113	0.00438565	0.00577535
0.00165894	0.00120511	0.000644168	0.00136898	0.000576059	0.000570811	0.00438543	0.00568413
0.0016697	0.00120367	0.000652508	0.00136405	0.000580258	0.000586214	0.00435218	0.00566036
0.00169232	0.00121045	0.000650782	0.00136649	0.000583972	0.00058251	0.00443081	0.00554419
0.00168602	0.00120634	0.000654862	0.00143948	0.000587624	0.00057679	0.00450113	0.00561294
0.00168764	0.00116018	0.000658862	0.00141892	0.000591729	0.000583168	0.00447978	0.00583008
0.00152534	0.00116111	0.000659187	0.00145236	0.000606255	0.00058122	0.00446899	0.00589686
0.00148719	0.00117618	0.000664849	0.00140599	0.000606443	0.000571244	0.00424873	0.00581312
0.0014455	0.00117392	0.000664457	0.00140239	0.000591914	0.00057113	0.00426322	0.00583152
0.00144772	0.0011947	0.00066607	0.00136893	0.000585818	0.000573937	0.00413364	0.00598483
0.00143885	0.001269	0.000679532	0.00132126	0.000583363	0.000582793	0.00414446	0.00598438
0.00143326	0.00127714	0.000687089	0.00131198	0.000577991	0.000585666	0.00421943	0.00599085
0.00143538	0.00126882	0.000682447	0.0013124	0.000574039	0.000584046	0.00421607	0.0059193
0.00149311	0.00125838	0.000675457	0.00131965	0.000568303	0.000570517	0.00427401	0.00587503
0.00150455	0.00115623	0.000672061	0.00130178	0.000566347	0.000574754	0.00423572	0.00572148
0.00150019	0.00103309	0.000673458	0.00127703	0.000558765	0.000579711	0.00412353	0.00565002
0.0015365	0.00125486	0.000672717	0.00124665	0.0005511	0.000582557	0.00405587	0.00560536
0.00145763	0.0013576	0.000668228	0.00122452	0.000557707	0.000585106	0.00388255	0.00538887
0.00143782	0.00134829	0.000670669	0.00121396	0.000553936	0.000590638	0.00379345	0.00531305
0.00141413	0.00133243	0.000678607	0.0012343	0.000554075	0.000587912	0.00389766	0.0053833
0.00136007	0.00132225	0.000674707	0.00122195	0.0005488	0.000583219	0.00392461	0.00529955
0.00140383	0.00131214	0.000678883	0.00121496	0.00054002	0.000582555	0.00391879	0.00503326
0.0015041	0.00130687	0.000683916	0.00122134	0.000533937	0.000578408	0.00401612	0.00487571
0.00150801	0.00130958	0.000672685	0.00115542	0.000529231	0.000579058	0.00389523	0.00492511
0.00150186	0.00114302	0.000671454	0.00116331	0.000523937	0.000582171	0.0037752	0.0047703
0.00149561	0.00109532	0.000662096	0.00116982	0.000524277	0.000589249	0.00383238	0.00447332
0.00144664	0.00114682	0.000660537	0.00116661	0.000525229	0.0005848	0.00386757	0.00437107
0.00134685	0.00117734	0.000656872	0.00113242	0.000519197	0.000583816	0.0036871	0.00420472
0.00144025	0.00117246	0.000661741	0.00110168	0.000510069	0.000588514	0.00362635	0.00414351
0.00152589	0.00138293	0.000662116	0.00108187	0.00050715	0.00058669	0.00352329	0.00462884
0.00146831	0.00144061	0.000668537	0.00107533	0.000509151	0.000584747	0.00348886	0.00472474
0.0015116	0.00143646	0.000666038	0.00104012	0.00050279	0.000581743	0.00354719	0.00476665
0.00163932	0.00143863	0.000670639	0.00105549	0.000498763	0.000587957	0.00366045	0.00482754
0.0016508	0.00142095	0.000676408	0.00103138	0.000490727	0.000591101	0.00367518	0.00450432
0.00168932	0.00139857	0.00066899	0.00102383	0.000480089	0.000582558	0.00362139	0.0044571
0.001691	0.00139691	0.000683866	0.00101614	0.000472593	0.000594456	0.00376541	0.00447416
0.00454683	0.0139119	0.000710236	0.000962764	0.00062256	0.00168854	0.00224069	0.00277925
0.00462803	0.0145314	0.00070524	0.000963389	0.000594875	0.00177686	0.0022414	0.00277948
0.00482157	0.0149386	0.000692403	0.000961764	0.000566466	0.00189371	0.00223429	0.00279463
0.00488957	0.0149895	0.000685336	0.000958887	0.000567932	0.00194401	0.00222846	0.00279625
0.00489549	0.0147394	0.000678716	0.000955909	0.000574337	0.0019584	0.00222729	0.00279316
0.00494187	0.0147788	0.000676668	0.000953544	0.000575499	0.00206316	0.0022317	0.00280935
0.00488087	0.0142354	0.000680275	0.000937037	0.000579048	0.00216733	0.0022421	0.00282654
0.00474286	0.0137053	0.0006796	0.000939597	0.000572918	0.00218008	0.00221971	0.0028262
0.00466613	0.0129385	0.00068415	0.000935464	0.000571145	0.0021896	0.00218553	0.00277587
0.00452507	0.0125862	0.000681958	0.000931134	0.000566015	0.00220099	0.00216114	0.0027883
0.00443998	0.0126277	0.000673084	0.000923694	0.000573052	0.0022259	0.00213802	0.002785
0.00431444	0.0127918	0.000668699	0.000923228	0.000589673	0.00224762	0.00211359	0.00281029
0.00435109	0.0127866	0.000669733	0.000858539	0.000590119	0.00226303	0.00204923	0.0028971
0.00435096	0.0123701	0.000666743	0.000834803	0.000590513	0.00225453	0.00197512	0.00277827
0.00443331	0.0120359	0.000664748	0.00082246	0.00059189	0.00226172	0.00186299	0.00258318
0.00448447	0.012027	0.000668251	0.000805971	0.00059829	0.00225467	0.00178509	0.00252182
0.00439868	0.011938	0.000671391	0.000770899	0.000589048	0.0022533	0.00163806	0.00248217
0.00356242	0.0117311	0.000670651	0.000755135	0.000580627	0.00224487	0.00148306	0.00239426
0.00326419	0.0117374	0.000661655	0.000735812	0.000568723	0.00223181	0.00144817	0.00235919
0.00322133	0.0123506	0.000663569	0.000701692	0.000567938	0.00220315	0.00143846	0.0023554
0.00322683	0.0127874	0.000668574	0.000693867	0.000569327	0.00219107	0.00142794	0.00235297
0.00327743	0.0133126	0.000675996	0.000686409	0.000571009	0.00220648	0.00142568	0.00220317
0.00341179	0.0133767	0.000675605	0.000670319	0.000572622	0.00224478	0.00138116	0.00205704
0.00354021	0.0134838	0.000668775	0.000660016	0.000579645	0.0022569	0.00135227	0.00202592
0.00355656	0.013384	0.000669324	0.000654649	0.000579363	0.00226321	0.00134517	0.00204594
0.00354309	0.0119891	0.000666243	0.000646928	0.000584413	0.00223215	0.00129571	0.00194083
0.00352667	0.0119237	0.000658986	0.000625588	0.000589455	0.00222161	0.00119665	0.00185423
0.0035399	0.0118421	0.000660188	0.000624571	0.000589035	0.002157	0.00109232	0.00169684
0.00362944	0.0120123	0.000667423	0.000616024	0.00058554	0.00210399	0.00110832	0.0015204
0.00375853	0.0126059	0.000676621	0.000623943	0.000591467	0.00203028	0.00134751	0.0014793
0.00392234	0.0127129	0.000684851	0.000627959	0.000600863	0.00191462	0.00145309	0.00145668
0.0039545	0.0127335	0.000686317	0.000630101	0.00060844	0.00184718	0.00146612	0.00149994
0.00392939	0.0127326	0.000697817	0.000643045	0.000607894	0.00183431	0.0014861	0.00156199
0.00383128	0.0128186	0.000706618	0.000618171	0.000609895	0.0017954	0.00150865	0.00161461
0.00370873	0.0127857	0.000706022	0.000606762	0.000620705	0.00175461	0.00152548	0.00157149
0.00373087	0.0126145	0.00072181	0.000601843	0.000656919	0.0017465	0.0015157	0.00159422
0.00351028	0.0118444	0.000725454	0.000597249	0.000677831	0.00165307	0.00148311	0.00162127
0.00347495	0.0116554	0.000717325	0.000606994	0.00068062	0.00159175	0.00158133	0.00158415
0.00356245	0.0120061	0.000721504	0.000603254	0.000684567	0.00157244	0.00161575	0.00159245
0.00375917	0.0124339	0.000744216	0.000589725	0.000696631	0.00156296	0.00160193	0.00157253
0.0037579	0.0126124	0.000743098	0.000586337	0.000702356	0.00155968	0.00159214	0.00157521
0.00328876	0.0124846	0.000754055	0.000591699	0.000699954	0.00152082	0.00158368	0.00147
0.00319382	0.0120943	0.000753618	0.000595627	0.000693832	0.00151821	0.00156545	0.00146801
0.00316092	0.0122324	0.000759102	0.000595587	0.000699515	0.00150804	0.00160162	0.00150963
0.00307001	0.01211	0.000756935	0.000601594	0.0007061	0.00137454	0.00164911	0.00153
0.00286946	0.0118005	0.000762266	0.000606703	0.000716224	0.00128891	0.00171547	0.00152389
0.00283551	0.0117576	0.000743669	0.000616683	0.000725973	0.0012605	0.00172455	0.00152398
0.00284833	0.011738	0.000746939	0.000618691	0.000738029	0.00124171	0.00173084	0.00152011
0.00283262	0.0114162	0.000758739	0.000621791	0.000750056	0.00112063	0.00174339	0.00152033
0.00282935	0.0109309	0.000767719	0.000623157	0.000753613	0.00105409	0.00173907	0.00154132
0.00283576	0.0104226	0.000759781	0.000622729	0.000758606	0.00104496	0.00174322	0.00154882
0.00283089	0.0101402	0.000755802	0.000623549	0.00076123	0.00105699	0.00175871	0.00158181
0.00282802	0.0100909	0.000755942	0.000631381	0.000770894	0.00106677	0.00176694	0.00157399
0.00281501	0.0099466	0.00075779	0.000634538	0.000782542	0.00105752	0.00178162	0.00158963
0.00274513	0.00958083	0.000766818	0.000634568	0.00076707	0.00101351	0.00176741	0.00154996
0.00266054	0.00950932	0.000770146	0.000624417	0.000770115	0.00100892	0.00176953	0.00150868
0.00263582	0.00949354	0.000772517	0.000625891	0.000800949	0.00101902	0.00177828	0.0015087
0.0025551	0.00938908	0.000774465	0.000629252	0.000810162	0.00100967	0.00177557	0.00151281
0.00249268	0.00935245	0.000780849	0.00062886	0.000805463	0.0010095	0.00178492	0.0015199
0.00246783	0.00937229	0.000779386	0.000630706	0.000827825	0.00102028	0.0017944	0.00152712
0.00246589	0.00937273	0.000785324	0.000640493	0.000830655	0.00102726	0.00179732	0.00153232
0.00246324	0.00888826	0.000794979	0.000644305	0.000847428	0.00102054	0.00179794	0.00153745
0.00245611	0.00812826	0.00078615	0.000653981	0.00085733	0.000992928	0.00179014	0.00154736
0.00245077	0.00765475	0.000786183	0.000672444	0.000853622	0.000977249	0.00178721	0.00156465
0.00236381	0.00711014	0.000791561	0.00067581	0.00086656	0.000948109	0.00178901	0.00155479
0.00216776	0.00694855	0.000797878	0.000681491	0.000878832	0.000896006	0.00178473	0.00154159
0.00204384	0.0068907	0.000803238	0.000701443	0.000888241	0.000875185	0.00178282	0.00146797
0.00202395	0.00694767	0.000801319	0.000714344	0.000884287	0.000869099	0.00177892	0.00145068
0.00201419	0.00683333	0.000803783	0.000708133	0.000885235	0.000863933	0.00178023	0.00145534
0.00196595	0.00644047	0.000800839	0.000709894	0.000880918	0.000860304	0.00176927	0.00146999
0.00192671	0.00610156	0.000803182	0.000708625	0.000912306	0.000861645	0.00176192	0.00146786
0.00181621	0.00561146	0.000794158	0.0007197	0.000911658	0.00087043	0.00166484	0.00147909
0.00168474	0.0050469	0.000790058	0.000723332	0.000913634	0.000876841	0.0014391	0.0014928
0.00153556	0.00500465	0.000798984	0.000721839	0.000919012	0.000879508	0.00129635	0.00149589
0.00150902	0.00512978	0.000800619	0.000721855	0.000910547	0.00088491	0.00125204	0.00147961
0.00149502	0.0054292	0.000789234	0.000710105	0.000917044	0.000912365	0.00121895	0.00142119
0.00149315	0.00563541	0.000787877	0.000709306	0.000950389	0.000919391	0.00118185	0.0014177
0.00148628	0.00570593	0.000791288	0.000709918	0.000948251	0.000943358	0.00114708	0.00142969
0.00143233	0.00561615	0.000787746	0.000714499	0.000908082	0.000911999	0.00115254	0.0013789
0.00142538	0.00531668	0.00079337	0.000715753	0.0009033	0.000903419	0.0010999	0.00135484
0.00140135	0.00491534	0.000820314	0.000708525	0.000920378	0.000912662	0.00100208	0.0013214
0.00129993	0.00452156	0.00081998	0.000707883	0.000919546	0.000911086	0.000994325	0.0013112
0.000969386	0.00411779	0.000810613	0.00070375	0.000917375	0.000935584	0.00100033	0.00133468
0.000696288	0.0039587	0.000812087	0.000702773	0.000926472	0.000966439	0.00100073	0.00131508
0.000714378	0.00393724	0.000809957	0.000706803	0.000960244	0.000975925	0.00101214	0.00129463
0.000750807	0.00391953	0.000821134	0.000697442	0.000997214	0.000969566	0.00100919	0.00136165
0.000761442	0.00335967	0.000825118	0.000700327	0.000994643	0.000982264	0.000961741	0.00135127
0.000765569	0.00300965	0.000827537	0.000702082	0.000992339	0.000983866	0.000943571	0.00133468
0.000775008	0.00292026	0.000826869	0.000700157	0.000969225	0.000978124	0.000888412	0.0013545
0.000751955	0.00287175	0.000845744	0.000704559	0.000959517	0.00101602	0.000898552	0.00136216
0.000640515	0.0028279	0.000850125	0.000711887	0.00095534	0.00102376	0.000894026	0.0013681
0.000622495	0.00281996	0.000840312	0.000726208	0.000954247	0.0010309	0.000884883	0.00136798
0.000626336	0.00280171	0.000844116	0.000732824	0.000998275	0.00102732	0.000895139	0.0013581
0.00062472	0.00266534	0.000857549	0.000739185	0.00101066	0.0010334	0.000904348	0.00136151
0.000626892	0.00265157	0.000866534	0.000732393	0.00101682	0.00101577	0.000899263	0.00134914
0.000626545	0.00262776	0.00087567	0.000737483	0.00101469	0.000990361	0.00089849	0.00133703
0.000626369	0.00261834	0.000876901	0.000745214	0.00101071	0.00098746	0.000893409	0.00131487
0.000628733	0.00261472	0.000876998	0.000755425	0.00101367	0.000995251	0.000898831	0.0013298
0.000671148	0.00260966	0.000880469	0.000778783	0.00101533	0.00100508	0.000886208	0.00132309
0.000686641	0.00261063	0.000880107	0.000791538	0.000995086	0.00100163	0.000881138	0.00131722
0.00104058	0.00272371	0.000495676	0.000599241	0.000286514	0.000330357	0.00393627	0.00382812
0.00111083	0.00285405	0.000509181	0.000634601	0.000305846	0.00036216	0.0038986	0.00409811
0.00114908	0.00286835	0.000524235	0.000669347	0.000329033	0.000380417	0.00389034	0.00420719
0.00127745	0.00282997	0.000537697	0.000692643	0.000342195	0.000406055	0.00380357	0.00429537
0.00134391	0.00297251	0.000547978	0.000738414	0.000363126	0.000430677	0.00378439	0.00464777
0.00135471	0.00303163	0.000556573	0.000769105	0.00039606	0.000454953	0.00373402	0.00491644
0.00140091	0.00303558	0.000564197	0.000816369	0.000426382	0.000482139	0.00366897	0.00515191
0.00141359	0.00298935	0.000580524	0.000877382	0.000442382	0.000514932	0.00356536	0.0053436
0.00141696	0.00297121	0.000590053	0.000924643	0.000463264	0.000543715	0.00347365	0.00546223
0.00142479	0.00292707	0.000603989	0.000980954	0.000485011	0.000571718	0.00356236	0.00549048
0.00143254	0.00290008	0.000621521	0.00102934	0.000509617	0.000611264	0.00354809	0.00590654
0.00145055	0.00293474	0.000640175	0.00106055	0.000536453	0.000631106	0.00361645	0.00631369
0.00158699	0.00352992	0.000644532	0.001091	0.000552761	0.000645747	0.00364962	0.00648026
0.00160482	0.00349664	0.000642528	0.00107659	0.000554316	0.000650462	0.00373086	0.00651706
0.00158788	0.00348527	0.000637625	0.00109392	0.000557441	0.00064451	0.00378928	0.00631514
0.00151201	0.00356376	0.000646121	0.00105924	0.000569238	0.000647641	0.00362267	0.00632334
0.00154505	0.00372377	0.00065189	0.00105829	0.000570236	0.000644133	0.00354065	0.0063724
0.00157777	0.00377782	0.000652687	0.0010909	0.000582096	0.00064097	0.00357627	0.00659376
0.00162015	0.00379928	0.000661913	0.00108086	0.000578083	0.000640181	0.00357472	0.00646618
0.00151178	0.00334849	0.000664029	0.00107943	0.000563209	0.000636012	0.0035174	0.00618087
0.00148275	0.0031465	0.000671117	0.00106544	0.000566582	0.00064012	0.00346883	0.00607472
0.00145064	0.00307395	0.000673576	0.00108208	0.000567983	0.000643533	0.00343001	0.00600484
0.00139775	0.00302768	0.000671196	0.0011002	0.000576198	0.000637602	0.00347381	0.00596685
0.00141126	0.00290551	0.000674064	0.00110161	0.000563449	0.000621746	0.00333122	0.0061877
0.0013953	0.00282523	0.000659215	0.00112742	0.000579783	0.000621359	0.00338274	0.00625187
0.00132893	0.00280886	0.000664176	0.00114004	0.000577177	0.000633811	0.00345981	0.006511
0.00137078	0.00279802	0.000665753	0.00118923	0.00057863	0.000632499	0.00351551	0.00642829
0.00131733	0.0025724	0.000670524	0.00117037	0.000580408	0.000634132	0.00341635	0.00647338
0.00131606	0.00249232	0.00069304	0.00119621	0.000557948	0.000627184	0.00357552	0.00656266
0.0013	0.00246727	0.000698326	0.00118945	0.000561629	0.000627158	0.00368228	0.00660362
0.00130449	0.00246381	0.000695446	0.00122206	0.000563629	0.000623493	0.00388301	0.00683761
0.00130009	0.00244633	0.00070018	0.00125173	0.000566863	0.000626284	0.00407419	0.00704056
0.00131465	0.00245105	0.000691821	0.00123547	0.00055388	0.000626328	0.00395406	0.00707376
0.00136286	0.00239616	0.000686679	0.00123664	0.000550048	0.000610356	0.00382311	0.00676134
0.00129358	0.00222521	0.000682671	0.00122936	0.000535617	0.000618272	0.00384311	0.00670428
0.00130172	0.00174728	0.000676219	0.00122368	0.000537215	0.000606644	0.00369318	0.00656048
0.00140468	0.00173233	0.000683283	0.00126975	0.000542197	0.000611211	0.00395305	0.00665944
0.00145441	0.00173018	0.000689801	0.00125474	0.000544068	0.000623112	0.00386589	0.00663319
0.00146115	0.00154762	0.000682123	0.00130729	0.000541565	0.000617205	0.00400388	0.0065895
0.00141197	0.00147409	0.000675815	0.00129265	0.000543073	0.000619527	0.00391978	0.00632144
0.0013694	0.00142165	0.000674714	0.00130453	0.000544245	0.000615805	0.00391181	0.00595741
0.00129494	0.00140063	0.000656401	0.00130958	0.000548948	0.000618143	0.00394989	0.00604069
0.00128255	0.00148262	0.000653571	0.00135269	0.000562759	0.000620032	0.00398773	0.00623242
0.00130293	0.00163966	0.000658987	0.00140579	0.000563988	0.000607116	0.00412398	0.00610995
0.00147478	0.00164219	0.000664925	0.00135497	0.000569125	0.000607904	0.00412769	0.00626488
0.00153131	0.00122139	0.000664651	0.00137581	0.000571337	0.000606163	0.00429308	0.00632515
0.00156958	0.00100598	0.000660321	0.00137072	0.000557121	0.000601977	0.00435537	0.00604934
0.00157734	0.000978152	0.000653784	0.00135469	0.000557525	0.000594158	0.00423579	0.00586848
0.00146222	0.000987188	0.000647388	0.00134749	0.000566354	0.000593119	0.0041754	0.00598373
0.00144351	0.000991118	0.000662934	0.00136023	0.00056463	0.000592781	0.0042241	0.0060962
0.00144352	0.00107728	0.000664167	0.00139031	0.00057216	0.000603362	0.0044646	0.00587005
0.00145367	0.00121079	0.00065443	0.00136993	0.000561469	0.000596419	0.00433778	0.00601571
0.00152513	0.00120136	0.000650515	0.00135649	0.000569412	0.000583489	0.00425355	0.00601189
0.00164719	0.00119433	0.000648124	0.00135686	0.000568223	0.000588404	0.0044054	0.0058003
0.00165838	0.00120638	0.000645087	0.00137108	0.00057496	0.000571602	0.00438187	0.00567798
0.00168148	0.00120904	0.000652109	0.00136036	0.000582088	0.000585413	0.00435841	0.00562434
0.00168842	0.00120765	0.000651498	0.00140796	0.000584741	0.000584551	0.00449661	0.00557599
0.00169	0.00117212	0.000662824	0.00141887	0.000594151	0.000581963	0.00446299	0.00569991
0.00152747	0.00116134	0.000660419	0.00145354	0.000605633	0.000583066	0.00448306	0.00590758
0.00148475	0.00117484	0.000664896	0.00140974	0.00060287	0.000565749	0.00423009	0.00581219
0.001442	0.00116952	0.000663949	0.00140481	0.000589219	0.000574056	0.00425363	0.00587424
0.0014433	0.00125259	0.000672858	0.00133857	0.00058308	0.000574385	0.00411888	0.00606913
0.00142957	0.00127606	0.000680139	0.00131807	0.000579175	0.000588283	0.00418167	0.00599169
0.00142557	0.00126684	0.000681479	0.00131242	0.000574641	0.000585275	0.0042272	0.00592205
0.00150716	0.00125728	0.000676368	0.00132235	0.000565995	0.000574309	0.00427544	0.00581922
0.00150133	0.00108545	0.00067085	0.00127533	0.000561748	0.000575028	0.004196	0.00567885
0.00157613	0.00110353	0.000671467	0.00125145	0.000551729	0.000582526	0.00410507	0.00564679
0.0014741	0.00135715	0.000667705	0.0012317	0.000556524	0.000584549	0.00394875	0.00547369
0.00143666	0.00134827	0.000669223	0.00121111	0.000554607	0.000588957	0.00379152	0.00531204
0.00140849	0.00133197	0.000676221	0.00123352	0.000550584	0.000587147	0.00388031	0.00546411
0.00137648	0.00131249	0.000677098	0.00122984	0.000542644	0.000580719	0.00393666	0.00525054
0.00147446	0.00130526	0.000685378	0.00121795	0.00053501	0.000581649	0.00397056	0.00490246
0.00150761	0.00130915	0.000670641	0.00116565	0.00053156	0.00057607	0.00395179	0.00491256
0.00150185	0.00114335	0.000671252	0.00116306	0.000523899	0.000582023	0.00377575	0.00477448
0.00148049	0.00109848	0.000660026	0.00117479	0.000523608	0.000584671	0.00385299	0.00441668
0.00141335	0.0011691	0.000661707	0.0011696	0.000522991	0.000582348	0.0038576	0.00431096
0.00139097	0.00117823	0.00066163	0.00111246	0.000513489	0.000587108	0.00359851	0.00414644
0.00152985	0.00135982	0.000660334	0.00107758	0.000509636	0.00058714	0.00356062	0.00458076
0.00147033	0.0014406	0.000668496	0.0010767	0.000509357	0.000584241	0.00349317	0.00472104
0.00154865	0.00143671	0.000668184	0.00102933	0.000501628	0.00058138	0.00353629	0.00474139
0.00164255	0.00142889	0.000673041	0.00105657	0.000500683	0.000586281	0.00369454	0.00461839
0.00166069	0.0014134	0.00067007	0.00101777	0.000484455	0.000588001	0.00361488	0.00442536
0.00169207	0.00139903	0.000684294	0.00101659	0.00047417	0.000593988	0.00374046	0.00451852
0.00170178	0.00139339	0.000697252	0.00102076	0.000478065	0.000585092	0.00382372	0.00426569
0.00171086	0.00133532	0.000684893	0.001055	0.000481352	0.000587527	0.00391695	0.00445566
0.00175846	0.00136935	0.000674585	0.00107346	0.000479661	0.000587308	0.0038518	0.00456004
0.00166462	0.00138055	0.000691449	0.00110489	0.000479731	0.000595285	0.00398712	0.00484893
0.00161146	0.00138811	0.000695472	0.00110441	0.000509103	0.000589497	0.00398276	0.0048574
0.00172407	0.00139873	0.000692772	0.00109468	0.000516155	0.000598097	0.00398616	0.00503786
0.0016025	0.00118611	0.000684865	0.00109897	0.000517687	0.000590053	0.0040729	0.00487779
0.00161166	0.00105663	0.00068236	0.00111371	0.000507218	0.000597539	0.0041173	0.00508072
0.00168216	0.00112247	0.000682138	0.00110981	0.000514927	0.000591392	0.00408202	0.00514201
0.00169008	0.00136964	0.000695228	0.00110823	0.000521267	0.00060412	0.0040236	0.00505552
0.00164416	0.00137697	0.000694632	0.00113468	0.000534005	0.000604235	0.00398434	0.00505613
0.00171627	0.00138264	0.000686953	0.00116051	0.000541876	0.000605436	0.00398499	0.0051649
0.00172161	0.00137675	0.00068587	0.00116743	0.000542319	0.000599893	0.0038578	0.0050883
0.00179295	0.00137862	0.000682397	0.00119196	0.00054979	0.000599844	0.00391516	0.0049527
0.00181456	0.00136758	0.000686828	0.00120729	0.000538542	0.00061034	0.00383552	0.00501409
0.00177697	0.00131826	0.000692439	0.00122046	0.000539616	0.000617682	0.0039998	0.00519201
0.0016925	0.00131298	0.000699543	0.00125317	0.000540054	0.00061631	0.0039868	0.0052345
0.0058942	0.0134781	0.000751764	0.00105574	0.000787736	0.00220478	0.00289125	0.00335635
0.00595283	0.0134138	0.000748691	0.00105956	0.000793725	0.00219795	0.00287159	0.00339817
0.00599941	0.013646	0.000748909	0.00105277	0.000793603	0.00222055	0.00285765	0.00340704
0.00601881	0.0140248	0.00074481	0.00105413	0.000791906	0.00226542	0.00284838	0.00340415
0.00601961	0.0137716	0.000739437	0.00104871	0.000789565	0.00227493	0.00280359	0.0033881
0.00599811	0.0135126	0.000732698	0.00104609	0.000787709	0.00229047	0.00277547	0.0033529
0.00593375	0.0128961	0.000734431	0.00103361	0.000780922	0.00233767	0.00275517	0.00327576
0.0058673	0.0130606	0.000729306	0.00102729	0.00078513	0.00237255	0.00274605	0.00316907
0.00568139	0.0131358	0.000738537	0.00102158	0.000776448	0.00240322	0.00274618	0.00313697
0.00539656	0.01309	0.00073908	0.00101415	0.000769995	0.00241305	0.00294046	0.00300745
0.00518322	0.0127145	0.000735038	0.00101317	0.00075673	0.00242869	0.0030006	0.00297474
0.00526266	0.0136042	0.000738992	0.00100983	0.000758991	0.00245009	0.00308071	0.00298371
0.00477525	0.0141873	0.000737031	0.000988793	0.000765652	0.00244792	0.00303038	0.0030013
0.00430186	0.0143546	0.000739922	0.000933681	0.000764297	0.00242243	0.00285065	0.00297548
0.00432652	0.0144878	0.000739292	0.000893082	0.000759435	0.00238282	0.00261598	0.00293364
0.00485725	0.0154015	0.000740837	0.000859354	0.000769355	0.0023805	0.00250899	0.00292647
0.00499661	0.0162344	0.000752011	0.000837885	0.000772236	0.00238494	0.00247612	0.0029706
0.00506452	0.0168099	0.00075974	0.000837322	0.000776558	0.00241782	0.00241399	0.00286507
0.00507249	0.0169598	0.000764795	0.000832955	0.000771251	0.00245041	0.00237027	0.00280031
0.00507413	0.0166827	0.000766828	0.000832905	0.000766049	0.00246761	0.00230279	0.00258585
0.0050841	0.0165429	0.000764102	0.000807057	0.000765939	0.00250544	0.00215773	0.00245717
0.00517967	0.0164891	0.000764776	0.00079215	0.000766762	0.00254651	0.00208948	0.00231375
0.00524288	0.0162573	0.000762328	0.00078535	0.000768805	0.00253633	0.00207106	0.0022928
0.00543268	0.0158501	0.000752752	0.000786902	0.000766064	0.00250758	0.00207913	0.00228511
0.00595285	0.0153415	0.000747582	0.000784949	0.000763614	0.00249524	0.00203574	0.00228196
0.00620177	0.0150917	0.000754455	0.00077011	0.000766431	0.00248695	0.00199878	0.0022111
0.00639981	0.0150735	0.000761007	0.00076421	0.000772722	0.00245958	0.00201227	0.00214229
0.0064821	0.0152834	0.000763574	0.000755347	0.00077713	0.00247685	0.00201533	0.00212419
0.0064832	0.0158076	0.000765738	0.000751487	0.000781902	0.00247332	0.00207249	0.00196914
0.00686292	0.0159042	0.000765457	0.000747988	0.000783701	0.00247749	0.00205851	0.00188922
0.00722344	0.0157142	0.0007685	0.000742685	0.000782902	0.00249636	0.00207402	0.00187707
0.00734487	0.0152589	0.000750606	0.00074634	0.000753484	0.00249198	0.00202658	0.00191791
0.00741787	0.0147029	0.000748965	0.000731176	0.000725736	0.00244591	0.00200036	0.00192748
0.00729687	0.0146407	0.000741409	0.000715593	0.00067934	0.00235302	0.00195243	0.0018285
0.00743164	0.0145615	0.000743772	0.000694826	0.000682528	0.00221279	0.00188992	0.0017151
0.00758377	0.0146061	0.000741797	0.000678972	0.000682601	0.00212861	0.00187678	0.00170897
0.00765277	0.0148285	0.00073585	0.000667882	0.000688627	0.00209068	0.00191745	0.00171524
0.00768319	0.0146825	0.00072717	0.000667487	0.000686209	0.0020375	0.00188434	0.00169417
0.00763647	0.0149499	0.000724548	0.000662631	0.000677674	0.00199225	0.00185659	0.00169679
0.00750739	0.0153984	0.000712752	0.000662459	0.00066551	0.00192158	0.00182452	0.00167619
0.00738948	0.0162374	0.000717052	0.000657601	0.000666696	0.00187341	0.00180839	0.00161616
0.00721069	0.0160491	0.000733785	0.000647537	0.000686878	0.0018499	0.00175472	0.00158111
0.00712158	0.0157351	0.000722996	0.000635275	0.000683237	0.00175751	0.0017014	0.00154761
0.0063353	0.0156375	0.00072413	0.000629546	0.000683238	0.001579	0.00163006	0.00156144
0.00609105	0.0155759	0.000726965	0.000619534	0.000678652	0.00145581	0.00158019	0.00156271
0.00602606	0.0155487	0.000723565	0.000602752	0.000683306	0.00142221	0.00156457	0.00153572
0.00600314	0.0155392	0.00073077	0.000600444	0.000686418	0.00138725	0.00157895	0.00152877
0.00601342	0.0155195	0.000732364	0.000597406	0.000705229	0.00135618	0.00156198	0.00153727
0.00604412	0.0153862	0.000742582	0.000596876	0.000717408	0.00133167	0.00156455	0.00153918
0.00605874	0.0149538	0.0007462	0.00059241	0.000722414	0.00132978	0.00157036	0.00147272
0.00602241	0.0147184	0.0007534	0.000593645	0.000719948	0.00132922	0.00157015	0.001448
0.00601377	0.0146246	0.000781927	0.000591367	0.000743165	0.00132006	0.00160549	0.00143711
0.00598793	0.0145127	0.000786352	0.000590299	0.000743301	0.00127879	0.00164234	0.00141426
0.00593423	0.0143085	0.000784217	0.000585381	0.000740403	0.00125897	0.00165938	0.00131293
0.00581641	0.0140064	0.000784045	0.000585209	0.000737328	0.00127366	0.00165927	0.00132397
0.00573512	0.0133942	0.000790735	0.000587329	0.000738302	0.00125688	0.00166525	0.00134089
0.00571656	0.0129715	0.000796142	0.000586062	0.000733627	0.00123141	0.0016652	0.00134564
0.00570715	0.0128773	0.000802454	0.000581201	0.000737935	0.001219	0.00167668	0.00135506
0.00571077	0.012823	0.000801139	0.000582942	0.000757998	0.00120331	0.00168067	0.00135191
0.00571012	0.0127639	0.00080861	0.000581079	0.000763582	0.00114502	0.00169572	0.00137268
0.00566768	0.0119947	0.00080618	0.000577843	0.000759469	0.00111169	0.001674	0.0013732
0.00538618	0.0118203	0.000801149	0.000575166	0.000766676	0.001108	0.00162912	0.00137552
0.00519525	0.0116398	0.000799083	0.000573566	0.00076907	0.0010938	0.0013831	0.00136796
0.00506823	0.0116811	0.000799821	0.00057748	0.00076971	0.00105928	0.00129173	0.0013562
0.00497012	0.0107719	0.000802562	0.000570501	0.000766332	0.00103189	0.00118028	0.00134429
0.00492217	0.0102094	0.000806917	0.000566783	0.000763619	0.00102038	0.00112447	0.00134328
0.00489464	0.010082	0.000836519	0.000575919	0.000804881	0.00101434	0.00111891	0.00133837
0.00429433	0.0097707	0.000836177	0.000585925	0.000820681	0.00102932	0.00111785	0.00134758
0.00393712	0.00867639	0.000834285	0.000595713	0.000816426	0.00101738	0.00111597	0.00132516
0.003828	0.00788993	0.000826083	0.000616897	0.000810085	0.00099705	0.00110463	0.00129578
0.00376799	0.0074289	0.000825614	0.000619104	0.00081272	0.000978545	0.00110848	0.00127893
0.00376009	0.00732779	0.00083331	0.00061348	0.000813862	0.000959595	0.00111601	0.00124835
0.00376843	0.00729302	0.000835424	0.00060962	0.000819517	0.00092041	0.00111594	0.00125002
0.00376371	0.00729188	0.000837237	0.000606535	0.000818439	0.000868874	0.00111513	0.00124718
0.00362864	0.00728244	0.000841834	0.000616644	0.00081188	0.000833462	0.00111298	0.00123588
0.00358791	0.00727917	0.000849089	0.00061527	0.000810934	0.000840711	0.00109814	0.00122818
0.00327394	0.00722523	0.000852284	0.000625594	0.000813022	0.000860334	0.00109267	0.00121997
0.00280397	0.00681222	0.000850237	0.00064832	0.000817069	0.000878769	0.00109148	0.00122809
0.00246023	0.00651016	0.000845587	0.000671592	0.000819726	0.000904807	0.00108843	0.00126127
0.00229273	0.00619484	0.000841114	0.000673157	0.000814409	0.000912468	0.00107953	0.00128061
0.00226109	0.00544685	0.000835663	0.000694964	0.000815733	0.00090623	0.00105613	0.00129077
0.00224358	0.0050048	0.000844053	0.00070084	0.000824156	0.000904117	0.0010314	0.00132774
0.0016448	0.00490921	0.000850886	0.000718759	0.000837322	0.000906167	0.00103402	0.0013406
0.00144583	0.0048551	0.000840613	0.000741933	0.000836365	0.000899894	0.00102248	0.00127174
0.00129218	0.00481513	0.000839025	0.000762475	0.000827505	0.000886677	0.00101244	0.00123718
0.00121805	0.00478254	0.000851814	0.00077049	0.000826628	0.000878903	0.000998398	0.00122977
0.00117679	0.00478693	0.000887004	0.000785989	0.000834238	0.000930484	0.0010288	0.00124626
0.000951062	0.00479261	0.00089326	0.000796801	0.000823195	0.000962786	0.00104817	0.00124588
0.000795482	0.00470816	0.000895766	0.000833329	0.000825616	0.000980754	0.00107344	0.00124366
0.000709621	0.00445689	0.000902894	0.000867149	0.000824672	0.000978283	0.00100741	0.00123991
0.000685967	0.00416105	0.000917436	0.00086809	0.000838766	0.000988408	0.000996054	0.0012331
0.000675123	0.00380509	0.000922945	0.000871182	0.000843639	0.000997843	0.000995442	0.00122882
0.000672091	0.00318014	0.000915182	0.00088126	0.000846746	0.000994759	0.00099826	0.00123178
0.000665906	0.0021933	0.000905185	0.000881467	0.000847708	0.000992604	0.00100277	0.00123213
0.000660704	0.00195304	0.000901474	0.000891844	0.000842911	0.000994053	0.000998974	0.00120611
0.000663354	0.00190313	0.000958759	0.000916655	0.000899963	0.00102136	0.000994935	0.00113015
0.000657515	0.00186235	0.000958506	0.000939629	0.000936982	0.00103896	0.000996307	0.00109275
0.000661093	0.00185254	0.000970809	0.000952615	0.00094052	0.00105221	0.000992434	0.00108858
0.000666519	0.00185945	0.00100447	0.000959648	0.000984052	0.00106552	0.000989657	0.00108775
0.000671577	0.00184783	0.00102063	0.000973714	0.000999605	0.00108485	0.000971263	0.00108434
0.00104058	0.00272371	0.000495676	0.000599241	0.000286514	0.000330357	0.00393627	0.00382812
0.00105665	0.00280118	0.000503534	0.000620986	0.00029938	0.000348454	0.00390562	0.00393905
0.00111783	0.00286729	0.000514382	0.000636465	0.00031081	0.000364929	0.00390639	0.00410608
0.00111944	0.002864	0.000521979	0.000650508	0.000324857	0.000375424	0.00387008	0.00415559
0.00123115	0.00285792	0.000530126	0.000672517	0.00033333	0.000390206	0.00387394	0.00425849
0.0012739	0.00283688	0.000535826	0.000688428	0.00034054	0.000400822	0.00382367	0.00428431
0.00129762	0.00284161	0.000545164	0.000708908	0.000353513	0.000416595	0.00378728	0.00440878
0.00134045	0.00296831	0.00054734	0.000736448	0.000362112	0.000429872	0.00378178	0.00463752
0.00135664	0.00300783	0.000555077	0.000757497	0.000372779	0.000442813	0.00376052	0.00479155
0.0013573	0.00303996	0.000556853	0.000770303	0.000400987	0.000460236	0.0037265	0.00495297
0.00138215	0.00304963	0.000562089	0.000798509	0.000422506	0.000470515	0.00370798	0.00505639
0.00141081	0.00302648	0.000567033	0.000832229	0.000429904	0.000490908	0.00363897	0.00517377
0.00141659	0.00299792	0.000573338	0.000867094	0.000439022	0.000511204	0.003589	0.0052389
0.00141041	0.00298466	0.000584551	0.000898438	0.000450333	0.000524753	0.00352792	0.0053885
0.00141758	0.00297193	0.000586405	0.000924304	0.000462969	0.000540747	0.00348175	0.00545385
0.00141858	0.00295192	0.000597849	0.000939419	0.000473689	0.000554262	0.00344873	0.00548159
0.00142517	0.00292406	0.000604366	0.000984072	0.000486441	0.000572095	0.00355524	0.00549177
0.00143077	0.00289696	0.000613118	0.00101232	0.000507276	0.00058735	0.00356211	0.00552202
0.00143269	0.00291685	0.000625293	0.00103405	0.000515102	0.000614066	0.00357586	0.00605632
0.00143582	0.00292909	0.000635109	0.0010508	0.000527954	0.000625059	0.00361527	0.0062421
0.00151037	0.00309738	0.000642758	0.00107884	0.000546136	0.000638255	0.00359596	0.00632612
0.00158463	0.00351939	0.000640726	0.00109239	0.000550235	0.000644307	0.00363503	0.00646641
0.00159722	0.00351642	0.000646932	0.00109194	0.000554424	0.000649374	0.0037184	0.00650404
0.00160473	0.00349507	0.000641849	0.00107375	0.000555541	0.000649814	0.00373452	0.00650794
0.0016001	0.00349263	0.000642445	0.00108568	0.000559065	0.000646294	0.00373582	0.00638078
0.00159088	0.00349334	0.000637398	0.00108704	0.000561138	0.000645402	0.00378745	0.00637131
0.0015263	0.00349556	0.000642914	0.00105921	0.000567179	0.000649459	0.0036075	0.00642875
0.00149894	0.00365867	0.000645858	0.00105914	0.000569763	0.000650332	0.00359638	0.00629437
0.00153977	0.00372623	0.000651611	0.00105644	0.000571844	0.000645113	0.00353546	0.00631623
0.00154685	0.00373117	0.000651236	0.00109988	0.000576615	0.000637191	0.00360201	0.00665453
0.00157792	0.00377674	0.000652521	0.00109071	0.000581679	0.000640862	0.00357638	0.00659711
0.00159755	0.00379097	0.000652	0.00109715	0.00058134	0.000632824	0.00359332	0.00645369
0.00161849	0.00379729	0.000661765	0.0010788	0.000576154	0.000639807	0.00355187	0.00647285
0.00156201	0.00364056	0.000660486	0.00108573	0.000565772	0.000639081	0.00352281	0.00623546
0.00149943	0.00330026	0.00066762	0.00107926	0.00056303	0.000634414	0.00354393	0.00619308
0.00148556	0.00316715	0.000671987	0.00106364	0.000565716	0.000639292	0.00352809	0.00604932
0.0014888	0.00310241	0.000675984	0.00106048	0.000571315	0.000645162	0.00343145	0.00604442
0.00145158	0.00307565	0.000672625	0.00108131	0.000568643	0.00064348	0.00343502	0.00600503
0.00141325	0.00301862	0.000668784	0.001096	0.000573195	0.000641242	0.00347011	0.00607727
0.00139722	0.00303703	0.000672536	0.00109845	0.000575813	0.000637382	0.00343484	0.00595568
0.00140345	0.00292299	0.000672693	0.00110091	0.00056736	0.000624869	0.00333163	0.00611936
0.00140412	0.00289255	0.000667578	0.00109847	0.000571673	0.000616633	0.00333054	0.00616573
0.00139274	0.00282929	0.000662901	0.00112084	0.000577597	0.000612097	0.003346	0.00618796
0.00139536	0.00282937	0.000666397	0.00113362	0.00057668	0.00062967	0.00342602	0.00641097
0.00133524	0.00280971	0.000663102	0.0011354	0.000576057	0.000630652	0.00347168	0.00651273
0.00137193	0.00280289	0.000666329	0.00116685	0.000576963	0.000637307	0.00349055	0.00649446
0.00136668	0.00278433	0.000664037	0.00118643	0.000578006	0.00063434	0.00350775	0.00642067
0.00133235	0.00262111	0.000672347	0.00117404	0.000578583	0.000635708	0.00345554	0.00635149
0.00131467	0.00256258	0.000673515	0.001175	0.000580509	0.000631443	0.00342039	0.00651264
0.00131543	0.00250785	0.000687863	0.00117774	0.000567125	0.000626072	0.00356553	0.00656183
0.00130089	0.0024642	0.000699097	0.00120732	0.000559251	0.000631235	0.00362467	0.00659346
0.00129724	0.00246371	0.00069628	0.00119163	0.000561879	0.00062475	0.00366062	0.00659142
0.00130213	0.00247355	0.000701847	0.00119564	0.000562809	0.000627484	0.00373087	0.00671369
0.00130554	0.00246351	0.000695397	0.00122394	0.000563369	0.000623489	0.00388154	0.00684751
0.00130459	0.00245697	0.000698243	0.00124	0.000562955	0.000623728	0.00401764	0.00698201
0.00130096	0.00244769	0.000698146	0.00125516	0.000565383	0.000630558	0.00406952	0.00704763
0.00129432	0.00244807	0.000696647	0.0012301	0.000562028	0.000623147	0.00395494	0.00707967
0.00134593	0.00245148	0.000691734	0.00124074	0.000547915	0.000620361	0.0039411	0.0071015
0.00136345	0.00241417	0.000684888	0.00122931	0.000549491	0.000608175	0.00386164	0.00679064
0.00136292	0.00237904	0.000686467	0.00123297	0.000549802	0.000612423	0.00378969	0.00671183
0.00129921	0.00223832	0.000682228	0.00122857	0.000536687	0.000618498	0.00384224	0.00670385
0.00120963	0.00179219	0.000685083	0.00122588	0.000538333	0.000612242	0.00378913	0.00656289
0.00134833	0.00174314	0.000676704	0.0012174	0.000536056	0.0006075	0.00365757	0.00659998
0.00140306	0.00173051	0.000679648	0.00124168	0.000542277	0.000605189	0.0038418	0.00661628
0.00141815	0.00173469	0.00068243	0.00126354	0.000542472	0.000617941	0.00393649	0.0066721
0.00144556	0.00172911	0.000685387	0.00126069	0.000541231	0.000621087	0.00386663	0.00666724
0.00145804	0.00172881	0.000687489	0.00126031	0.000543794	0.000618104	0.00390169	0.00662202
0.00146118	0.0015498	0.000683917	0.00130063	0.000542646	0.000618062	0.00399557	0.00659275
0.00142025	0.00147367	0.000675566	0.00133552	0.000541773	0.000620022	0.00404291	0.00654652
0.00141092	0.00147056	0.000676598	0.0012882	0.000541291	0.000620302	0.00391488	0.00620499
0.001376	0.00143186	0.000669424	0.00130615	0.000541885	0.00061728	0.00392157	0.0059787
0.00136129	0.00141809	0.000673562	0.00130042	0.000544839	0.000617329	0.00391593	0.00599428
0.00132591	0.00140038	0.000653774	0.00130904	0.000549302	0.000615909	0.003936	0.0060508
0.00125229	0.00139616	0.000654009	0.00131314	0.000557706	0.000618548	0.00395649	0.00614125
0.00127625	0.00144138	0.000655081	0.00134902	0.000561226	0.000619392	0.00395924	0.00622622
0.00130017	0.00161034	0.000658092	0.00137823	0.00056244	0.000614012	0.00402536	0.00627106
0.00130392	0.00163947	0.000659284	0.00140761	0.000563645	0.000604857	0.00411914	0.0061117
0.00140632	0.00164093	0.000665342	0.00136821	0.000572088	0.000606109	0.00408113	0.00626301
0.00147693	0.00164595	0.000665296	0.00135214	0.000570435	0.000606237	0.00412782	0.00626631
0.00153435	0.00148798	0.000664561	0.00137353	0.000569178	0.000604802	0.00429047	0.0064439
0.00154087	0.0011112	0.000664532	0.00136854	0.00057094	0.000606177	0.00434669	0.00623254
0.00157512	0.00101524	0.000660061	0.00137628	0.00056294	0.000603685	0.00435644	0.00610496
0.00154171	0.000992602	0.000660264	0.00135867	0.000555652	0.000608505	0.00429572	0.00599148
0.00157796	0.000978547	0.000654583	0.00135471	0.000557678	0.000594169	0.00423509	0.00586792
0.00155383	0.000984298	0.000656951	0.00136864	0.000564319	0.000595367	0.00417465	0.00582903
0.00145884	0.000985792	0.000649612	0.00133863	0.000566899	0.000590653	0.00414591	0.00602422
0.00144601	0.000990481	0.000655471	0.00132479	0.000565775	0.000593591	0.00416674	0.00608477
0.00144451	0.000998945	0.000658165	0.00137803	0.000567023	0.000593319	0.00431084	0.00601278
0.00144219	0.00104544	0.000662216	0.0013937	0.000571175	0.000603074	0.00449327	0.00581784
0.00144608	0.0011726	0.000652852	0.00138634	0.000565677	0.000603041	0.00439618	0.00590639
0.00145139	0.00120947	0.000654167	0.0013712	0.000562396	0.000596903	0.00433638	0.00601658
0.00150131	0.00120859	0.00065261	0.00137865	0.000565372	0.000593207	0.00433826	0.00608462
0.00153258	0.00120075	0.000648604	0.00135536	0.000568478	0.000583457	0.00425305	0.00601563
0.00162833	0.00119762	0.000652471	0.00134014	0.000568333	0.000583423	0.00437608	0.00588541
0.00165343	0.00118985	0.000646597	0.00134887	0.00057376	0.000579729	0.00438581	0.00577013
0.001657	0.00120422	0.000642629	0.00136313	0.000576859	0.000571686	0.00436158	0.00569468
0.00165908	0.00120423	0.000645583	0.00137413	0.000578545	0.000579326	0.00435506	0.00565415
0.00166591	0.00121033	0.000652691	0.00135921	0.000581978	0.000585893	0.00435562	0.00565316
0.00169103	0.00120931	0.000651691	0.00136758	0.000583692	0.000581856	0.00439849	0.00551839
0.0016881	0.00120841	0.000653765	0.0014177	0.000584631	0.000583778	0.00451494	0.00558203
0.00375204	0.00959769	0.000774663	0.00157121	0.000734773	0.00271782	0.0026715	0.00305474
0.00377699	0.0105431	0.000775418	0.00159098	0.000722745	0.00281655	0.00274988	0.00310779
0.00384159	0.0110455	0.000743035	0.00160361	0.000616627	0.00283501	0.00277529	0.00327822
0.00384758	0.011213	0.000731354	0.0015979	0.000595991	0.00285745	0.00279472	0.00335383
0.00399589	0.0114812	0.000708645	0.00160381	0.000585149	0.0029117	0.00281528	0.00338501
0.00412739	0.0118421	0.000687799	0.00161189	0.000582586	0.00320046	0.00287243	0.00346676
0.00416502	0.0123379	0.000680357	0.00160922	0.000582006	0.00331301	0.00286654	0.00369
0.00417681	0.0127442	0.000673077	0.00160204	0.000578637	0.00337929	0.00286798	0.00369762
0.00442276	0.0143817	0.000681198	0.00159992	0.000580397	0.00341916	0.00287498	0.00364489
0.00521621	0.015222	0.000676105	0.00160626	0.000579151	0.00352927	0.00288145	0.00362995
0.00540699	0.0152688	0.000673315	0.0016031	0.000580512	0.00364704	0.00286312	0.00361075
0.00533803	0.0149007	0.000674858	0.00154632	0.000591558	0.00365762	0.00284167	0.00358839
0.00522048	0.0143797	0.000682465	0.00136994	0.000577489	0.00339588	0.00279131	0.00351593
0.00514334	0.0145913	0.000677117	0.0012063	0.000577513	0.00331583	0.00267278	0.00347146
0.00513161	0.0144585	0.000685642	0.00114552	0.000565506	0.00320705	0.002605	0.003315
0.00513253	0.013903	0.00069137	0.0011023	0.000561846	0.00326328	0.00247063	0.00326819
0.00513541	0.013857	0.00068881	0.00108682	0.000561856	0.00346211	0.00228233	0.00318732
0.00513073	0.0138994	0.000686938	0.00107449	0.00055656	0.00349	0.0022606	0.00290198
0.0048356	0.0141945	0.00068622	0.00110099	0.000561814	0.00343326	0.00223073	0.00290381
0.00472283	0.0143157	0.000696613	0.00112264	0.000561833	0.00350034	0.00216334	0.00268667
0.00471703	0.0135164	0.000688423	0.00111572	0.000573788	0.00350082	0.00211858	0.00264044
0.00474848	0.0128126	0.000673586	0.00107574	0.000577262	0.00339209	0.00208385	0.00246452
0.00467297	0.0125867	0.000670879	0.00103584	0.000581905	0.00320425	0.0018909	0.00237337
0.00475426	0.0125396	0.000681825	0.00100499	0.000581002	0.00317161	0.00176068	0.00233211
0.00471473	0.0125352	0.000684681	0.00097367	0.000583128	0.00307297	0.00166004	0.00232776
0.00411565	0.0130129	0.000691895	0.000948324	0.000574811	0.00283679	0.00153699	0.00217844
0.00382738	0.0141532	0.000706467	0.000915895	0.000568684	0.00272003	0.00126534	0.00200028
0.00401504	0.0145781	0.000706154	0.000903482	0.000583416	0.00254029	0.0012289	0.00194698
0.00403919	0.0143435	0.000702009	0.000882923	0.00058439	0.00255228	0.00114343	0.00188569
0.00390286	0.0139833	0.000705999	0.000871742	0.00057822	0.0025382	0.0011293	0.0017885
0.00375679	0.0136156	0.000702808	0.000865224	0.000578972	0.00256424	0.00109527	0.00175004
0.00374186	0.0136782	0.000695692	0.000827331	0.000581616	0.00253715	0.00100608	0.00168157
0.00374669	0.0127598	0.000686529	0.000788715	0.000582896	0.00246512	0.000886682	0.00169768
0.00374759	0.012257	0.000692696	0.000758439	0.00058108	0.00242986	0.000867465	0.00157068
0.00376979	0.0129156	0.00069521	0.00075252	0.000583841	0.00245054	0.000847436	0.001388
0.00382365	0.0129532	0.000706632	0.000756625	0.00058074	0.00247501	0.000832195	0.00136375
0.00402906	0.0126145	0.000707124	0.000747215	0.000585168	0.00224643	0.000760261	0.00127713
0.00404854	0.0124862	0.000689132	0.000746739	0.000583596	0.00213603	0.000756016	0.00108502
0.00405846	0.0128784	0.000683783	0.000752947	0.00057807	0.00203248	0.000755395	0.0010447
0.0040511	0.0128141	0.000675774	0.000754041	0.000565576	0.00203162	0.000745633	0.00105256
0.00334733	0.0116472	0.000671958	0.000755844	0.000567914	0.00191766	0.000737317	0.00106444
0.00390355	0.0114906	0.000674938	0.000751555	0.000569122	0.0018478	0.000726052	0.00106885
0.00415748	0.0111307	0.000672206	0.000728407	0.000562278	0.00177186	0.000727268	0.00107222
0.00434042	0.0114733	0.000666304	0.000722153	0.000565953	0.0017971	0.000681773	0.0010938
0.00407899	0.01133	0.000660741	0.000718037	0.00056625	0.00178125	0.00067578	0.00112921
0.0039328	0.0112835	0.000660965	0.000709212	0.000563506	0.00176382	0.000668941	0.00113699
0.00403971	0.0116885	0.00065859	0.000705154	0.000569043	0.00177544	0.000667719	0.0011302
0.00476009	0.0126018	0.000656521	0.000697265	0.000567502	0.00155327	0.000672883	0.00113208
0.00495975	0.0122771	0.000661368	0.000675608	0.000567263	0.00143435	0.000672722	0.00112805
0.00519957	0.0119341	0.000667667	0.000665235	0.000568082	0.0014264	0.000669312	0.00105299
0.00532565	0.0115103	0.000660591	0.000604444	0.000562171	0.00137457	0.00065618	0.00101584
0.00544962	0.0121603	0.000660129	0.000602028	0.000561184	0.0013244	0.000661685	0.000998206
0.00551032	0.012192	0.000663016	0.000600756	0.000561206	0.00130533	0.00065397	0.000998755
0.00550027	0.0121772	0.000659643	0.000604677	0.000557286	0.00122253	0.000660744	0.00102005
0.00569704	0.012385	0.000659711	0.000599677	0.000559404	0.0012158	0.000671229	0.000980349
0.00634238	0.0138003	0.000674158	0.000605873	0.000579605	0.0012348	0.000675023	0.000980746
0.0065077	0.0138583	0.00068106	0.000606452	0.000589532	0.00127082	0.00080019	0.000942017
0.00647543	0.0130016	0.000671831	0.000591554	0.000583872	0.00128803	0.000818358	0.000925641
0.00659075	0.012116	0.000670038	0.000583589	0.000593111	0.00127943	0.000861487	0.000935424
0.00650282	0.0120927	0.000683912	0.000587634	0.000601132	0.00121399	0.000947894	0.000985971
0.00647384	0.0120932	0.000696424	0.000585365	0.000635742	0.00117465	0.00101318	0.0010269
0.00652776	0.0120996	0.000694379	0.00059252	0.000638773	0.00118469	0.00101135	0.0011051
0.00649117	0.0117266	0.000700288	0.000611824	0.000653208	0.00116024	0.00100868	0.00112307
0.00639592	0.011841	0.00071024	0.000604028	0.00067565	0.00111555	0.001022	0.00109641
0.00639045	0.0115731	0.00071048	0.000603338	0.000699054	0.00109731	0.00103731	0.00114104
0.00637041	0.011541	0.000740036	0.000606476	0.000783217	0.00113138	0.00116392	0.00118549
0.00630011	0.0111604	0.000764644	0.000620336	0.000812154	0.00112313	0.00122883	0.00119474
0.00605728	0.011446	0.000788848	0.00062452	0.000850648	0.00111281	0.00129781	0.00119894
0.00582374	0.0116349	0.000802816	0.000615372	0.000854212	0.00109143	0.00136792	0.00120366
0.00577692	0.0113062	0.000818519	0.000614771	0.000859946	0.00105017	0.0014504	0.00119922
0.00570659	0.0103672	0.000825676	0.000623379	0.000867911	0.00102065	0.00149064	0.00120958
0.00562092	0.00958051	0.000830496	0.00062608	0.000872433	0.00101328	0.00151467	0.00121468
0.00530561	0.00934555	0.000827031	0.000635401	0.000896192	0.00101567	0.00152542	0.00122068
0.00440567	0.00936154	0.000847303	0.000632455	0.00090073	0.00101645	0.00151671	0.0012184
0.00427306	0.00933357	0.000850402	0.000636091	0.000899062	0.000965186	0.00153129	0.00120222
0.00408764	0.00892821	0.000855764	0.000649926	0.00090481	0.000942807	0.00154006	0.00116555
0.00405336	0.00878503	0.00086678	0.000680748	0.000967645	0.000923095	0.00155232	0.0011628
0.0040046	0.00918609	0.000872719	0.000693614	0.000983331	0.000926524	0.00155136	0.00116489
0.00331479	0.0081065	0.000868843	0.000692638	0.00097677	0.00091482	0.0015458	0.001171
0.00308077	0.00791747	0.000858451	0.000697001	0.000982573	0.000933223	0.00154417	0.00116131
0.00280623	0.00796808	0.000851427	0.000696059	0.000980496	0.000933566	0.00154164	0.00115459
0.00271649	0.0079518	0.000855667	0.000698268	0.000987154	0.00095183	0.00154339	0.00114515
0.00253979	0.00719911	0.000847182	0.00071851	0.000978138	0.000974238	0.00155565	0.00114668
0.00243035	0.00681233	0.000848772	0.000739405	0.000977027	0.000999414	0.00157852	0.00115035
0.00236922	0.00669353	0.000849795	0.000737963	0.000979764	0.000999533	0.00159265	0.00112973
0.00217191	0.00650743	0.000859335	0.00074041	0.000978278	0.00100468	0.00159605	0.00112356
0.00175311	0.00553455	0.000833202	0.000753151	0.000952374	0.00101056	0.00158418	0.00110242
0.00111571	0.00490824	0.000832682	0.000757097	0.000954646	0.000941913	0.00155357	0.00109026
0.00106225	0.00452248	0.000824507	0.00077112	0.000974952	0.000915678	0.00151697	0.00109958
0.000916317	0.00449077	0.000833143	0.000793042	0.000976222	0.000947814	0.00148081	0.00109701
0.00079972	0.00434624	0.000830866	0.00082546	0.000960778	0.000961443	0.00142346	0.00105668
0.000795517	0.00430365	0.000809136	0.0008215	0.00093446	0.000957951	0.00136846	0.00101313
0.000716117	0.00431426	0.000812285	0.000865736	0.000941047	0.00094259	0.00135827	0.000995594
0.000675911	0.00432225	0.000815899	0.000888818	0.000982274	0.000944941	0.00136069	0.000972606
0.000660699	0.00415123	0.000810329	0.000878383	0.000969557	0.000958776	0.00137716	0.000972547
0.000628933	0.00368341	0.000804628	0.000893197	0.000957987	0.000959572	0.00135954	0.000953215
0.000599141	0.00360056	0.000794633	0.000903075	0.000901171	0.000945954	0.00127582	0.00093349
0.000582664	0.00302838	0.000790204	0.00094687	0.000856641	0.000888937	0.00118416	0.000925322
0.000599007	0.00288647	0.000763989	0.000971833	0.000866637	0.000891658	0.00110934	0.000925851
0.000589281	0.00232379	0.00076417	0.000975715	0.000896624	0.000901933	0.00105221	0.000924551
0.00104058	0.00272371	0.000495676	0.000599241	0.000286514	0.000330357	0.00393627	0.00382812
0.001079	0.00284066	0.000503748	0.000624575	0.000301892	0.000355508	0.00391933	0.00402003
0.00112021	0.00286474	0.000518222	0.00064396	0.000318132	0.000371118	0.00387762	0.00413566
0.00119235	0.00286285	0.00052833	0.000672072	0.00033175	0.000387307	0.00387468	0.00424648
0.00127482	0.00283569	0.000535592	0.000689967	0.000340858	0.000402617	0.00381884	0.00428834
0.00130495	0.00288003	0.000546308	0.000723505	0.000354936	0.000418628	0.0037719	0.00450852
0.00135411	0.00300188	0.000555312	0.000749464	0.000367938	0.000437771	0.00376989	0.00472174
0.00135485	0.00303458	0.000556779	0.000769612	0.000397727	0.000456741	0.0037304	0.00492938
0.00138537	0.00304457	0.000563805	0.000800639	0.00042503	0.000474719	0.00369885	0.00510508
0.0014105	0.00301751	0.000569358	0.000856244	0.000433289	0.000499197	0.00361901	0.00517416
0.00141272	0.00298545	0.000582639	0.000889695	0.000446725	0.000521609	0.00353901	0.00537391
0.00141677	0.00297132	0.000586371	0.000924244	0.000462784	0.000540668	0.00348484	0.00545077
0.00141905	0.00294514	0.000598072	0.000940909	0.000476148	0.000560319	0.00347213	0.0054873
0.00142418	0.002911	0.000609216	0.00100399	0.000496774	0.000578097	0.0035666	0.00551237
0.00143179	0.00290469	0.000623803	0.00102977	0.000511654	0.00061222	0.00356458	0.00599787
0.00143596	0.00292921	0.000635325	0.00105255	0.000528741	0.000625166	0.00361482	0.00624943
0.00154944	0.00334083	0.000642442	0.00108829	0.000546332	0.000640212	0.00358184	0.00637633
0.00159524	0.00351818	0.00064629	0.00108336	0.000551836	0.000647368	0.00367161	0.00647942
0.00160464	0.00349987	0.000642905	0.00107838	0.000553054	0.000651147	0.00373061	0.00653976
0.00160075	0.003495	0.000641738	0.00109041	0.000558252	0.00064865	0.00373189	0.00636089
0.00158107	0.00349171	0.00063652	0.00107715	0.00056058	0.000642341	0.00367974	0.00643729
0.0015087	0.00361878	0.000645503	0.00105732	0.000568158	0.000650176	0.00362051	0.00627341
0.0015359	0.00372868	0.000652873	0.00106049	0.000571675	0.000645246	0.00353962	0.0063107
0.00154749	0.00374375	0.000652109	0.00109704	0.000578703	0.000634988	0.00360041	0.00664866
0.00156459	0.00378684	0.000652925	0.00108885	0.000582515	0.000634042	0.0035865	0.00654902
0.0016236	0.00380094	0.000661528	0.00108114	0.000578412	0.00064103	0.00358156	0.00645821
0.00156004	0.0036331	0.000660533	0.00108569	0.0005656	0.000639072	0.00352319	0.00623515
0.00149624	0.00326358	0.00066893	0.00107348	0.00055985	0.000636423	0.00355661	0.00615799
0.00148412	0.00311723	0.000673598	0.00105626	0.000568572	0.000642802	0.00346093	0.00611524
0.0014564	0.0030825	0.000676335	0.0010826	0.000570961	0.000644319	0.00343661	0.00600279
0.00141139	0.00301702	0.000666558	0.00109917	0.000573708	0.00064186	0.00346794	0.00608122
0.00140042	0.00312573	0.000668758	0.00109288	0.000573098	0.000632919	0.00337563	0.00604566
0.00141166	0.00290771	0.000674278	0.00110165	0.000563409	0.000621275	0.00333346	0.0061901
0.00139572	0.0028363	0.00066505	0.00111243	0.000578766	0.000611673	0.00334949	0.0061586
0.00139551	0.0028301	0.000663873	0.00113316	0.000577067	0.000629995	0.00343363	0.00646285
0.00136842	0.00280614	0.000665373	0.00114855	0.00057797	0.00063708	0.00344476	0.00651362
0.00137244	0.00280202	0.000667953	0.00118534	0.000583096	0.000634902	0.00352052	0.00644971
0.00133414	0.00262183	0.000672244	0.00117442	0.000578957	0.000635746	0.00345699	0.00635785
0.00131411	0.00255226	0.000674915	0.00117434	0.000581026	0.000630022	0.0034312	0.00650624
0.00131637	0.0024881	0.000693424	0.00119376	0.000556417	0.000628721	0.0035797	0.00657909
0.00129008	0.00246403	0.000697882	0.00119532	0.000565225	0.000626088	0.00365344	0.0065903
0.00130008	0.00247341	0.000700405	0.00119709	0.000562676	0.000627526	0.00373684	0.00671786
0.00130446	0.00245952	0.000696672	0.001218	0.000564642	0.000618032	0.00390786	0.00693057
0.00130043	0.00244738	0.000698593	0.00125436	0.000565155	0.000625472	0.00405432	0.0070384
0.00129445	0.0024472	0.000694141	0.00123194	0.000562862	0.000624234	0.00394176	0.0070802
0.00134547	0.00245203	0.000694078	0.00123677	0.000548039	0.000621524	0.00394259	0.00711636
0.00136452	0.0023905	0.000685721	0.00123582	0.000551757	0.000610548	0.00379438	0.00672394
0.00133532	0.00229708	0.000681271	0.00123383	0.000537971	0.000619519	0.00379819	0.00669162
0.0012086	0.00180466	0.000684854	0.00122738	0.000538327	0.000612422	0.00379181	0.00656088
0.00135751	0.00174113	0.000675345	0.0012191	0.000534727	0.000606042	0.00365862	0.00659044
0.00140381	0.00173203	0.000681366	0.00127352	0.000541702	0.000610114	0.00394232	0.00665146
0.00144559	0.00173256	0.000685518	0.00125797	0.00054135	0.000622043	0.00389682	0.00670377
0.00145778	0.00172676	0.000687987	0.00126046	0.000543826	0.000617478	0.00390324	0.00662103
0.00145734	0.00152272	0.000681452	0.00131426	0.000539994	0.000617434	0.00403261	0.0065782
0.0014141	0.00147235	0.000674184	0.00132105	0.000545491	0.000615003	0.00396973	0.00646782
0.00138662	0.00143874	0.000669809	0.00130369	0.000541411	0.000617736	0.00391293	0.00601112
0.00136515	0.00141684	0.000673098	0.00129799	0.000543905	0.00061664	0.0039134	0.00601468
0.00129598	0.00140072	0.000656524	0.00130946	0.000548788	0.000618202	0.00395012	0.00604192
0.00126636	0.00140877	0.000655554	0.00134496	0.000561861	0.000621278	0.00396817	0.00620343
0.0012996	0.0015971	0.000659221	0.00137793	0.000563455	0.000613586	0.00402457	0.00628954
0.00130951	0.00164194	0.000659106	0.00140303	0.000566514	0.000603566	0.00411735	0.00613566
0.00146367	0.00163731	0.000669191	0.00134592	0.000568399	0.000608675	0.00411151	0.00626439
0.00152132	0.00155155	0.000666344	0.00136497	0.000568234	0.000605789	0.00422879	0.00644309
0.00154083	0.00111161	0.000664637	0.00136858	0.000570908	0.000606243	0.00434574	0.00623472
0.00156838	0.00100363	0.000660651	0.00137028	0.000557562	0.00060273	0.00434949	0.00603838
0.00155313	0.00099203	0.000657216	0.00135216	0.000556416	0.000597487	0.00427627	0.00597887
0.00158266	0.000984416	0.000656134	0.00136579	0.000564396	0.000593166	0.00415693	0.00581742
0.00145871	0.000985925	0.000649756	0.00133832	0.000568103	0.000589002	0.00414148	0.00604341
0.00144642	0.000989959	0.000664505	0.00135054	0.000565614	0.000593086	0.00419858	0.00609325
0.00143966	0.000999031	0.00065782	0.00139388	0.000570407	0.000597555	0.00445316	0.00590262
0.00144599	0.00116344	0.000653754	0.00138818	0.000565517	0.000602867	0.00442273	0.00588813
0.0014612	0.00121287	0.000651417	0.00137094	0.000563363	0.000594297	0.00433867	0.00602202
0.00152028	0.00120283	0.000652959	0.00137236	0.00056951	0.000589637	0.00428402	0.00605674
0.00161357	0.00119838	0.000652396	0.00134765	0.000568723	0.000584423	0.00432002	0.00592741
0.00165284	0.00118951	0.000645797	0.00134732	0.000572878	0.000580386	0.00438892	0.00577202
0.00165884	0.00120533	0.000644285	0.00136975	0.0005759	0.000571397	0.00438586	0.00568316
0.00165648	0.00120283	0.00065012	0.00136396	0.000582828	0.000584945	0.00435095	0.00566053
0.00168851	0.00121407	0.000650774	0.00136457	0.000583463	0.000583167	0.00438974	0.00552956
0.00168823	0.00120888	0.000655042	0.00141777	0.000585403	0.000584036	0.00451733	0.00558526
0.00168506	0.00118094	0.000663408	0.00142766	0.000594862	0.000578564	0.00447199	0.00565701
0.00163097	0.00115546	0.000660875	0.00142468	0.00059227	0.00058035	0.00451655	0.00588759
0.00150469	0.00115973	0.00066501	0.00144535	0.000605726	0.000579154	0.00445394	0.0058892
0.00148651	0.00117523	0.000664372	0.00140777	0.000604024	0.00056655	0.0042361	0.0058143
0.00144588	0.00117318	0.000664827	0.00140324	0.000593723	0.000567559	0.00426708	0.00580808
0.0014422	0.00119737	0.000664748	0.00138428	0.000589823	0.000572116	0.00415365	0.00599917
0.00144471	0.00124992	0.000675873	0.00132835	0.000582528	0.000577779	0.00413207	0.0060896
0.00142873	0.00127656	0.000680741	0.0013187	0.000580487	0.000587554	0.00415899	0.00598766
0.00144225	0.00126879	0.000679809	0.00130811	0.000577609	0.000582687	0.00423032	0.0059841
0.00145356	0.00126739	0.000683218	0.00131578	0.000573226	0.000581759	0.0042263	0.00584829
0.00150782	0.00125702	0.000676299	0.00132258	0.000565899	0.000574326	0.00427528	0.00581713
0.0015035	0.00114738	0.000671829	0.0012983	0.000566649	0.000574812	0.00423647	0.00572202
0.00149343	0.0010299	0.000676986	0.001283	0.000559787	0.000577601	0.00415276	0.00565632
0.00155025	0.00113261	0.000676454	0.00124713	0.0005517	0.000582655	0.00408634	0.00559643
0.0014849	0.0013455	0.000669548	0.00123595	0.000556151	0.000583734	0.00398285	0.00550616
0.00143928	0.00135434	0.000667162	0.00121135	0.000552392	0.000581669	0.00382942	0.00531292
0.00144281	0.00134761	0.000668906	0.00122928	0.000554731	0.000591033	0.00385623	0.00531011
0.00140766	0.00133237	0.000674702	0.00123304	0.000550843	0.000586695	0.0038772	0.00546182
0.00136529	0.00131906	0.00067579	0.00123036	0.000547636	0.00058342	0.00394547	0.00529479
0.00140363	0.00131325	0.000678739	0.00121514	0.000540347	0.000583315	0.00391748	0.00503615
0.0014896	0.00130512	0.000686476	0.00121808	0.000533108	0.000579506	0.00401389	0.00490083
0.00367588	0.0100072	0.000681286	0.00142163	0.000620685	0.00209471	0.00270269	0.00299811
0.00384264	0.0105123	0.000678136	0.00141851	0.000611001	0.00220586	0.00271653	0.00309052
0.00390607	0.0110104	0.000672841	0.0014184	0.000590316	0.00227445	0.00273418	0.0031374
0.00390892	0.0113501	0.000654302	0.00130238	0.0005833	0.00232477	0.00271196	0.00315458
0.00391116	0.0114346	0.000649823	0.00129061	0.000589187	0.0023562	0.00270028	0.00321715
0.00391503	0.0115102	0.000653062	0.00129398	0.000590609	0.0023735	0.00271387	0.00334455
0.00391517	0.011507	0.000648203	0.00129754	0.000588997	0.00236728	0.00273835	0.00337403
0.00403436	0.0113049	0.000646629	0.0013	0.000588889	0.0023926	0.00276371	0.00341898
0.00391665	0.0115592	0.000651408	0.00132058	0.000593337	0.00249961	0.0028385	0.0034426
0.00378651	0.0115881	0.000651122	0.00132168	0.000596748	0.00256041	0.00285854	0.00343751
0.00381376	0.0116022	0.000649263	0.0013157	0.000595385	0.00257489	0.00285975	0.00345065
0.00390465	0.0113678	0.000648924	0.00131225	0.000599309	0.0025781	0.0028547	0.00343841
0.00397329	0.0103409	0.000647577	0.00132913	0.000602995	0.00261831	0.0026711	0.00342156
0.00410092	0.00975494	0.000652318	0.00133591	0.000605201	0.00265991	0.00257606	0.00332487
0.00441828	0.00967593	0.000655062	0.00131875	0.000590659	0.00267309	0.00249622	0.00328682
0.00483083	0.00996837	0.000657655	0.00124547	0.000590628	0.00269818	0.00237941	0.00321594
0.00435292	0.0101333	0.00065853	0.00118972	0.00058859	0.00269063	0.00229872	0.0030761
0.00397132	0.0103062	0.000656029	0.00115469	0.000584262	0.00261838	0.00218802	0.00302809
0.00393719	0.0108844	0.000657214	0.00109089	0.00057919	0.00253449	0.00214423	0.00305313
0.00393758	0.0111585	0.000661801	0.00105966	0.00057992	0.00255008	0.00210827	0.00306422
0.00394173	0.0112168	0.000652289	0.0010396	0.000578711	0.00258941	0.0020239	0.00302791
0.00395973	0.0107409	0.000639313	0.000969716	0.000579244	0.00252375	0.00196104	0.00264598
0.00403138	0.0106554	0.000634011	0.000946894	0.000573351	0.00247177	0.00188816	0.00253742
0.00367331	0.0105962	0.000638042	0.000948487	0.000572043	0.00248193	0.00184879	0.00247121
0.00373645	0.0106322	0.000642029	0.000941589	0.000571132	0.00253458	0.00178213	0.00237246
0.00375902	0.0106791	0.000635297	0.000895829	0.000563429	0.00255813	0.00174922	0.00234314
0.00376558	0.0107398	0.000640204	0.000875786	0.000566877	0.00248806	0.00171727	0.00232803
0.00376495	0.0107566	0.00064743	0.000875811	0.000567019	0.00235082	0.00170288	0.00230557
0.0037266	0.0108749	0.000645545	0.00087964	0.000565014	0.00230978	0.00169072	0.00229021
0.00371086	0.0116046	0.000644597	0.000874541	0.000567063	0.00227866	0.00166465	0.00229492
0.00378209	0.0116429	0.000647504	0.000850963	0.00057069	0.00225489	0.00152317	0.00218779
0.00376058	0.0115232	0.000651468	0.000843281	0.000575942	0.00216768	0.00134672	0.00196336
0.00367658	0.0116249	0.000645708	0.000825015	0.000571675	0.00211815	0.00122016	0.00181265
0.00359191	0.0116585	0.000639142	0.000795269	0.000574567	0.00204649	0.00102328	0.00171179
0.00358796	0.012082	0.000639736	0.000710696	0.000574055	0.00200617	0.000876287	0.00168795
0.00373895	0.0122047	0.000640543	0.000688377	0.000573627	0.00199525	0.000837778	0.00163772
0.00406189	0.012338	0.000634656	0.000673503	0.000586511	0.00194203	0.000837095	0.00161006
0.00406747	0.0124123	0.000641904	0.00068338	0.00058674	0.00189288	0.000831873	0.00160351
0.00405	0.0124446	0.000646511	0.000673243	0.000589703	0.00183487	0.000819043	0.00159325
0.00403402	0.0125889	0.000650669	0.000669889	0.000582508	0.00163806	0.000814955	0.00150722
0.00393587	0.0126887	0.00065721	0.00066756	0.00058427	0.00153952	0.000795612	0.00146953
0.00388257	0.0124328	0.000651416	0.000669072	0.000589731	0.00146624	0.000780732	0.00152003
0.0038823	0.0121079	0.000657448	0.000664545	0.000582932	0.00141171	0.00078475	0.00155651
0.00403214	0.0121761	0.000656995	0.000664726	0.000575744	0.00137136	0.000787032	0.00149625
0.0040712	0.012315	0.0006606	0.000655111	0.00056994	0.00139182	0.000760793	0.00136605
0.00406976	0.0123505	0.000675025	0.000655417	0.000578884	0.00146771	0.000756556	0.00138185
0.00390575	0.0123199	0.000680016	0.000660828	0.00059008	0.00147201	0.000777077	0.00139094
0.00384303	0.0123836	0.000674682	0.000629958	0.000588768	0.00137188	0.000741103	0.0013752
0.00387254	0.012485	0.000682607	0.000629361	0.000592374	0.00132352	0.000731427	0.00137646
0.00385714	0.0126154	0.000676206	0.000637142	0.000629713	0.00131548	0.000751142	0.00133799
0.00372225	0.012948	0.000675008	0.000642043	0.00066235	0.00132513	0.000753655	0.00133128
0.00349377	0.0129811	0.000681609	0.000613962	0.00066052	0.00130265	0.000755331	0.0013349
0.00331891	0.0131935	0.000701175	0.000599843	0.000681282	0.00126208	0.000740593	0.00133693
0.00294996	0.0131366	0.000708647	0.000588673	0.000712393	0.00125328	0.00075703	0.00134935
0.00235113	0.0127552	0.000701159	0.000588185	0.000715768	0.00123702	0.00077373	0.00134806
0.00226126	0.0125318	0.000696577	0.000590157	0.000721987	0.00122539	0.000775179	0.00135724
0.00230924	0.012267	0.000700739	0.000586879	0.000727478	0.00122369	0.00076857	0.00137741
0.00242598	0.0116659	0.000706238	0.000580305	0.00073222	0.0012341	0.000771822	0.00137068
0.00242342	0.01139	0.000725117	0.000587129	0.00074836	0.0011576	0.000780893	0.00137593
0.00242281	0.0113443	0.000734531	0.000585849	0.000778583	0.00113114	0.000779329	0.0014223
0.00241099	0.0107762	0.000754058	0.000588162	0.000795785	0.00111687	0.000796748	0.00144897
0.00233819	0.0106499	0.000759125	0.000594431	0.000803904	0.00111598	0.000796412	0.00147816
0.00225445	0.0106865	0.000791332	0.000589939	0.000822264	0.00111605	0.000795254	0.00147949
0.00203902	0.0106586	0.000793247	0.000582527	0.000820235	0.00108862	0.000787741	0.00145231
0.00200301	0.0106433	0.000808697	0.00058466	0.000827474	0.00107456	0.000786114	0.00140584
0.00195513	0.010607	0.000807974	0.000582208	0.000839816	0.00107249	0.000787725	0.00140395
0.00193038	0.0104578	0.000806901	0.000586368	0.000853475	0.00109406	0.000791723	0.00141126
0.00191859	0.0101535	0.000817104	0.00058533	0.000860948	0.00109083	0.000791655	0.00140808
0.00191086	0.00906239	0.000811773	0.00058794	0.000857273	0.00108098	0.000792681	0.00140541
0.00183924	0.00867659	0.000808134	0.000587334	0.000855472	0.00108014	0.000807542	0.00140749
0.00178907	0.00827661	0.000809484	0.000590531	0.00085897	0.00108323	0.000817979	0.0014275
0.001793	0.00807888	0.000809812	0.000595394	0.000869101	0.0010802	0.000822982	0.00142551
0.00179741	0.00798602	0.000811563	0.000597385	0.000880243	0.00107745	0.000819222	0.00142807
0.00175777	0.00767303	0.000826129	0.000601261	0.000892836	0.00106568	0.000817757	0.00141239
0.00157954	0.00760446	0.000827041	0.000606706	0.000900409	0.00106184	0.000819967	0.00134381
0.00125227	0.00753242	0.000830688	0.00061779	0.00089889	0.001075	0.000821754	0.00130947
0.00123994	0.00741337	0.000823764	0.000610813	0.000907461	0.001084	0.00081824	0.00130129
0.00123384	0.00699089	0.000820178	0.000621089	0.000906372	0.00110916	0.000822415	0.00131958
0.00115052	0.0065751	0.00081963	0.00061866	0.000922248	0.00112799	0.000826794	0.00128832
0.00108595	0.00596864	0.000811135	0.000622987	0.000932726	0.00114002	0.000827217	0.00124168
0.00108101	0.00573879	0.000814073	0.000618793	0.000925774	0.0011814	0.000829512	0.00116357
0.00107735	0.00573745	0.000814682	0.000629358	0.000932691	0.00118621	0.000835587	0.00112916
0.000921396	0.00560266	0.000816048	0.000637932	0.000953684	0.00119106	0.000835435	0.00112506
0.000879253	0.00539097	0.000820723	0.00065277	0.000982047	0.00115578	0.000834253	0.00112506
0.000883475	0.00529223	0.000808845	0.000657478	0.000981668	0.00109142	0.000814462	0.00108025
0.000874628	0.00517837	0.000801291	0.000658002	0.000973764	0.00108455	0.000770561	0.00103818
0.000848453	0.00477293	0.000800558	0.000677228	0.000982402	0.0010861	0.000723751	0.00102976
0.000784639	0.00463383	0.000799437	0.000674304	0.00100569	0.00107727	0.000706778	0.00101872
0.000749568	0.00418278	0.000800753	0.000672046	0.00097866	0.00109738	0.00068587	0.001038
0.000743037	0.00317061	0.000804765	0.000672956	0.000950559	0.00108666	0.000687578	0.00103778
0.000749387	0.00282131	0.000802337	0.000669362	0.000953966	0.00108797	0.000682735	0.00103902
0.000742602	0.00256664	0.000784	0.000676756	0.000948164	0.00113003	0.000686048	0.00104191
0.00075218	0.00252204	0.000771627	0.000683343	0.000925514	0.00113326	0.00066918	0.0010657
0.000754106	0.00249342	0.000776737	0.00069084	0.000920051	0.00114457	0.000663401	0.00110649
0.000761095	0.00249247	0.000791835	0.000689666	0.000996297	0.00125593	0.000675723	0.00111555
0.000682581	0.0022698	0.000802865	0.000698123	0.00100981	0.00129075	0.000684971	0.00109801
0.000567905	0.00221855	0.000802717	0.000710943	0.0010105	0.00129321	0.000686906	0.0010852
0.000558514	0.0022141	0.000782674	0.000728013	0.00099295	0.00128585	0.000677488	0.00108798
0.00055656	0.00218146	0.000768701	0.000742302	0.000984282	0.0012435	0.000682159	0.00104076
0.00055118	0.00209686	0.000766096	0.000769684	0.000995148	0.00124268	0.000668881	0.00101192
0.00104058	0.00272371	0.000495676	0.000599241	0.000286514	0.000330357	0.00393627	0.00382812
0.00110114	0.0028498	0.000506462	0.000630504	0.000304351	0.000359921	0.00390269	0.00408778
0.00111983	0.00286416	0.000521561	0.000649427	0.000324454	0.000375125	0.00387113	0.0041519
0.00125491	0.00284836	0.000535044	0.000678589	0.000335619	0.000393834	0.0038576	0.00426548
0.00129598	0.00282831	0.000543565	0.000705095	0.000353457	0.000416379	0.00378678	0.00439428
0.00134959	0.00300062	0.000552509	0.000746949	0.000365653	0.000435531	0.00377996	0.0046966
0.00135486	0.00303498	0.000556806	0.000769693	0.000397927	0.000457004	0.00373008	0.00493113
0.00138906	0.00304105	0.000563185	0.000803888	0.000425832	0.000478992	0.00368481	0.00513825
0.00141363	0.00300242	0.000570956	0.0008626	0.00043795	0.000508119	0.00360075	0.00522047
0.00141265	0.00298164	0.000584531	0.000908906	0.000455849	0.000532554	0.00352164	0.00542103
0.0014185	0.00295689	0.000599077	0.000938212	0.000473136	0.000551677	0.00343205	0.00547654
0.00142566	0.00291476	0.000608932	0.000996912	0.00049268	0.000573566	0.00355883	0.0055051
0.00143166	0.00290542	0.000624341	0.00102992	0.000511886	0.000612483	0.00356687	0.00600453
0.00144721	0.00292593	0.000637505	0.00105711	0.000532011	0.000629759	0.00361503	0.00629819
0.00158248	0.0034662	0.000642806	0.00109261	0.000548534	0.000644364	0.00365563	0.00646043
0.00160174	0.00351043	0.000648582	0.00108826	0.000554848	0.000651964	0.00370732	0.006504
0.00160191	0.00349505	0.000643006	0.00108127	0.000558585	0.000646574	0.0037203	0.00645189
0.00159083	0.00349284	0.000636973	0.00108526	0.000561511	0.000642605	0.00372682	0.00640421
0.00150836	0.00362553	0.000645456	0.00105795	0.000567604	0.000650411	0.00361921	0.00627503
0.00154303	0.00372471	0.000652374	0.00105531	0.000570236	0.000644158	0.00353994	0.00635476
0.00156649	0.00375498	0.000648404	0.00108992	0.000580902	0.000639106	0.00357224	0.00661945
0.00159428	0.00379084	0.000652697	0.00109783	0.000581489	0.000634384	0.00359619	0.00640502
0.00159517	0.00373353	0.000659962	0.00108222	0.000572998	0.000638065	0.00355557	0.00633753
0.00150147	0.00329293	0.000667351	0.00108023	0.000562168	0.000634722	0.00355043	0.0061885
0.00148387	0.00311382	0.00067425	0.0010565	0.000568827	0.00064264	0.00345761	0.00611875
0.00145079	0.00307417	0.000673451	0.00108202	0.000568069	0.000643525	0.00343081	0.00600367
0.00140091	0.00297565	0.000667921	0.00110185	0.000578687	0.000638895	0.00347909	0.00597704
0.00140414	0.00291109	0.000671445	0.00110146	0.000566359	0.000625113	0.00332886	0.00612429
0.00139013	0.00284163	0.000666159	0.00110668	0.00057746	0.0006126	0.00333079	0.00611303
0.00139533	0.00282934	0.000666457	0.00113359	0.000576735	0.000629667	0.00342623	0.00641041
0.00137316	0.00280537	0.00066594	0.00114966	0.000578275	0.000637238	0.00344729	0.0065121
