"Time","40 FRy (cm)","38 FLy (cm)","36 HRy (cm)","34 HLy (cm)","47 RDS cle","45 R marks","42a CoMy (cm)","v2 R COP","v3 L COP","48 LDS cle","46 L marks","42 CoMy (cm)","v1 xCoM","3 Platform"
0.000,4.533491,6.087149,4.130219,6.006341,1,0,5.542337,0.000000,0.000000,1,0,4.566424,4.813549,0.00015
0.001,4.475941,6.103342,4.108523,6.021077,1,0,5.467730,0.000000,0.000000,1,0,4.571927,4.816262,0.00030
0.002,4.418391,6.119536,4.086828,6.035813,1,0,5.393122,0.000000,0.000000,1,0,4.577431,4.818394,0.00015
0.003,4.360841,6.135730,4.065132,6.050550,1,0,5.318514,0.000000,0.000000,1,0,4.582934,4.820143,0.00015
0.004,4.303411,6.151847,4.043456,6.065450,1,0,5.223792,0.000000,0.000000,1,0,4.588316,4.821314,0.00001
0.005,4.246105,6.167888,4.021800,6.080517,1,0,5.108631,0.000000,0.000000,1,0,4.593576,4.822102,-0.00015
0.006,4.188798,6.183928,4.000144,6.095584,1,0,4.993470,0.000000,0.000000,1,0,4.598836,4.822173,0.00000
0.007,4.131492,6.199969,3.978488,6.110651,1,0,4.878308,0.000000,0.000000,1,0,4.604096,4.821771,0.00000
0.008,4.104609,6.215806,3.956865,6.125722,1,0,4.739246,0.000000,0.000000,1,0,4.609100,4.820517,0.00015
0.009,4.108642,6.231437,3.935276,6.140797,1,0,4.575897,0.000000,0.000000,1,0,4.613843,4.818700,0.00015
0.010,4.112674,6.247067,3.913687,6.155872,1,0,4.412548,0.000000,0.000000,1,0,4.618587,4.816103,0.00000
0.011,4.116706,6.262698,3.892097,6.170947,1,0,4.249199,0.000000,0.000000,1,0,4.623330,4.812988,0.00030
0.012,4.120694,6.278201,3.870669,6.186061,1,0,4.066947,0.000000,0.000000,1,0,4.627766,4.809201,-0.00030
0.013,4.124638,6.293574,3.849404,6.201217,1,0,3.865485,0.000000,0.000000,1,0,4.631890,4.804969,-0.00000
0.014,4.128582,6.308948,3.828139,6.216372,1,0,3.664024,0.000000,0.000000,1,0,4.636014,4.800064,-0.00015
0.015,4.132526,6.324321,3.806874,6.231527,1,0,3.462563,0.000000,0.000000,1,0,4.640138,4.794712,0.00001
0.016,4.135842,6.339455,3.785728,6.246365,1,0,3.253752,0.000000,0.000000,1,0,4.643586,4.788696,0.00030
0.017,4.138519,6.354344,3.764704,6.260880,1,0,3.037471,0.000000,0.000000,1,0,4.646347,4.782240,-0.00015
0.018,4.141196,6.369235,3.743680,6.275396,1,0,2.821191,0.000000,0.000000,1,0,4.649107,4.775329,-0.00000
0.019,4.143873,6.384124,3.722656,6.289912,1,0,2.604910,0.000000,0.000000,1,0,4.651869,4.768115,0.00015
0.020,4.145945,6.398779,3.710544,6.303893,1,0,2.390293,0.000000,0.000000,1,0,4.654181,4.760688,0.00015
0.021,4.147404,6.413197,3.707487,6.317331,1,0,2.177365,0.000000,0.000000,1,0,4.656036,4.753121,0.00015
0.022,4.148862,6.427614,3.704431,6.330769,1,0,1.964437,0.000000,0.000000,1,0,4.657892,4.745484,-0.00015
0.023,4.150321,6.442031,3.701374,6.344207,1,0,1.751510,0.000000,0.000000,1,0,4.659747,4.737802,0.00000
0.024,4.150552,6.456208,3.697884,6.357242,1,0,1.546377,0.000000,0.000000,1,0,4.661287,4.730151,0.00015
0.025,4.149537,6.470141,3.693953,6.369868,1,0,1.349165,0.000000,0.000000,1,0,4.662508,4.722520,-0.00015
0.026,4.148521,6.484074,3.690022,6.382494,1,0,1.151953,0.000000,0.000000,1,0,4.663727,4.714960,-0.00029
0.027,4.147505,6.498007,3.686091,6.395121,1,0,0.954741,0.000000,0.000000,1,0,4.664948,4.707447,0.00000
0.028,4.145001,6.511629,3.681617,6.407306,1,0,0.764604,0.000000,0.000000,1,0,4.665895,4.699997,-0.00030
0.029,4.140984,6.524935,3.676591,6.419043,1,0,0.581655,0.000000,0.000000,1,0,4.666565,4.692589,0.00000
0.030,4.136966,6.538242,3.671566,6.430780,1,0,0.398706,0.000000,0.000000,1,0,4.667235,4.685103,0.00015
0.031,4.132948,6.551548,3.666540,6.442517,1,0,0.215757,0.000000,0.000000,1,0,4.667905,4.677565,0.00014
0.032,4.127963,6.564507,3.661042,6.453814,1,0,0.042516,0.000000,0.000000,1,0,4.668004,4.669846,0.00014
0.033,4.121992,6.577113,3.655062,6.464663,1,0,-0.120860,0.000000,0.000000,1,0,4.667521,4.662007,0.00015
0.034,4.116022,6.589720,3.649083,6.475511,1,0,-0.284237,0.000000,0.000000,1,0,4.667039,4.654252,-0.00016
0.035,4.110051,6.602326,3.643104,6.486360,1,0,-0.447613,0.000000,0.000000,1,0,4.666556,4.646553,0.00015
0.036,4.122139,6.614454,3.635578,6.494261,1,0,-0.594445,0.000000,0.000000,1,0,4.665860,4.639243,-0.00000
0.037,4.152577,6.626094,3.626480,6.499167,1,0,-0.724465,0.000000,0.000000,1,0,4.664947,4.632190,-0.00015
0.038,4.183014,6.637735,3.617383,6.504073,1,0,-0.854485,0.000000,0.000000,1,0,4.664033,4.625515,-0.00000
0.039,4.213452,6.649376,3.608285,6.508979,1,0,-0.984505,0.000000,0.000000,1,0,4.663120,4.619090,-0.00000
0.040,4.243560,6.660435,3.599099,6.513080,1,0,-1.092601,0.000000,0.000000,1,0,4.661891,4.612994,0.00045
0.041,4.273333,6.670902,3.589823,6.516361,1,0,-1.178419,0.000000,0.000000,1,0,4.660342,4.607116,-0.00015
0.042,4.303106,6.681368,3.580546,6.519643,1,0,-1.264238,0.000000,0.000000,1,0,4.658792,4.601788,-0.00015
0.043,4.332879,6.691835,3.571270,6.522924,1,0,-1.350056,0.000000,0.000000,1,0,4.657243,4.596823,-0.00015
0.044,4.362611,6.701999,3.567066,6.525262,1,0,-1.409440,0.000000,0.000000,1,0,4.655653,4.592633,0.00000
0.045,4.392303,6.711856,3.568017,6.526641,1,0,-1.441965,0.000000,0.000000,1,0,4.654018,4.588954,0.00001
0.046,4.421994,6.721712,3.568967,6.528021,1,0,-1.474489,0.000000,0.000000,1,0,4.652385,4.585925,0.00000
0.047,4.451685,6.731568,3.569918,6.529400,1,0,-1.507013,0.000000,0.000000,1,0,4.650751,4.583324,-0.00015
0.048,4.491361,6.741334,3.570964,6.529789,1,0,-1.520015,0.000000,0.000000,1,0,4.649109,4.581194,0.00000
0.049,4.541181,6.751008,3.572106,6.529174,1,0,-1.513181,0.000000,0.000000,1,0,4.647459,4.579375,0.00016
0.050,4.591002,6.760681,3.573249,6.528558,1,0,-1.506346,0.000000,0.000000,1,0,4.645808,4.578071,0.00000
0.051,4.640822,6.770354,3.574391,6.527942,1,0,-1.499511,0.000000,0.000000,1,0,4.644158,4.577107,0.00000
0.052,4.690848,6.779583,3.575476,6.526294,1,0,-1.472225,0.000000,0.000000,1,0,4.642552,4.576747,-0.00000
0.053,4.741083,6.788362,3.576502,6.523597,1,0,-1.424156,0.000000,0.000000,1,0,4.640991,4.576786,0.00016
0.054,4.791319,6.797141,3.577528,6.520900,1,0,-1.376087,0.000000,0.000000,1,0,4.639430,4.577415,0.00014
0.055,4.841554,6.805919,3.578554,6.518203,1,0,-1.328019,0.000000,0.000000,1,0,4.637869,4.578433,0.00000
0.056,4.891767,6.811923,3.579583,6.514212,1,0,-1.262974,0.000000,0.000000,1,0,4.636440,4.579996,-0.00031
0.057,4.941955,6.815107,3.580615,6.508904,1,0,-1.180680,0.000000,0.000000,1,0,4.635145,4.581918,-0.00016
0.058,4.992144,6.818292,3.581646,6.503597,1,0,-1.098386,0.000000,0.000000,1,0,4.633850,4.584329,0.00015
0.059,5.042333,6.821477,3.582679,6.498290,1,0,-1.016092,0.000000,0.000000,1,0,4.632555,4.587064,-0.00015
0.060,5.061976,6.823825,3.583653,6.492532,1,0,-0.922662,0.000000,0.000000,1,0,4.631450,4.590224,0.00000
0.061,5.050583,6.825324,3.584569,6.486317,1,0,-0.817917,0.000000,0.000000,1,0,4.630538,4.593666,0.00030
0.062,5.039189,6.826822,3.585485,6.480102,1,0,-0.713171,0.000000,0.000000,1,0,4.629625,4.597447,-0.00015
0.063,5.027795,6.828321,3.586401,6.473887,1,0,-0.608426,0.000000,0.000000,1,0,4.628713,4.601454,0.00015
0.064,5.016632,6.828660,3.587310,6.468694,1,0,-0.501781,0.000000,0.000000,1,0,4.628095,4.605703,0.00030
0.065,5.005704,6.827824,3.588211,6.464540,1,0,-0.393207,0.000000,0.000000,1,0,4.627777,4.610111,0.00014
0.066,4.994775,6.826987,3.589112,6.460387,1,0,-0.284632,0.000000,0.000000,1,0,4.627458,4.614640,-0.00015
0.067,4.983847,6.826150,3.590014,6.456233,1,0,-0.176057,0.000000,0.000000,1,0,4.627140,4.619248,-0.00015
0.068,4.973911,6.824566,3.590899,6.451859,1,0,-0.076281,0.000000,0.000000,1,0,4.627146,4.623837,-0.00001
0.069,4.964983,6.822224,3.591770,6.447262,1,0,0.014554,0.000000,0.000000,1,0,4.627481,4.628412,0.00030
0.070,4.956055,6.819881,3.592640,6.442664,1,0,0.105389,0.000000,0.000000,1,0,4.627818,4.632778,0.00015
0.071,4.947127,6.817539,3.593510,6.438066,1,0,0.196224,0.000000,0.000000,1,0,4.628154,4.637006,-0.00015
0.072,4.938898,6.814370,3.594268,6.431473,1,0,0.270641,0.000000,0.000000,1,0,4.628573,4.640833,0.00015
0.073,4.931377,6.810360,3.594912,6.422851,1,0,0.328376,0.000000,0.000000,1,0,4.629077,4.644395,-0.00014
0.074,4.923857,6.806351,3.595556,6.414229,1,0,0.386110,0.000000,0.000000,1,0,4.629581,4.647428,0.00015
0.075,4.916337,6.802342,3.596200,6.405608,1,0,0.443845,0.000000,0.000000,1,0,4.630085,4.650112,-0.00015
0.076,4.908811,6.792312,3.596881,6.398691,1,0,0.477662,0.000000,0.000000,1,0,4.630638,4.652169,0.00015
0.077,4.901279,6.776164,3.597601,6.393506,1,0,0.487177,0.000000,0.000000,1,0,4.631241,4.653812,-0.00015
0.078,4.893748,6.760016,3.598320,6.388320,1,0,0.496691,0.000000,0.000000,1,0,4.631845,4.654785,-0.00015
0.079,4.886217,6.743868,3.599040,6.383135,1,0,0.506205,0.000000,0.000000,1,0,4.632448,4.655314,-0.00000
0.080,4.878784,6.727481,3.599823,6.377426,1,0,0.487029,0.000000,0.000000,1,0,4.633112,4.655128,-0.00015
0.081,4.871450,6.710851,3.600670,6.371184,1,0,0.438700,0.000000,0.000000,1,0,4.633840,4.654470,-0.00015
0.082,4.864118,6.694221,3.601517,6.364943,1,0,0.390370,0.000000,0.000000,1,0,4.634566,4.652976,0.00000
0.083,4.856784,6.677591,3.602365,6.358702,1,0,0.342041,0.000000,0.000000,1,0,4.635293,4.650930,-0.00015
0.084,4.849771,6.660802,3.603142,6.351497,1,0,0.260397,0.000000,0.000000,1,0,4.635931,4.647920,-0.00015
0.085,4.843081,6.643853,3.603849,6.343313,1,0,0.144900,0.000000,0.000000,1,0,4.636477,4.644272,0.00030
0.086,4.836393,6.626904,3.604556,6.335129,1,0,0.029404,0.000000,0.000000,1,0,4.637023,4.639589,-0.00015
0.087,4.829704,6.609955,3.605263,6.326945,1,0,-0.086093,0.000000,0.000000,1,0,4.637569,4.634221,0.00015
0.088,4.822927,6.592795,3.605837,6.317220,1,0,-0.229416,0.000000,0.000000,1,0,4.637698,4.627800,0.00014
0.089,4.816061,6.575421,3.606276,6.305928,1,0,-0.401015,0.000000,0.000000,1,0,4.637403,4.620684,0.00000
0.090,4.809195,6.558047,3.606715,6.294637,1,0,-0.572615,0.000000,0.000000,1,0,4.637108,4.612670,-0.00015
0.091,4.802329,6.540673,3.607154,6.283345,1,0,-0.744214,0.000000,0.000000,1,0,4.636814,4.604064,-0.00015
0.092,4.796725,6.522974,3.607562,6.271634,1,0,-0.934065,0.000000,0.000000,1,0,4.636106,4.594741,0.00000
0.093,4.792403,6.504945,3.607937,6.259495,1,0,-1.142463,0.000000,0.000000,1,0,4.634978,4.584944,0.00001
0.094,4.788082,6.486917,3.608312,6.247356,1,0,-1.350861,0.000000,0.000000,1,0,4.633850,4.574477,0.00015
0.095,4.783760,6.468888,3.608688,6.235218,1,0,-1.559258,0.000000,0.000000,1,0,4.632722,4.563569,0.00016
0.096,4.779525,6.450557,3.608850,6.222997,1,0,-1.775500,0.000000,0.000000,1,0,4.631019,4.552043,0.00015
0.097,4.775378,6.431919,3.608797,6.210692,1,0,-1.999713,0.000000,0.000000,1,0,4.628732,4.540109,-0.00000
0.098,4.771231,6.413280,3.608743,6.198387,1,0,-2.223926,0.000000,0.000000,1,0,4.626445,4.527802,0.00030
0.099,4.767084,6.394642,3.608689,6.186082,1,0,-2.448139,0.000000,0.000000,1,0,4.624158,4.515249,0.00015
0.100,4.763257,6.375965,3.608562,6.174197,1,0,-2.673656,0.000000,0.000000,1,0,4.621545,4.502548,-0.00031
0.101,4.759754,6.357248,3.608361,6.162739,1,0,-2.900499,0.000000,0.000000,1,0,4.618599,4.489750,0.00000
0.102,4.756251,6.338531,3.608160,6.151280,1,0,-3.127342,0.000000,0.000000,1,0,4.615654,4.476676,-0.00000
0.103,4.752748,6.319814,3.607959,6.139822,1,0,-3.354185,0.000000,0.000000,1,0,4.612708,4.463421,0.00000
0.104,4.749259,6.300992,3.607683,6.129064,1,0,-3.586183,0.000000,0.000000,1,0,4.609342,4.449713,0.00015
0.105,4.745781,6.282063,3.607332,6.119017,1,0,-3.823419,0.000000,0.000000,1,0,4.605550,4.435706,0.00000
0.106,4.742303,6.263134,3.606980,6.108970,1,0,-4.060656,0.000000,0.000000,1,0,4.601758,4.421312,-0.00000
0.107,4.738826,6.244205,3.606628,6.098923,1,0,-4.297892,0.000000,0.000000,1,0,4.597965,4.406665,0.00030
0.108,4.735599,6.225156,3.606194,6.089363,1,0,-4.532008,0.000000,0.000000,1,0,4.593623,4.391767,0.00000
0.109,4.732626,6.205988,3.605674,6.080298,1,0,-4.762954,0.000000,0.000000,1,0,4.588722,4.376704,-0.00015
0.110,4.729653,6.186820,3.605155,6.071233,1,0,-4.993899,0.000000,0.000000,1,0,4.583822,4.361503,0.00014
0.111,4.726680,6.167652,3.604635,6.062168,1,0,-5.224845,0.000000,0.000000,1,0,4.578921,4.346211,-0.00030
0.112,4.724277,6.148482,3.604025,6.053535,1,0,-5.444313,0.000000,0.000000,1,0,4.573522,4.330902,-0.00014
0.113,4.722451,6.129311,3.603321,6.045343,1,0,-5.652117,0.000000,0.000000,1,0,4.567617,4.315581,0.00001
0.114,4.720626,6.110140,3.602617,6.037150,1,0,-5.859921,0.000000,0.000000,1,0,4.561712,4.300432,0.00015
0.115,4.718800,6.090969,3.601913,6.028958,1,0,-6.067725,0.000000,0.000000,1,0,4.555807,4.285396,0.00014
0.116,4.717440,6.061773,3.601167,6.021221,1,0,-6.248456,0.000000,0.000000,1,0,4.549387,4.270752,0.00000
0.117,4.716553,6.022390,3.600377,6.013947,1,0,-6.401677,0.000000,0.000000,1,0,4.542446,4.256368,-0.00000
0.118,4.715666,5.983007,3.599587,6.006674,1,0,-6.554898,0.000000,0.000000,1,0,4.535504,4.242654,0.00015
0.119,4.714779,5.943625,3.598797,5.999400,1,0,-6.708120,0.000000,0.000000,1,0,4.528562,4.229383,0.00015
0.120,4.694950,5.904284,3.597903,5.992372,1,0,-6.826246,0.000000,0.000000,1,0,4.521461,4.217022,-0.00030
0.121,4.655871,5.864985,3.596905,5.985593,1,0,-6.908711,0.000000,0.000000,1,0,4.514197,4.205264,0.00015
0.122,4.616793,5.825686,3.595907,5.978815,1,0,-6.991177,0.000000,0.000000,1,0,4.506934,4.194400,-0.00045
0.123,4.577714,5.786386,3.594908,5.972036,1,0,-7.073643,0.000000,0.000000,1,0,4.499671,4.184127,-0.00030
0.124,4.538640,5.747147,3.594001,5.965549,1,0,-7.122849,0.000000,0.000000,1,0,4.492335,4.174682,0.00000
0.125,4.499569,5.707968,3.593185,5.959360,1,0,-7.138259,0.000000,0.000000,1,0,4.484927,4.165784,0.00015
0.126,4.460499,5.668789,3.592370,5.953170,1,0,-7.153669,0.000000,0.000000,1,0,4.477519,4.157761,0.00015
0.127,4.421429,5.629610,3.591554,5.946981,1,0,-7.169080,0.000000,0.000000,1,0,4.470111,4.150315,0.00029
0.128,4.382361,5.590499,3.590912,5.941020,1,0,-7.152986,1.189963,0.000000,1,0,4.462766,4.143794,0.00029
0.129,4.343297,5.551457,3.590447,5.935291,1,1,-7.104880,3.166646,0.000000,1,0,4.455484,4.137885,0.00015
0.130,4.304233,5.512415,3.589982,5.929562,1,0,-7.056774,3.942871,0.000000,1,0,4.448203,4.132815,0.00015
0.131,4.265169,5.473374,3.589517,5.923833,1,0,-7.008668,3.925436,0.000000,1,0,4.440922,4.128301,0.00015
0.132,4.216156,5.434533,3.618745,5.918358,1,0,-6.934351,3.916191,0.000000,1,0,4.433772,4.124535,-0.00000
0.133,4.157034,5.395896,3.678145,5.913142,1,0,-6.833401,3.912361,0.000000,1,0,4.426755,4.121265,-0.00045
0.134,4.097912,5.357260,3.737545,5.907925,1,0,-6.732450,3.912868,0.000000,1,0,4.419738,4.118812,-0.00015
0.135,4.038791,5.318623,3.796944,5.902709,1,0,-6.631500,3.916244,0.000000,1,0,4.412722,4.116899,-0.00015
0.136,3.979646,5.292803,3.856558,5.897727,1,0,-6.503688,3.918572,0.000000,1,0,4.405936,4.115888,0.00030
0.137,3.920479,5.280008,3.916390,5.892987,1,0,-6.348582,3.920208,0.000000,1,0,4.399384,4.115473,0.00030
0.138,3.861311,5.267212,3.976221,5.888246,1,0,-6.193476,3.920422,0.000000,1,0,4.392832,4.115900,0.00000
0.139,3.802144,5.254417,4.036052,5.883504,1,0,-6.038370,3.919694,0.000000,1,0,4.386280,4.116883,-0.00000
0.140,3.743143,5.241749,4.095863,5.879311,1,0,-5.865460,3.918771,0.000000,1,0,4.380133,4.118603,-0.00015
0.141,3.684312,5.229210,4.155652,5.875675,1,0,-5.674459,3.917719,0.000000,1,0,4.374397,4.120811,-0.00001
0.142,3.625481,5.216672,4.215442,5.872038,1,0,-5.483459,3.918328,0.000000,1,0,4.368661,4.123634,-0.00000
0.143,3.566650,5.204134,4.275231,5.868402,1,0,-5.292458,3.920037,0.000000,1,0,4.362926,4.126866,0.00000
0.144,3.538500,5.191478,4.310347,5.865157,1,0,-5.093136,3.924606,0.000000,1,0,4.357645,4.130597,0.00000
0.145,3.541527,5.178704,4.320393,5.862312,1,0,-4.885360,3.931066,0.000000,1,0,4.352825,4.134657,0.00000
0.146,3.544553,5.165930,4.330438,5.859467,1,0,-4.677583,3.937618,0.000000,1,0,4.348005,4.139128,-0.00015
0.147,3.547580,5.153157,4.340484,5.856622,1,0,-4.469806,3.944233,0.000000,1,0,4.343186,4.143869,0.00030
0.148,3.550678,5.140507,4.344206,5.853973,1,0,-4.264733,3.947923,0.000000,1,0,4.338919,4.148913,0.00015
0.149,3.553850,5.127983,4.341504,5.851525,1,0,-4.062407,3.949681,0.000000,1,0,4.335213,4.154157,0.00015
0.150,3.557021,5.115458,4.338801,5.849077,1,0,-3.860082,3.949774,0.000000,1,0,4.331507,4.159471,0.00015
0.151,3.560193,5.102934,4.336099,5.846629,1,0,-3.657757,3.948766,0.000000,1,0,4.327801,4.164832,-0.00015
0.152,3.563044,5.090185,4.333373,5.844183,1,0,-3.464895,3.948147,0.000000,1,0,4.324368,4.170046,-0.00000
0.153,3.565570,5.077206,4.330623,5.841742,1,0,-3.281651,3.947783,0.000000,1,0,4.321211,4.175163,-0.00015
0.154,3.568096,5.064227,4.327873,5.839300,1,0,-3.098406,3.947695,0.000000,1,0,4.318055,4.180161,0.00000
0.155,3.570621,5.051248,4.325123,5.836858,1,0,-2.915162,3.947790,0.000000,1,0,4.314898,4.185078,0.00016
0.156,3.572630,5.038309,4.322338,5.834409,1,0,-2.742736,3.947560,0.000000,1,0,4.312083,4.189944,0.00000
0.157,3.574112,5.025410,4.319517,5.831952,1,0,-2.581305,3.947115,0.000000,1,0,4.309614,4.194775,-0.00029
0.158,3.575594,5.012511,4.316697,5.829495,1,0,-2.419873,3.946425,0.000000,1,0,4.307146,4.199489,-0.00000
0.159,3.577077,4.999612,4.313876,5.827039,1,0,-2.258441,3.945574,0.000000,1,0,4.304677,4.204125,0.00045
0.160,3.578511,4.991927,4.310885,5.822714,1,0,-2.112087,3.944707,0.000000,1,0,4.302555,4.208551,0.00000
0.161,3.579897,4.989540,4.307721,5.816493,1,0,-1.981054,3.943830,0.000000,1,0,4.300785,4.212839,-0.00030
0.162,3.581284,4.987153,4.304557,5.810271,1,0,-1.850020,3.942940,0.000000,1,0,4.299014,4.216887,0.00015
0.163,3.582670,4.984765,4.301393,5.804050,1,0,-1.718987,3.942042,0.000000,1,0,4.297244,4.220776,-0.00015
0.164,3.583979,4.982038,4.298162,5.798332,1,0,-1.604773,3.941081,0.000000,1,0,4.295743,4.224396,-0.00016
0.165,3.585210,4.978966,4.294864,5.793126,1,0,-1.507650,3.940078,0.000000,1,0,4.294517,4.227839,-0.00001
0.166,3.586440,4.975894,4.291566,5.787920,1,0,-1.410526,3.939042,0.000000,1,0,4.293291,4.230910,0.00016
0.167,3.587671,4.972822,4.288269,5.782714,1,0,-1.313403,3.937982,0.000000,1,0,4.292064,4.233734,0.00000
0.168,3.588722,4.969348,4.285326,5.778399,1,0,-1.236806,3.936954,0.000000,1,0,4.290982,4.236075,-0.00015
0.169,3.589593,4.965467,4.282744,5.774986,1,0,-1.181065,3.935946,0.000000,1,0,4.290045,4.238097,-0.00015
0.170,3.590463,4.961586,4.280162,5.771574,1,1,-1.125325,2.750945,0.000000,1,0,4.289109,4.239602,0.00000
0.171,3.591333,4.957705,4.277580,5.768162,0,0,-1.069585,0.783173,0.000000,1,0,4.288172,4.240764,0.00000
0.172,3.592166,4.953558,4.275085,5.766082,0,0,-1.033341,0.000000,0.000000,1,0,4.287264,4.241406,-0.00000
0.173,3.592959,4.949142,4.272678,5.765355,0,0,-1.016907,0.000000,0.000000,1,0,4.286386,4.241705,0.00015
0.174,3.593753,4.944727,4.270271,5.764627,0,0,-1.000474,0.000000,0.000000,1,0,4.285507,4.241519,-0.00015
0.175,3.594546,4.940311,4.267864,5.763900,0,0,-0.984040,0.000000,0.000000,1,0,4.284629,4.241013,0.00000
0.176,3.595230,4.936041,4.265452,5.763535,0,0,-0.982838,0.000000,0.000000,1,0,4.283731,4.240075,0.00000
0.177,3.595803,4.931919,4.263035,5.763539,0,0,-0.997114,0.000000,0.000000,1,0,4.282812,4.238851,0.00000
0.178,3.596375,4.927796,4.260617,5.763543,0,0,-1.011389,0.000000,0.000000,1,0,4.281893,4.237267,-0.00016
0.179,3.596948,4.923674,4.258200,5.763547,0,0,-1.025664,0.000000,0.000000,1,0,4.280975,4.235445,-0.00015
0.180,3.597479,4.919547,4.264874,5.763669,0,0,-1.049908,0.000000,0.000000,1,0,4.280019,4.233335,0.00015
0.181,3.597967,4.915415,4.280786,5.763912,0,0,-1.084280,0.000000,0.000000,1,0,4.279027,4.231035,0.00015
0.182,3.598455,4.911283,4.296699,5.764155,0,0,-1.118652,0.000000,0.000000,1,0,4.278034,4.228491,0.00015
0.183,3.598943,4.907151,4.312611,5.764398,0,0,-1.153024,0.000000,0.000000,1,0,4.277041,4.225786,-0.00000
0.184,3.599409,4.903043,4.328578,5.764638,0,0,-1.192010,0.000000,0.000000,1,0,4.275929,4.222877,-0.00000
0.185,3.599854,4.898960,4.344601,5.764877,0,0,-1.235685,0.000000,0.000000,1,0,4.274696,4.219832,0.00014
0.186,3.600298,4.894876,4.360624,5.765116,0,0,-1.279361,0.000000,0.000000,1,0,4.273463,4.216641,0.00000
0.187,3.600743,4.890792,4.376647,5.765355,0,0,-1.323036,0.000000,0.000000,1,0,4.272230,4.213353,-0.00000
