0.00425086	0.010649	0.000692806	0.00137334	0.000581696	0.00222294	0.00284045	0.00345571
0.00435147	0.0106751	0.000692604	0.00137069	0.000579827	0.00235444	0.00284488	0.00364845
0.00482934	0.0113903	0.000690656	0.00138028	0.000577019	0.00240099	0.00285843	0.0038463
0.00541961	0.0121141	0.000685686	0.00140243	0.000570054	0.00256011	0.00290474	0.00412296
0.00549767	0.0122424	0.000693549	0.00147347	0.000582245	0.00276974	0.00293194	0.00418383
0.00553887	0.0124043	0.000696271	0.00149026	0.000585284	0.00277808	0.00298191	0.00417464
0.00557986	0.0127276	0.000695687	0.00152168	0.000585617	0.00279823	0.00301828	0.00419993
0.00561153	0.0131944	0.000695262	0.00160057	0.00057706	0.00279915	0.00309536	0.00432244
0.00560729	0.0133369	0.000684863	0.00160456	0.000575152	0.00279882	0.00311546	0.00458525
0.00557725	0.0133363	0.000691389	0.00162969	0.000573319	0.00279622	0.00312048	0.00459448
0.0055204	0.0132961	0.000688027	0.00166207	0.000571905	0.0028047	0.00311752	0.00454964
0.00538051	0.0132553	0.000686927	0.00166091	0.000577753	0.00284344	0.00311235	0.0044269
0.00545579	0.0133359	0.000688072	0.00166465	0.000575061	0.00286938	0.00311148	0.00408569
0.0055584	0.0128976	0.000687944	0.00166958	0.000578184	0.0030413	0.00311415	0.00417353
0.00567679	0.0131718	0.000682731	0.00169388	0.000566063	0.00310706	0.0031469	0.0037765
0.00583178	0.0137112	0.000690979	0.0017241	0.000569799	0.00316945	0.00315078	0.00284612
0.00579777	0.0137095	0.000685188	0.00170109	0.000575218	0.00332282	0.0031366	0.00268374
0.00589046	0.0141047	0.000687824	0.00165343	0.000571957	0.003343	0.00306793	0.00290992
0.00589971	0.0138319	0.000692052	0.00163237	0.000575599	0.00341288	0.00305011	0.00294197
0.00593133	0.0141356	0.000687932	0.00159599	0.000571588	0.00347673	0.00290512	0.00298812
0.00598307	0.0150651	0.000684161	0.00157149	0.00057291	0.00356012	0.00287724	0.00287761
0.00615584	0.0155256	0.000681622	0.00152424	0.000581363	0.00354976	0.00280661	0.00274557
0.00608086	0.0159938	0.000685105	0.00148863	0.000586046	0.00345674	0.00272828	0.00253725
0.00615764	0.0164444	0.000688148	0.00149302	0.000590625	0.00343508	0.00267309	0.00237608
0.00605152	0.0166338	0.000694402	0.00141475	0.000592161	0.00335356	0.00255967	0.00233496
0.00612931	0.0172036	0.000687006	0.00140355	0.000587177	0.00334968	0.00236438	0.00233694
0.00625367	0.0178224	0.000688228	0.00142467	0.000585744	0.00350503	0.00230923	0.00229787
0.00674907	0.0171991	0.000692885	0.00146397	0.000586877	0.00359177	0.00229421	0.00198729
0.00731291	0.0167073	0.000696494	0.00145978	0.000591255	0.00360434	0.00214157	0.00180656
0.00739432	0.0168438	0.000694839	0.0014628	0.000590903	0.00360415	0.00211454	0.00181119
0.0074367	0.0168577	0.000685119	0.0014861	0.000587598	0.00361099	0.00207912	0.00185953
0.00753472	0.0174855	0.000679891	0.00149785	0.000581826	0.00360656	0.00202923	0.00188383
0.00769764	0.0180294	0.000674402	0.00154836	0.000585766	0.00351064	0.00191453	0.0017926
0.00743775	0.0179444	0.000691241	0.00155619	0.000577358	0.0034848	0.00178921	0.0015858
0.00677666	0.0176483	0.00068987	0.00148624	0.00056676	0.00344269	0.00160906	0.00151806
0.00671998	0.0175475	0.000689102	0.00146376	0.000546644	0.00339275	0.00131074	0.00149472
0.00668742	0.0182463	0.000681012	0.00148992	0.00054741	0.00337152	0.00116181	0.00144763
0.00672164	0.0187724	0.000669406	0.00145723	0.000546044	0.00332463	0.00116047	0.00122581
0.00695232	0.0189904	0.000670358	0.00142858	0.00054438	0.00328743	0.00115233	0.00111583
0.00786735	0.0193727	0.00067063	0.00141457	0.000552373	0.0030543	0.00113956	0.00100502
0.00809151	0.0193961	0.00067983	0.00141648	0.000560358	0.00293559	0.0011367	0.00104269
0.00780996	0.0190784	0.000684247	0.00148443	0.000560176	0.00296258	0.00111161	0.000945628
0.0071969	0.0186184	0.000679321	0.00148513	0.000554028	0.00286329	0.00106665	0.000867305
0.00711977	0.0196832	0.000680336	0.00144266	0.000542329	0.00265898	0.00103338	0.000891287
0.00714745	0.0207468	0.000677326	0.00147642	0.000534643	0.00265435	0.00101309	0.000909295
0.00710106	0.0208086	0.000672428	0.00147623	0.000534256	0.00263758	0.000964946	0.000920306
0.00743664	0.020484	0.000670133	0.00140476	0.000539396	0.00264743	0.00088735	0.000924072
0.00782314	0.0207955	0.000670496	0.00137735	0.000546167	0.00264728	0.000865843	0.000924815
0.00802775	0.0208916	0.000672281	0.00135754	0.000545946	0.00265749	0.00086564	0.000927165
0.00818196	0.0207208	0.00068138	0.00132176	0.00054611	0.00265648	0.000870654	0.000916133
0.00821743	0.0214374	0.000680756	0.00131146	0.000538693	0.00262803	0.000864012	0.000849753
0.008195	0.0212618	0.000673827	0.0013102	0.0005487	0.00259748	0.00086036	0.000846213
0.00806817	0.0220775	0.00067525	0.00130366	0.000556741	0.00249121	0.000857269	0.000848389
0.00790679	0.0218343	0.000676837	0.00128733	0.000564232	0.00237724	0.000821508	0.0008488
0.0071305	0.0206813	0.000676423	0.00125461	0.000557547	0.00234424	0.000798204	0.000871909
0.0069165	0.0205143	0.000681024	0.00124081	0.000553474	0.00221853	0.000784736	0.000867656
0.00678711	0.0196913	0.000675546	0.00124592	0.000553198	0.00211023	0.000769265	0.000848295
0.00673509	0.0194149	0.000678337	0.00124278	0.000554107	0.00201905	0.000756916	0.00088088
0.00671489	0.0193133	0.000685632	0.00125198	0.000546584	0.00193786	0.000755243	0.000903156
0.00668099	0.0184566	0.000686908	0.00125652	0.000549262	0.0018452	0.000751174	0.00092943
0.00664083	0.0183521	0.000683535	0.00122592	0.00054452	0.00179729	0.000758138	0.000898327
0.00640671	0.0181155	0.000688785	0.00122338	0.000553711	0.0018035	0.000771689	0.000914975
0.00584209	0.0177444	0.000684366	0.00118189	0.000552045	0.00175155	0.000731221	0.000927361
0.00597055	0.0177528	0.00068033	0.00111833	0.000552006	0.00167192	0.000715847	0.000927713
0.00593043	0.0176395	0.0006864	0.00110049	0.000564437	0.00159951	0.000700406	0.000955294
0.00582582	0.0172341	0.000687724	0.00109025	0.00056727	0.00141318	0.000706172	0.000958514
0.00551501	0.0172202	0.000677994	0.00106767	0.000566964	0.00130457	0.00071548	0.000955371
0.00496324	0.0172495	0.000672566	0.00107658	0.000566632	0.00120349	0.000702547	0.0009452
0.00483825	0.0171375	0.000679401	0.00109731	0.000573415	0.0011714	0.000690241	0.000958647
0.00483583	0.0168575	0.000675466	0.00106821	0.000574453	0.00112271	0.000684804	0.000946267
0.00480797	0.017051	0.000687849	0.0010706	0.000589141	0.00108688	0.000679723	0.000954621
0.00467632	0.0163461	0.000693212	0.00102337	0.000586782	0.00110278	0.000682558	0.000949579
0.00465654	0.0170203	0.000689854	0.000988183	0.000599031	0.00108326	0.000693255	0.000949798
0.00466125	0.0171526	0.000678685	0.00097668	0.000603376	0.00106909	0.00069518	0.000945599
0.00466051	0.0168624	0.000679058	0.000971617	0.000606775	0.00102106	0.000697962	0.000920801
0.00483556	0.0160849	0.000681408	0.000979755	0.000609923	0.000954811	0.000708128	0.000936048
0.00483144	0.0154158	0.000678449	0.00101665	0.000612081	0.000947656	0.000708898	0.00093469
0.00490406	0.015172	0.000671361	0.00104729	0.000611394	0.000942907	0.000700863	0.000907385
0.00389216	0.0151515	0.00067063	0.00107613	0.000612762	0.000933975	0.000701102	0.000872016
0.00360799	0.0152842	0.000653112	0.00108415	0.000607547	0.000940548	0.000703095	0.000826557
0.00354696	0.0152514	0.000653615	0.00101964	0.000612188	0.000866855	0.000704885	0.000790785
0.00350476	0.0148632	0.000652732	0.000988251	0.000615081	0.000827256	0.000715801	0.000758777
0.00340971	0.0136797	0.000647294	0.000957447	0.000616746	0.000814669	0.000715262	0.000692267
0.00339913	0.0130477	0.000642543	0.000893193	0.000622978	0.000793348	0.000694766	0.000680331
0.00340321	0.0125123	0.000643807	0.000870935	0.000617786	0.000800748	0.000707143	0.000616321
0.00319851	0.0123988	0.000643391	0.000874437	0.000610303	0.000786969	0.000707998	0.000600975
0.00267876	0.0119753	0.000648154	0.000916538	0.000610032	0.000783129	0.000703816	0.000614076
0.00252203	0.0117454	0.000648374	0.000926517	0.000611368	0.000793846	0.00069766	0.000631809
0.0024317	0.0115686	0.000639879	0.000938373	0.00061112	0.000807252	0.000697575	0.000623232
0.002397	0.0106745	0.000631928	0.000955431	0.000613304	0.000806433	0.000694347	0.00062537
0.00227197	0.0100326	0.000627758	0.000990693	0.000598624	0.00081063	0.000712716	0.000657285
0.00221794	0.00899579	0.000628962	0.00100708	0.000587642	0.000805289	0.000709669	0.000658456
0.00221168	0.00862495	0.000630061	0.00101189	0.00058061	0.000802125	0.0007124	0.00068528
0.00220083	0.00858996	0.00062317	0.0010164	0.000576162	0.000810783	0.000716711	0.00068637
0.00219568	0.00843645	0.000622817	0.0010261	0.000577501	0.000807875	0.000726274	0.000678437
0.00220257	0.00839887	0.000618897	0.00104282	0.000585727	0.000808806	0.000747478	0.00067118
0.00220185	0.00839755	0.000620247	0.00105513	0.000586765	0.000813747	0.000775138	0.00067892
0.00219546	0.00839279	0.000611498	0.00106431	0.00059055	0.000813234	0.000779463	0.000685005
0.00217204	0.00818695	0.000610489	0.00105572	0.000592041	0.000783405	0.00077877	0.000691043
0.00207749	0.00785495	0.000604919	0.00106378	0.000586676	0.00076834	0.000781271	0.000674744
0.00104058	0.00272371	0.000495676	0.000599241	0.000286514	0.000330357	0.00393627	0.00349704
0.001123	0.00285972	0.000523739	0.000659861	0.000326887	0.000378736	0.00389519	0.00477957
0.00131297	0.00294607	0.000547351	0.000725626	0.000356669	0.000423968	0.00378922	0.00588715
0.00137837	0.00305012	0.000561239	0.00079782	0.000421518	0.000469811	0.00371083	0.0069747
0.00141288	0.00298199	0.000584291	0.000908243	0.000454674	0.000532061	0.00352328	0.0073037
0.00142626	0.00290915	0.00061233	0.00100763	0.000499713	0.000581791	0.0035611	0.00698958
0.00149688	0.00306627	0.000643106	0.00107739	0.000543924	0.00063652	0.00359946	0.00670955
0.00159965	0.00349437	0.00063901	0.00107027	0.000555848	0.000647362	0.00373923	0.00607494
0.00150924	0.0035971	0.000645718	0.00105725	0.00056933	0.000649087	0.00362236	0.0051419
0.00157764	0.00377159	0.000651673	0.0010896	0.000578668	0.000640267	0.0035765	0.00568879
0.00154353	0.00345896	0.000662524	0.00108353	0.000565058	0.000640182	0.00351777	0.00568633
0.0014772	0.00308495	0.000679577	0.00108516	0.000572035	0.000645505	0.00343595	0.0055463
0.00140029	0.00294364	0.000669296	0.00110011	0.000568258	0.00062432	0.00333784	0.00652337
0.00139494	0.0028303	0.000664163	0.00113366	0.000577495	0.000629621	0.00343434	0.00632155
0.00135817	0.00269167	0.000665672	0.00117532	0.000580357	0.000636408	0.0034975	0.00673076
0.00130858	0.00246743	0.000698943	0.00120038	0.000556251	0.000628734	0.00363513	0.00647239
0.00130576	0.00246326	0.000695798	0.00121869	0.000562804	0.000620956	0.00388033	0.00722903
0.00131469	0.00245102	0.000691832	0.00123543	0.000553884	0.000626274	0.00395377	0.00713461
0.00131828	0.00226593	0.000680579	0.00123539	0.000536956	0.000619088	0.00382103	0.00670462
0.00140631	0.00173184	0.000681857	0.00125851	0.000539968	0.000609754	0.00388971	0.00744005
0.0014592	0.00166754	0.000682888	0.00126734	0.000537519	0.000619553	0.00393019	0.00738693
0.00138722	0.00144165	0.000670855	0.00130436	0.000541447	0.000617441	0.00391271	0.00698469
0.00125041	0.00139593	0.00065669	0.00131467	0.000558915	0.000620442	0.00396131	0.00613688
0.00133483	0.00164433	0.000661089	0.00137977	0.000568462	0.000604394	0.00409549	0.00607649
0.00153813	0.00112376	0.000666544	0.0013658	0.000572466	0.000605204	0.00432236	0.00531188
0.00157862	0.000978307	0.000656605	0.00135502	0.000558655	0.000594095	0.00423431	0.00496298
0.00144665	0.000990903	0.000664345	0.00135576	0.000565056	0.000592526	0.00420696	0.00496787
0.0014458	0.00120515	0.00065318	0.00138007	0.000566178	0.000596274	0.00435077	0.00559607
0.00163163	0.001198	0.000652637	0.00134233	0.00056761	0.000585748	0.00438788	0.00558651
0.00165886	0.00120455	0.000648926	0.00136621	0.000583796	0.000582292	0.00434872	0.00608225
0.00168633	0.001206	0.000656131	0.00144038	0.000589769	0.000576382	0.00449823	0.00664456
0.00149345	0.00116464	0.000668707	0.00144861	0.000602397	0.000578899	0.00439489	0.00679515
0.00144204	0.00117933	0.000664459	0.00138673	0.000589571	0.000573195	0.00423489	0.00637807
0.00143217	0.00127586	0.000684247	0.00131331	0.000578438	0.000586844	0.00421431	0.00562138
0.00150747	0.00125715	0.000676334	0.00132246	0.000565947	0.000574318	0.00427536	0.00609997
0.00158811	0.00107415	0.000672361	0.00125825	0.000554534	0.000581878	0.00410806	0.00583747
0.0014352	0.00134811	0.000664966	0.00121216	0.000554767	0.000585856	0.0038082	0.00541193
0.0013641	0.00132387	0.00067511	0.00122271	0.000548094	0.00058329	0.00391367	0.00483046
0.00150826	0.0013069	0.000674663	0.00120205	0.000531447	0.000577327	0.00403053	0.00490904
0.00150196	0.00110017	0.000660039	0.00116578	0.000524106	0.000587813	0.00376728	0.0049874
0.00136672	0.00117722	0.000656898	0.00116846	0.000519796	0.000583513	0.00375229	0.0044801
0.00152603	0.00139082	0.000663158	0.00108128	0.000507436	0.000587483	0.0035165	0.00393984
0.00156391	0.00143939	0.000667795	0.00102256	0.000502	0.000582662	0.00354359	0.00382855
0.00165741	0.00141446	0.000670964	0.00101634	0.0004827	0.000587207	0.00362671	0.00365548
0.00169415	0.00140384	0.000695077	0.00101574	0.000479933	0.000589629	0.00384225	0.00438856
0.00175549	0.00136415	0.000679208	0.00107948	0.000480279	0.000587996	0.00389744	0.00448002
0.00160705	0.00139052	0.000697377	0.00111168	0.000496175	0.000596639	0.00396816	0.00433422
0.00167297	0.00135461	0.00068926	0.00109429	0.000515263	0.000595206	0.00400689	0.00476391
0.00166801	0.00108264	0.000692087	0.0011058	0.000513859	0.000594842	0.00410308	0.00518557
0.0016876	0.00136584	0.000694885	0.00110878	0.000522495	0.000604972	0.00399927	0.00587163
0.00171063	0.0013826	0.000687338	0.00115994	0.000541228	0.000604784	0.00394494	0.00568005
0.00179309	0.00137829	0.00068234	0.00119188	0.000549824	0.000599904	0.00391439	0.00571048
0.00177548	0.00131285	0.000694354	0.00121321	0.000539937	0.000618741	0.00398085	0.00577487
0.00167761	0.00111629	0.000701466	0.00127017	0.000535149	0.000618366	0.00395527	0.00559992
0.00158869	0.00103983	0.000686352	0.00133235	0.000544535	0.000610152	0.0040178	0.00470593
0.00146015	0.00108762	0.000683529	0.00134096	0.000552716	0.000624002	0.00391522	0.00455773
0.00149707	0.00112854	0.000662152	0.00135901	0.000561756	0.000633891	0.00379447	0.00428883
0.00148741	0.00136245	0.000674874	0.00129941	0.000586953	0.000623052	0.00389677	0.00345757
0.0015865	0.00134944	0.000672822	0.00125577	0.000576143	0.000603575	0.00381995	0.00384354
0.00150385	0.00140481	0.000677098	0.00125333	0.000560074	0.000601784	0.00392761	0.00517228
0.00146264	0.00138725	0.000683514	0.00128425	0.000566012	0.000601641	0.00386861	0.00588613
0.00138335	0.00109288	0.000669625	0.00131147	0.000562127	0.000595105	0.00414047	0.00532915
0.00140606	0.00108262	0.000671678	0.00126587	0.000555177	0.000599456	0.00430981	0.00524143
0.00143559	0.00113754	0.000679729	0.00124752	0.000548532	0.000607741	0.0043417	0.0055912
0.00147566	0.00145052	0.000670999	0.00118887	0.000561969	0.000583371	0.00418188	0.00603646
0.00140439	0.00145007	0.000662872	0.00115421	0.000570997	0.00056994	0.00423723	0.00458125
0.00151965	0.00151745	0.000664926	0.00111519	0.000572439	0.000573583	0.00419977	0.0039022
0.00167903	0.00150166	0.000665487	0.00109427	0.000597069	0.000553145	0.00418391	0.00414029
0.00168901	0.00143879	0.000660682	0.00105934	0.000602799	0.000541667	0.00410652	0.00420466
0.0017307	0.00115345	0.00065364	0.0010893	0.000595393	0.000535992	0.00404618	0.00451191
0.0016515	0.0013879	0.00064905	0.0010988	0.000593317	0.000548638	0.00401878	0.00362172
0.00171263	0.00134449	0.000636533	0.00111937	0.000595558	0.000548307	0.00412282	0.00417907
0.00167189	0.00135181	0.000633594	0.00108397	0.000596874	0.000556659	0.00404771	0.00500216
0.00174026	0.0014279	0.00064296	0.00104006	0.00059867	0.000564865	0.00383798	0.00469467
0.00168554	0.00144413	0.000641299	0.00102143	0.000600291	0.00055372	0.00367413	0.00479996
0.00161011	0.00138173	0.000642774	0.00104423	0.000600755	0.000536743	0.00375518	0.00508704
0.00165048	0.0010725	0.000650333	0.00105963	0.000595208	0.000552438	0.00389647	0.00511503
0.00165216	0.00110862	0.00064483	0.00105208	0.000590224	0.000559908	0.00386847	0.00483877
0.00160395	0.00134267	0.000647839	0.0010264	0.000582637	0.000568668	0.00372422	0.00418247
0.00157885	0.0013389	0.000656405	0.00102173	0.000553253	0.000574547	0.00375119	0.00438614
0.00154789	0.00136918	0.000649949	0.0010767	0.000541663	0.000567207	0.00387348	0.00416089
0.0015542	0.00137828	0.000646915	0.00104772	0.000516134	0.000567851	0.00374757	0.0042329
0.00168366	0.00120231	0.000639712	0.00106316	0.000517088	0.000567862	0.0035824	0.00434687
0.00156378	0.00136593	0.000657761	0.00102461	0.000511255	0.000579089	0.00339621	0.00431708
0.00163701	0.00136374	0.000655872	0.00106179	0.00051766	0.000573094	0.00343889	0.00405338
0.00168822	0.00132025	0.000670381	0.0010775	0.000522365	0.000548839	0.00347044	0.00426111
0.00159266	0.00129324	0.000667664	0.00110774	0.000506539	0.000565346	0.0034732	0.00425745
0.00170497	0.0013114	0.000661471	0.00112025	0.000510908	0.000572061	0.00331794	0.0039164
0.0015929	0.00131339	0.000669609	0.00111731	0.000525811	0.000584328	0.00330116	0.00379176
0.00167973	0.00134112	0.000682932	0.0011189	0.000528774	0.000587118	0.00326992	0.00380892
0.00171649	0.00103558	0.000691729	0.00112052	0.00052116	0.000594832	0.00330582	0.00420286
0.00174879	0.00109971	0.000683268	0.00111601	0.000530054	0.000602492	0.00343694	0.00390455
0.00173653	0.00109757	0.00069713	0.0010874	0.000535551	0.000612067	0.00334281	0.00403743
0.0016367	0.00143047	0.000699666	0.00109808	0.000548493	0.000628484	0.00340539	0.00392622
0.00146847	0.00138518	0.000702047	0.0011395	0.000556349	0.000638604	0.0035477	0.00396754
0.00150258	0.00117328	0.000681766	0.00116215	0.000571365	0.000632292	0.00369486	0.00348476
0.00147007	0.00116618	0.000675208	0.00111462	0.000549509	0.000647727	0.00365627	0.00327652
0.00148292	0.00114181	0.000650971	0.00111973	0.000538271	0.000662485	0.00359418	0.00336451
0.00156482	0.00140235	0.000662756	0.00111314	0.000535892	0.000663978	0.00363802	0.00305606
0.00147271	0.00146831	0.000651072	0.00110041	0.000530197	0.000653676	0.00363808	0.0032502
0.00388755	0.00838975	0.000654699	0.00144012	0.00053041	0.000978501	0.00177649	0.00136687
0.00419954	0.00922733	0.000657942	0.00144721	0.000526898	0.00100801	0.00181349	0.00135675
0.00425049	0.0101885	0.000654361	0.0014608	0.000533007	0.00104482	0.00187017	0.00137763
0.00423628	0.0103063	0.000657475	0.00149533	0.000531692	0.00106475	0.0020127	0.00153344
0.00407148	0.0103322	0.000662195	0.00153731	0.000528537	0.00106871	0.00204634	0.00160833
0.00403008	0.00996284	0.000670322	0.00158921	0.000525539	0.0010786	0.00204501	0.0016939
0.00412331	0.00996443	0.000669084	0.00158104	0.000523587	0.00109666	0.00203798	0.00190282
0.00398238	0.00995681	0.000671277	0.00157439	0.000522484	0.00111893	0.00202853	0.00201395
0.00400126	0.0101043	0.000663898	0.00161717	0.000530139	0.00116325	0.00201829	0.00197423
0.00390676	0.0101788	0.000662098	0.00159375	0.000536218	0.00119327	0.00199004	0.00171025
0.00350518	0.0104227	0.000652525	0.00151721	0.000535602	0.00119768	0.00190478	0.00173304
0.00288653	0.0107974	0.000657985	0.0014508	0.000542677	0.00124763	0.00185276	0.00197304
0.00313726	0.0114525	0.000659983	0.00145972	0.0005325	0.0012535	0.00182196	0.00197084
0.00326206	0.0109645	0.00066045	0.00141731	0.000532011	0.00125732	0.00176231	0.00199099
0.00329964	0.0101056	0.000660292	0.00137263	0.000527797	0.0012875	0.00175132	0.00197587
0.00329181	0.00997437	0.000662098	0.00138584	0.000532271	0.00133392	0.00172145	0.00200602
0.00318655	0.00997838	0.000678912	0.00139343	0.000533432	0.00133588	0.00169347	0.00199837
0.00313598	0.00998831	0.000688766	0.00138603	0.000535216	0.00125957	0.00168124	0.00198707
0.00310062	0.00952863	0.000691629	0.00138645	0.00053496	0.00124599	0.0016844	0.00184122
0.00314763	0.00951056	0.000698091	0.00133788	0.000556057	0.00125974	0.00153919	0.00172002
0.00316316	0.0099669	0.000697376	0.00131218	0.000560985	0.00128992	0.00143988	0.00172691
0.00330476	0.0100472	0.000701562	0.00129885	0.000561682	0.00130354	0.00141001	0.0015181
0.0030711	0.0100839	0.000702175	0.00127276	0.000565688	0.00126181	0.00138937	0.00141753
0.00328012	0.0108247	0.000698478	0.00129033	0.000567534	0.00126647	0.00139187	0.00120227
0.00339287	0.0109359	0.000691501	0.00130545	0.000565092	0.00127251	0.00139306	0.00112349
0.00334872	0.0109855	0.000685347	0.00130784	0.000569469	0.0013064	0.00138825	0.00109164
0.00334436	0.010576	0.000693335	0.00133667	0.000572251	0.00131769	0.00135391	0.000860615
0.00332028	0.0106444	0.000687157	0.00126048	0.000572528	0.00135274	0.00128657	0.000798128
0.00347666	0.0113003	0.000686836	0.00124615	0.000567572	0.00141125	0.00129221	0.000796151
0.00326684	0.0117095	0.00068493	0.00123512	0.000567256	0.00151245	0.00124148	0.000789291
0.003288	0.0123494	0.000697694	0.00117872	0.000573348	0.00155643	0.00109804	0.000786105
0.00331674	0.0118341	0.000692853	0.00112678	0.000573987	0.00162615	0.00104687	0.000769413
0.00336801	0.011102	0.000686971	0.00112465	0.000567395	0.00162767	0.00101089	0.000838375
0.00332104	0.0103065	0.000675447	0.00111331	0.000559613	0.00165998	0.000944518	0.000863478
0.00332165	0.0109879	0.000675166	0.00106165	0.000570157	0.00169999	0.000801171	0.000864115
0.0033604	0.0115004	0.000681378	0.00101521	0.000569652	0.00177833	0.000790582	0.000861636
0.0032831	0.0118764	0.000687986	0.000995407	0.000568142	0.00184737	0.000788139	0.000845635
0.00325462	0.012286	0.000690328	0.000996843	0.000567735	0.00185894	0.000785725	0.000864588
0.00395936	0.01254	0.000689014	0.000994379	0.000572162	0.00185351	0.000768334	0.000855513
0.00438238	0.0120549	0.000692273	0.00094647	0.000565855	0.00181939	0.000770272	0.000836119
0.00447853	0.012248	0.00069365	0.000964087	0.000570277	0.00179859	0.000779387	0.000869627
0.00449575	0.0128313	0.000695845	0.000995294	0.000563754	0.00177272	0.000782904	0.000862868
0.00516058	0.0126545	0.000685973	0.000977858	0.000552008	0.00177139	0.000793422	0.000886839
0.00529513	0.0122124	0.000687106	0.000933589	0.000562193	0.00187411	0.000800648	0.000855962
0.00527646	0.012171	0.000687316	0.000936671	0.000561498	0.00188113	0.000783947	0.000842332
0.00525114	0.0121377	0.000685499	0.000901638	0.000563234	0.00184711	0.000774556	0.000809132
0.00525648	0.0123051	0.000676472	0.000876686	0.000562815	0.00180499	0.000768515	0.000819725
0.00527027	0.0134469	0.000676279	0.000875676	0.000575918	0.00176833	0.000749806	0.000736281
0.0060632	0.0136769	0.000661307	0.000862452	0.000573246	0.00175916	0.00070595	0.000698433
0.00643261	0.01377	0.000673511	0.000866662	0.000568209	0.0017517	0.000699137	0.000743513
0.00667355	0.0137526	0.000672152	0.000865695	0.000557344	0.00173427	0.000694991	0.000800246
0.0067419	0.013932	0.000673509	0.000847609	0.000558593	0.0017243	0.000676963	0.000799584
0.00738304	0.0148804	0.000665661	0.000807917	0.000561566	0.00172696	0.000685947	0.000770991
0.0074248	0.0148186	0.000669985	0.000776434	0.000557856	0.00168182	0.000669771	0.000760258
0.00739249	0.0141164	0.000674227	0.000741088	0.000555698	0.00173375	0.000662801	0.000770755
0.00768746	0.0142379	0.000688421	0.000726727	0.000562006	0.00177072	0.000675402	0.00076
0.00771386	0.014555	0.000688208	0.000691302	0.000564431	0.00174614	0.000689382	0.000743402
0.00786241	0.0156029	0.000694594	0.000643382	0.000566101	0.00175056	0.000684688	0.000739249
0.0078312	0.0166584	0.000698869	0.000634718	0.000591674	0.00170042	0.000681326	0.000777506
0.00851856	0.0160185	0.000708428	0.00062769	0.000623615	0.00162214	0.000675927	0.000864205
0.00861689	0.0158738	0.000716897	0.000634027	0.00065221	0.00154905	0.000673095	0.000893897
0.00859006	0.0155997	0.000709824	0.000624893	0.000674546	0.00152427	0.000664242	0.000906317
0.00855143	0.0156759	0.000713652	0.000622013	0.000687191	0.00144621	0.000660355	0.000892261
0.00837797	0.0156963	0.000719372	0.000625366	0.000702112	0.00147609	0.00065695	0.000889318
0.00838587	0.0155148	0.000725226	0.000620247	0.000702357	0.00140675	0.000656056	0.000958651
0.00839917	0.0150262	0.000731995	0.000618411	0.000713597	0.0013506	0.000662132	0.000997441
0.00833317	0.0149259	0.000723781	0.000620463	0.000730803	0.001252	0.000658668	0.0010235
0.00833486	0.0152358	0.000720195	0.000613408	0.000742211	0.00119162	0.000656201	0.00102566
0.00822653	0.0151053	0.000718607	0.000611473	0.00074182	0.00116372	0.000661286	0.00103248
0.00733086	0.0148812	0.000720947	0.000616086	0.000744892	0.00114229	0.000662169	0.00103261
0.0070149	0.0147206	0.000746951	0.000616442	0.000748779	0.0011383	0.000655224	0.00102454
0.00695721	0.0143234	0.000759245	0.000601961	0.000784279	0.00115598	0.000642584	0.00104905
0.00687236	0.0134859	0.00076959	0.000591562	0.000790324	0.00116958	0.000640923	0.00105499
0.00592006	0.0133776	0.000770139	0.000592076	0.000796139	0.00110664	0.000628432	0.00106204
0.00563231	0.0129711	0.000773816	0.000623396	0.000802744	0.00105102	0.000623295	0.000987308
0.00558305	0.0128174	0.000783889	0.000666936	0.000800347	0.00103578	0.00061741	0.000967861
0.00557657	0.0128859	0.000783814	0.000674235	0.000807561	0.0010528	0.000620581	0.00104836
0.00556415	0.012399	0.000787122	0.000685488	0.000812492	0.00106824	0.000627562	0.0010755
0.00525672	0.0115886	0.000780973	0.000717243	0.00080606	0.00106782	0.000650655	0.00109148
0.00475832	0.0113935	0.000792779	0.000745491	0.000816062	0.00107317	0.000666247	0.00107033
0.00457595	0.0110077	0.000793401	0.000753182	0.000811661	0.00109464	0.000675321	0.00101444
0.00437351	0.0104073	0.000786657	0.000767903	0.000819183	0.00107542	0.000680853	0.0008957
0.00420458	0.00949978	0.000786619	0.000774711	0.000809244	0.00109486	0.000691122	0.000903636
0.00338762	0.0088935	0.000803388	0.000792156	0.000811529	0.00111083	0.000715925	0.00090676
0.00324962	0.00876702	0.000804077	0.00081335	0.000813378	0.00113499	0.000744256	0.000922741
0.00280846	0.00864878	0.000794346	0.000938126	0.000813172	0.00105608	0.000717865	0.00101165
0.0026283	0.00802251	0.000807195	0.000978617	0.000817755	0.0010507	0.00071269	0.00107326
0.00257355	0.00730353	0.000806083	0.00101597	0.000811944	0.00104782	0.000706738	0.00105363
0.00242653	0.00618178	0.000810102	0.00101588	0.000815183	0.0010338	0.000706057	0.00103195
0.00210707	0.00530943	0.000801187	0.00101958	0.000789705	0.00102334	0.000705405	0.00101566
0.00141143	0.00526975	0.000796242	0.00104112	0.000752265	0.000986963	0.00070237	0.00100449
0.00137997	0.00489418	0.00079235	0.00105555	0.00074524	0.000985136	0.000707176	0.000946854
0.00118497	0.00457607	0.000800203	0.00109901	0.000738519	0.000962912	0.000712057	0.000944615
0.00109099	0.00451285	0.000803433	0.0011184	0.000729059	0.000925017	0.000717041	0.00112808
0.00107766	0.00452715	0.000801491	0.00113127	0.000718582	0.000904097	0.000728473	0.00125705
0.00106782	0.00456621	0.000807697	0.00114323	0.000743595	0.000903225	0.000750483	0.00140804
0.00105083	0.00415255	0.000826918	0.00121503	0.00074714	0.000906616	0.000746709	0.00148987
0.00101588	0.00391299	0.000833586	0.00123805	0.000741055	0.000917145	0.000745372	0.00148898
0.000946999	0.00303798	0.00083418	0.0012498	0.000743222	0.000931712	0.000747683	0.00147378
0.000944518	0.00274294	0.000837588	0.00124869	0.000746551	0.000928875	0.000748159	0.00148707
0.00104058	0.00272371	0.000495676	0.000599241	0.000286514	0.000330357	0.00393627	0.00349704
0.00111947	0.00286401	0.000521955	0.000650444	0.000324833	0.000375407	0.00387015	0.00465671
0.00129748	0.00284047	0.000545027	0.000708577	0.000353511	0.000416568	0.00378728	0.00567957
0.00135711	0.00303958	0.000556857	0.000770283	0.000400733	0.000460004	0.00372669	0.0066698
0.00141627	0.00299835	0.000573055	0.000866939	0.000438834	0.000511029	0.00359035	0.00744025
0.0014185	0.0029524	0.000597961	0.000939314	0.000473603	0.000553974	0.00344612	0.00702399
0.00143247	0.00291611	0.000625363	0.00103392	0.00051514	0.000613943	0.00357568	0.00722605
0.00158487	0.00351624	0.000640799	0.00109221	0.000549901	0.000644218	0.00363424	0.00659456
0.00160025	0.00349265	0.000642475	0.00108407	0.000559232	0.000646162	0.00373488	0.00602722
0.00149953	0.00365845	0.000645163	0.00105914	0.0005694	0.000650176	0.00359804	0.0051104
0.00157802	0.00377477	0.000652212	0.00109028	0.000580584	0.000640615	0.00357661	0.00567242
0.00156681	0.003652	0.000660478	0.00108587	0.000566532	0.000639107	0.00352167	0.00571293
0.00148858	0.00310494	0.00067554	0.00106012	0.000570907	0.000643893	0.00343972	0.00573269
0.00139646	0.00303004	0.000672556	0.0010984	0.00057589	0.000637447	0.00345111	0.00619938
0.00139412	0.00283185	0.000663992	0.00111676	0.000578122	0.000611868	0.00334873	0.00655703
0.00137224	0.00280254	0.000666698	0.00116689	0.000578047	0.00063711	0.00348776	0.00637726
0.00131504	0.00256626	0.000673075	0.0011754	0.000580129	0.000631685	0.00341125	0.00617765
0.00129503	0.00246379	0.000696343	0.00119229	0.000563309	0.00062592	0.00365724	0.0065202
0.00130629	0.00245834	0.000697842	0.00124063	0.000563537	0.000623436	0.00400909	0.00744862
0.0013456	0.0024505	0.000690701	0.00124071	0.000548637	0.000620692	0.00394237	0.00721936
0.00130977	0.00225769	0.000681405	0.00123127	0.000537383	0.000619535	0.00383518	0.00667348
0.00140134	0.00173063	0.000678895	0.00124068	0.000541623	0.00060355	0.00380752	0.00728046
0.00145815	0.00173199	0.000687719	0.00125722	0.000544441	0.00061805	0.00389082	0.00737085
0.00141045	0.00147262	0.000676269	0.00128987	0.000542134	0.000620698	0.00391565	0.00729993
0.00133099	0.00140083	0.000654622	0.00130778	0.000548714	0.000615308	0.003935	0.00641031
0.00129968	0.00159814	0.000659187	0.00137789	0.000563444	0.000613625	0.00402461	0.00599761
0.00147608	0.00164499	0.000665389	0.0013551	0.00056948	0.000606821	0.00412583	0.00545683
0.00157106	0.00101819	0.000660211	0.0013774	0.000567838	0.000603868	0.00436114	0.00509025
0.00156573	0.000985033	0.000657454	0.0013689	0.0005638	0.000594049	0.00416442	0.00484475
0.00144613	0.000998781	0.000658569	0.00137617	0.000566297	0.000593972	0.00429189	0.00523453
0.00144789	0.00120692	0.000654136	0.00137479	0.000564907	0.000596663	0.00432753	0.00559286
0.00162237	0.00119828	0.000652348	0.00133816	0.000569104	0.000582352	0.00435676	0.00564207
0.00165717	0.00120506	0.000647246	0.00137376	0.000577216	0.000578085	0.00434766	0.0060165
0.00168842	0.00120747	0.000651414	0.00141088	0.000584314	0.000584276	0.00450084	0.00627998
0.00157372	0.00115606	0.000657783	0.00144102	0.00059592	0.000580904	0.00449979	0.00688066
0.00145908	0.0011786	0.000665308	0.00140387	0.000600693	0.000563851	0.0042594	0.0065575
0.00144462	0.00125082	0.00067575	0.00132879	0.000582703	0.000578276	0.00412848	0.00593461
0.00141827	0.00126412	0.00068137	0.00131272	0.000576303	0.000584184	0.00422223	0.00591207
0.00152248	0.00122881	0.000677125	0.00129871	0.000564062	0.000576706	0.00425579	0.00587852
0.00154827	0.0011523	0.000675151	0.00124772	0.000551191	0.000583024	0.00408162	0.00587346
0.00143514	0.00134864	0.000667427	0.00120814	0.000553626	0.000587434	0.00378636	0.00526138
0.00137391	0.00132513	0.000675513	0.00122681	0.000548177	0.000583121	0.00389843	0.00483039
0.00150045	0.00130651	0.000686459	0.00122247	0.000533294	0.000579089	0.00401049	0.00481512
0.00150193	0.00114426	0.000670696	0.00116236	0.000523795	0.000581616	0.00377726	0.00505617
0.00144738	0.00114902	0.000660879	0.00116682	0.000524924	0.000584517	0.00386888	0.00473911
0.00144792	0.00117217	0.000661698	0.00109467	0.000508528	0.000588604	0.00362423	0.00436761
0.00147805	0.00144135	0.000670447	0.00107933	0.000509195	0.000583701	0.00353379	0.00378695
0.00164314	0.00143632	0.000670659	0.00105632	0.000498913	0.000586016	0.00367219	0.00391223
0.00168572	0.00139548	0.000670338	0.00102823	0.000471978	0.000582509	0.00366485	0.00355156
0.00169787	0.00138447	0.000693383	0.00102116	0.000479144	0.000585062	0.00384422	0.00436049
0.00175583	0.00136234	0.0006753	0.00107547	0.000478686	0.000587771	0.00385728	0.00460402
0.00160985	0.00138949	0.000698182	0.00111062	0.000495328	0.000597762	0.00397327	0.00432844
0.00172999	0.00138456	0.000687979	0.0010913	0.000513639	0.000596601	0.00397784	0.0046652
0.00160438	0.00105317	0.000682963	0.00111308	0.000507011	0.000597181	0.00412168	0.00518736
0.00169116	0.00130848	0.000687659	0.00111639	0.000521665	0.000599534	0.00406658	0.00565826
0.0017482	0.00137539	0.000682933	0.00115083	0.000535167	0.000596954	0.00400059	0.00651291
0.00172191	0.00137694	0.000686343	0.00116814	0.000541846	0.000601046	0.00387151	0.0055265
0.00181678	0.00137373	0.000687998	0.00117885	0.000541883	0.00060677	0.00384935	0.00548919
0.00177311	0.0013169	0.000697854	0.00123507	0.000540966	0.000617742	0.00399872	0.00556707
0.00169137	0.00103894	0.000693506	0.00129414	0.000538717	0.000611144	0.0039824	0.00565657
0.00154426	0.00104354	0.000685574	0.00133751	0.000545947	0.000614142	0.00400371	0.00467762
0.00145987	0.00108833	0.000683203	0.00134116	0.000552487	0.000624059	0.00391556	0.00455624
0.00148507	0.00112855	0.00066441	0.00135804	0.000560625	0.000633641	0.00378315	0.00427157
0.0015195	0.00137263	0.000677964	0.00129874	0.00058196	0.000621839	0.00378182	0.00363938
0.00148307	0.00134834	0.000675954	0.00127641	0.000593493	0.000604289	0.00379851	0.0033886
0.00154974	0.00140168	0.000676009	0.0012488	0.000558842	0.000604264	0.00383876	0.00502805
0.00150008	0.00140195	0.000686896	0.0012378	0.000559493	0.000600207	0.00390503	0.0052689
0.00138947	0.00133117	0.000676074	0.00130912	0.000569257	0.00060002	0.00393419	0.00575917
0.00138966	0.00108025	0.000667328	0.00130168	0.000558065	0.000595274	0.00408612	0.00553624
0.0014319	0.0010856	0.000670118	0.00127574	0.000559256	0.000599668	0.00432877	0.00523266
0.00143494	0.00115277	0.000676781	0.00123813	0.000548432	0.000606603	0.00434669	0.00579905
0.00147822	0.00145128	0.000671813	0.00118764	0.000561466	0.000583274	0.0041765	0.00604063
0.00140865	0.00144834	0.000662465	0.00115164	0.000568257	0.000566437	0.00420743	0.00467477
0.00150942	0.00150631	0.000667152	0.00113754	0.000571895	0.000571318	0.00426131	0.00391808
0.00162795	0.00152516	0.000659272	0.00112385	0.000594379	0.000558957	0.0042917	0.00380293
0.00176549	0.00144509	0.000661828	0.00107428	0.000608997	0.000545229	0.00414661	0.00415602
0.00169832	0.00130938	0.000664511	0.00109097	0.000595476	0.000537208	0.00419796	0.00462628
0.00175992	0.00132026	0.000653395	0.00111013	0.000592354	0.00054574	0.00405595	0.00369189
0.0016401	0.0013789	0.000649158	0.00110935	0.000593957	0.000548596	0.00403152	0.00336942
0.00170988	0.00135169	0.000630749	0.00112554	0.000592002	0.000549723	0.00403226	0.00441265
0.00167204	0.00135808	0.00063644	0.00107083	0.000591825	0.000559248	0.00400973	0.00499696
0.00174708	0.00143376	0.000643581	0.00103899	0.000599643	0.000565518	0.00383079	0.00466936
0.00169996	0.00144352	0.000639571	0.00101981	0.000601799	0.000554385	0.00366919	0.00478918
0.00164511	0.00139994	0.0006484	0.00104196	0.00059823	0.000541032	0.0037783	0.00499734
0.0016455	0.00108545	0.000648079	0.00105575	0.000599063	0.000540424	0.00390698	0.00513458
0.00164238	0.00109064	0.000650136	0.00107635	0.000589678	0.000554506	0.003917	0.00511413
0.00158472	0.00135367	0.000643531	0.00102163	0.000587276	0.000561322	0.00374688	0.00423213
0.0016405	0.00133602	0.000651843	0.00102043	0.000580379	0.000569313	0.00371755	0.00420547
0.00150413	0.00134528	0.000654158	0.0010168	0.000542961	0.000570312	0.00380227	0.00432941
0.00155924	0.00137294	0.000645828	0.00108503	0.0005396	0.000569537	0.00387079	0.00402969
0.00155828	0.00136355	0.000639532	0.00104962	0.000518707	0.000563986	0.00367781	0.00439226
0.00168701	0.00124927	0.000641712	0.00106338	0.000518289	0.000568901	0.00357916	0.00434786
0.00155496	0.00137115	0.000658541	0.00103372	0.000511938	0.000579239	0.00340256	0.00430817
0.00158757	0.00135737	0.000654768	0.0010555	0.000522763	0.000569024	0.00341034	0.00401417
0.00169991	0.00134317	0.000669039	0.00107863	0.000527851	0.000554184	0.00349878	0.00425399
0.00156672	0.00129828	0.000668372	0.00107656	0.000511944	0.000559107	0.00343772	0.00433663
0.00169327	0.00129894	0.000663473	0.00111383	0.000506272	0.000565237	0.00335416	0.00374297
0.00167957	0.00130472	0.000673217	0.00111032	0.000514772	0.000574125	0.00339428	0.00390768
0.00167791	0.00133521	0.000672801	0.00112989	0.000525776	0.000586876	0.00326441	0.00381247
0.00167201	0.00126815	0.000681473	0.00111325	0.000528022	0.000592376	0.00328642	0.00379372
0.00356396	0.00593969	0.000725976	0.00122196	0.000529397	0.000922361	0.00151442	0.000996074
0.00359107	0.00605956	0.000686743	0.00124369	0.000520793	0.000928564	0.00152249	0.00097623
0.00366587	0.00619304	0.000682872	0.00124762	0.00052207	0.00105465	0.00154359	0.000987176
0.00376128	0.00658882	0.000682065	0.0012606	0.000525024	0.00124195	0.0016057	0.00100941
0.00383842	0.00675443	0.000690983	0.00129235	0.000527694	0.00128857	0.00167302	0.000983825
0.00429103	0.0069653	0.000695895	0.00135389	0.000530582	0.00139189	0.00177595	0.0010536
0.00496657	0.00699018	0.000701987	0.00137099	0.000557712	0.00148993	0.00188279	0.0010641
0.00503529	0.00711731	0.000701151	0.00141847	0.000564911	0.00150906	0.00193237	0.00108762
0.0050265	0.00751914	0.000705193	0.00148806	0.00056043	0.00154551	0.00193831	0.00109497
0.00509431	0.00783404	0.00071672	0.00160707	0.000554213	0.00155854	0.00195786	0.001113
0.00512374	0.00786077	0.000719652	0.0017073	0.000554675	0.00157997	0.00200322	0.00140225
0.00512546	0.00787334	0.000723009	0.00172108	0.000550511	0.0015983	0.00203378	0.00146506
0.00503432	0.00847522	0.000721093	0.00171745	0.000563517	0.00167416	0.00209465	0.00145272
0.00508656	0.0090214	0.000720155	0.00179541	0.00056676	0.00178505	0.00210414	0.00150431
0.00496116	0.0091107	0.000720018	0.001831	0.000563753	0.0018118	0.00213426	0.00161641
0.00505349	0.00957597	0.000714416	0.00180299	0.00056013	0.00182901	0.00211989	0.00186721
0.0051265	0.00989961	0.000710846	0.00175247	0.00056469	0.00190055	0.00208367	0.00205654
0.00513292	0.00985941	0.000707975	0.00170966	0.000570017	0.00193552	0.00201944	0.00204441
0.00513678	0.00948958	0.000700388	0.00164312	0.000571148	0.00196834	0.00199914	0.00222084
0.00489477	0.00941628	0.000691624	0.00158582	0.000574074	0.00200022	0.00192984	0.00237044
0.00500596	0.00953383	0.0006869	0.00152995	0.000569419	0.00198564	0.00187896	0.00249621
0.00513891	0.00952915	0.00067627	0.0014875	0.000576938	0.001973	0.00180522	0.00251789
0.00517264	0.0100802	0.000667966	0.00146986	0.000578475	0.00197117	0.00171188	0.00252428
0.0050912	0.0104943	0.000667117	0.00149884	0.000579488	0.00199437	0.00172773	0.00248385
0.00491437	0.0104195	0.000657995	0.00152554	0.000580754	0.00208179	0.00172815	0.00248741
0.00478945	0.0103292	0.000663526	0.00155112	0.000579432	0.00209761	0.00171565	0.00271725
0.00479878	0.0107265	0.000654778	0.00154808	0.000579456	0.00219226	0.00171904	0.00282456
0.00494114	0.0112057	0.000649796	0.00156647	0.000582032	0.00253688	0.00171281	0.00285186
0.0049416	0.0115002	0.000651621	0.0016068	0.000588572	0.00276977	0.0016981	0.00254573
0.00572087	0.0115753	0.000657249	0.00165217	0.000589567	0.00282597	0.00169263	0.00244153
0.00598436	0.0118185	0.000664466	0.00164034	0.000596835	0.00291672	0.00166748	0.00243003
0.00619135	0.0121767	0.000656568	0.00164269	0.000604208	0.00302411	0.00165302	0.00244421
0.00621066	0.0128647	0.000660954	0.00164766	0.000608629	0.00314511	0.0016331	0.00231644
0.00523641	0.0130549	0.000654774	0.00162223	0.000608679	0.00315178	0.00157467	0.00211927
0.0049712	0.0130889	0.000653707	0.00160194	0.000606401	0.00311612	0.001539	0.00184013
0.00508672	0.0131107	0.00066146	0.00156122	0.000612067	0.00302929	0.00149781	0.00171494
0.00584347	0.0128057	0.000652759	0.00155416	0.000609839	0.00311072	0.00149185	0.00158119
0.00600664	0.0126469	0.000655564	0.00151937	0.000607172	0.00323161	0.00148021	0.00137143
0.00603823	0.0131057	0.000649785	0.00151303	0.000610441	0.00319021	0.00146578	0.00122424
0.00593743	0.0132173	0.000650902	0.00150222	0.000608862	0.00303674	0.00141547	0.00117343
0.00588151	0.0131669	0.000645408	0.00148306	0.000611356	0.00302241	0.0013496	0.00115742
0.00585792	0.0133363	0.000631177	0.00147479	0.000611315	0.00294675	0.00124996	0.00113645
0.00519767	0.0137466	0.000636037	0.0014411	0.000604338	0.00282188	0.0011314	0.00113433
0.00508323	0.0144262	0.000636669	0.00143354	0.000592727	0.00280205	0.0010707	0.000970671
0.00517019	0.0147524	0.000643405	0.00133371	0.000589106	0.00281621	0.00105117	0.00077439
0.00514491	0.0143709	0.000635399	0.00124357	0.000588482	0.0028253	0.00102518	0.000732594
0.00509354	0.014704	0.00063149	0.00111583	0.000591507	0.00282743	0.000985484	0.000728467
0.00583532	0.0154689	0.000637723	0.00107614	0.000595106	0.00282102	0.000934523	0.000793058
0.00614448	0.0155079	0.000640953	0.0010701	0.000591706	0.00278627	0.000918306	0.000803229
0.00612951	0.0155496	0.000637553	0.00101105	0.000586205	0.00271353	0.000871704	0.000712426
0.0062744	0.0161421	0.000638972	0.000968424	0.00058452	0.00269452	0.000817383	0.000709418
0.00625221	0.0161207	0.00062915	0.000932105	0.000592927	0.00270986	0.000799647	0.00073167
0.00692346	0.0156971	0.000629598	0.000912586	0.000583974	0.00271875	0.000787241	0.000753275
0.00706444	0.0157176	0.00063763	0.000912557	0.000590351	0.00268333	0.000765546	0.000738397
0.00709457	0.0157549	0.000648758	0.000910976	0.000597595	0.002678	0.000762905	0.000744701
0.00708736	0.0155433	0.000661092	0.000911211	0.000603803	0.00265012	0.000774523	0.000754061
0.00692241	0.0149585	0.000667468	0.000918245	0.000607931	0.00263312	0.000783275	0.000752538
0.00680627	0.0148738	0.000673576	0.000926631	0.00061814	0.00263064	0.00078888	0.000741931
0.00661934	0.0145822	0.000674551	0.000911303	0.000610802	0.00262812	0.000777724	0.000721259
0.00654954	0.0142778	0.000681828	0.000888722	0.000612077	0.00261795	0.000753373	0.000729032
0.00654429	0.0143857	0.000692388	0.000819193	0.000622722	0.00252623	0.000740354	0.000712701
0.00654816	0.0144986	0.00069682	0.000766618	0.000626249	0.00249167	0.00073857	0.000766849
0.00651731	0.0143749	0.000695439	0.000755995	0.000626165	0.00245656	0.000738618	0.000782184
0.0066479	0.0136817	0.000702326	0.000751352	0.000625027	0.00221153	0.000733864	0.000780109
0.00660224	0.0130517	0.0007144	0.000674654	0.000620147	0.00188546	0.000668763	0.000774218
0.00622309	0.0127653	0.000711804	0.000637572	0.000624995	0.00180161	0.000645193	0.000728909
0.00562695	0.0122083	0.000712071	0.0006218	0.000631899	0.00170157	0.000642748	0.000699285
0.00548417	0.0119177	0.000744723	0.000624887	0.00067077	0.00161084	0.000638335	0.000710091
0.00518912	0.0112018	0.000746856	0.000642545	0.000684861	0.0014641	0.000639991	0.000697848
0.00518462	0.0108715	0.0007513	0.00066221	0.000688375	0.00144408	0.000627247	0.000684491
0.00518932	0.0105153	0.000755326	0.000676301	0.000687004	0.00147572	0.00061986	0.000670384
0.00506746	0.0102108	0.000752735	0.000670574	0.000685992	0.00145124	0.00063779	0.000669131
0.00443607	0.00958701	0.000757084	0.00068286	0.000682735	0.00137062	0.000642204	0.000666425
0.00412201	0.00948699	0.000765889	0.000727175	0.00068448	0.00125428	0.0006457	0.000682058
0.00406625	0.00926211	0.000771984	0.000747754	0.000685305	0.0011976	0.000645058	0.00071147
0.00402078	0.00858696	0.000774997	0.000751372	0.000696646	0.00118972	0.000644683	0.000740599
0.00401005	0.0083745	0.000779046	0.000749566	0.000703597	0.00118354	0.000651951	0.000759981
0.00390609	0.00826496	0.000797328	0.000719274	0.000727047	0.00120834	0.000645507	0.000817102
0.00364494	0.00763702	0.00080582	0.000712469	0.000730209	0.001251	0.000645497	0.000823101
0.00355528	0.00730494	0.000806148	0.000714113	0.000736723	0.00125163	0.000646849	0.000819441
0.00347539	0.00635774	0.000798069	0.000729729	0.000730311	0.00121231	0.000644704	0.000788039
0.00343247	0.00624885	0.000805178	0.000742665	0.000734582	0.0012131	0.000650741	0.000851659
0.0034299	0.00607214	0.000804271	0.000754009	0.00073275	0.00119801	0.000667378	0.000881835
0.00272874	0.00524026	0.000797352	0.000777821	0.000733521	0.00120461	0.000676057	0.000886251
0.00239823	0.00497541	0.000792729	0.00078118	0.000740338	0.00118468	0.000678827	0.000873975
0.00217778	0.00440571	0.000805123	0.000785055	0.000769729	0.00119179	0.000686971	0.000900026
0.00192553	0.00348713	0.000827462	0.000797657	0.000792284	0.00112236	0.000697351	0.00102051
0.00192934	0.00309318	0.000847278	0.000856332	0.000812573	0.00114603	0.000708503	0.00123193
0.00120769	0.00299969	0.000858863	0.000872873	0.00081254	0.00116231	0.000719654	0.00133684
0.000972259	0.00285736	0.000862399	0.000875735	0.000806343	0.00114533	0.000742162	0.00150609
0.000935578	0.00267617	0.000855016	0.000880115	0.000802319	0.00112971	0.000763656	0.00154611
0.00093989	0.00260598	0.000855469	0.000884825	0.000819057	0.00111924	0.0007849	0.00157665
0.000949115	0.00253946	0.000853173	0.000911597	0.000823993	0.00112417	0.00080275	0.00158117
0.000955787	0.00250543	0.000856927	0.000933819	0.000815233	0.0011335	0.000815596	0.00161898
0.000962539	0.00240385	0.000863372	0.000950542	0.000819968	0.0011347	0.000834573	0.00161432
0.000964657	0.00218918	0.000863454	0.000962635	0.000816892	0.00113736	0.000838658	0.0015628
0.000961851	0.0018531	0.000853418	0.000961692	0.000813955	0.00114341	0.000861964	0.00159248
0.000956842	0.00159124	0.000846931	0.000962065	0.000813902	0.00115467	0.000881824	0.00158679
0.000941688	0.00142838	0.000859705	0.000962113	0.000826653	0.00117146	0.000902041	0.00159797
0.000707536	0.00136066	0.000854865	0.000969355	0.000826814	0.0011842	0.000905532	0.00154978
0.00104058	0.00272371	0.000495676	0.000599241	0.000286514	0.000330357	0.00393627	0.00349704
0.0011214	0.00286739	0.000519335	0.000646112	0.000319458	0.000372463	0.00386591	0.00456964
0.00127776	0.00282781	0.000537208	0.000695815	0.000343991	0.000408227	0.00379431	0.00543453
0.00135718	0.00301016	0.00055536	0.000760365	0.000373765	0.000444319	0.00376654	0.00619519
0.00140952	0.00303012	0.000566839	0.000828356	0.00042693	0.00048651	0.00365032	0.00711307
0.00141319	0.00297847	0.000587043	0.000910987	0.000457149	0.000536466	0.00351349	0.00726023
0.00142545	0.00291582	0.000608069	0.000994887	0.000490484	0.000573411	0.0035553	0.0071818
0.00143526	0.00292855	0.000634614	0.00104925	0.000527394	0.000625052	0.00361564	0.00709185
0.00159445	0.00351596	0.000646983	0.0010809	0.000551433	0.000648336	0.00368394	0.00632676
0.00159494	0.00349002	0.000641332	0.00110156	0.000557352	0.000647316	0.00375777	0.00595981
0.00149811	0.00366415	0.000645818	0.00106227	0.000570232	0.000649397	0.00359052	0.00515771
0.0015721	0.00376516	0.000651001	0.00108888	0.000579621	0.000639972	0.00357467	0.00572106
0.00159415	0.00377337	0.00066018	0.00107942	0.000573239	0.000638646	0.00356033	0.00567148
0.00148313	0.00315714	0.000671049	0.00106771	0.000566118	0.000641906	0.00348643	0.00576543
0.00141627	0.00302871	0.000670789	0.00109469	0.000574262	0.000641155	0.00346891	0.00544871
0.00141169	0.0029079	0.000674296	0.00110165	0.000563406	0.000621221	0.00333359	0.00635049
0.0013939	0.00282994	0.000666674	0.00113109	0.000577392	0.000633321	0.00344523	0.00632147
0.00136611	0.00277304	0.000662997	0.00118478	0.000578361	0.000634608	0.00350325	0.00676147
0.00131664	0.00252692	0.000682393	0.00117444	0.000576008	0.000628308	0.00351045	0.00610561
0.00130191	0.0024697	0.000696467	0.00118478	0.000562977	0.000626408	0.00370654	0.00667791
0.0013033	0.00245216	0.000695176	0.00125393	0.00056523	0.000625275	0.00402489	0.00744962
0.00134343	0.00245009	0.000690465	0.00124028	0.000549567	0.000620987	0.00394533	0.00723311
0.00134279	0.00232815	0.000681692	0.00123188	0.000539707	0.000618881	0.00378879	0.00680675
0.00135871	0.0017392	0.000674727	0.00122166	0.000534553	0.000604669	0.00366162	0.00698268
0.00144551	0.00172917	0.000685456	0.00126066	0.000541077	0.000621156	0.0038657	0.00770881
0.00143479	0.00147154	0.000679303	0.00132481	0.00054432	0.000621486	0.00404628	0.00741116
0.00136381	0.00142124	0.000672927	0.00130605	0.000540892	0.000614847	0.00392027	0.00669017
0.00125038	0.00139615	0.000657651	0.00131478	0.000558805	0.000620302	0.00396094	0.00611951
0.00130339	0.00163946	0.000658379	0.00140318	0.000564387	0.000608385	0.00413185	0.00612336
0.001511	0.00161415	0.000667857	0.00135324	0.000569108	0.00060551	0.00421486	0.00551112
0.00156833	0.00100361	0.00066067	0.00137026	0.000557573	0.000602762	0.00434924	0.00513881
0.00155702	0.000984653	0.000657409	0.00136897	0.000564059	0.000595652	0.00417149	0.00485112
0.00144334	0.000991445	0.000659039	0.00136216	0.000564422	0.000593083	0.00426783	0.00506235
0.00144459	0.00120255	0.000653699	0.00137798	0.000566317	0.000596584	0.00437542	0.00559923
0.00154588	0.00120047	0.000648911	0.00135585	0.000569067	0.000584179	0.00425253	0.00554761
0.00165455	0.00120316	0.000641568	0.00135986	0.000574545	0.000574224	0.00433884	0.00599103
0.00169445	0.00121143	0.000648673	0.00136343	0.000585062	0.000583194	0.00438483	0.00610486
0.00168437	0.00118145	0.000660682	0.00142955	0.000595192	0.000577614	0.00447505	0.00685815
0.00149858	0.00116099	0.000665867	0.00144766	0.000605252	0.000579007	0.00442895	0.00682818
0.00144618	0.00117134	0.000663196	0.00140004	0.000591429	0.000573122	0.00425718	0.0064658
0.00143901	0.00126731	0.000678687	0.00132214	0.000583551	0.000581905	0.00414586	0.00579826
0.00142056	0.00126588	0.000682154	0.00131142	0.000575237	0.000582337	0.00421914	0.00604843
0.00152306	0.00123593	0.000675959	0.00129857	0.000562792	0.000576583	0.00424473	0.00594367
0.00157754	0.00109681	0.000672096	0.00125239	0.000552363	0.000582808	0.004105	0.00586875
0.00143835	0.00135907	0.000666778	0.00120959	0.000554294	0.000583831	0.00382118	0.00559374
0.00140764	0.0013324	0.000674618	0.001233	0.000550859	0.000586661	0.00387727	0.00466377
0.00140611	0.00131145	0.000680956	0.00121517	0.000541276	0.000581325	0.00392575	0.00475451
0.00150799	0.00131041	0.000672783	0.00115767	0.000528862	0.000579045	0.00390714	0.00521503
0.00150588	0.00110029	0.000659326	0.00116901	0.00052614	0.000589453	0.00385156	0.00492398
0.00137297	0.00117931	0.00065569	0.00117074	0.000519767	0.000583813	0.00384635	0.00450922
0.00148243	0.00123325	0.000659119	0.00108376	0.00050564	0.000590199	0.0035596	0.00424393
0.00147856	0.00144059	0.000674037	0.00108217	0.000506546	0.000587613	0.00355974	0.00367377
0.00164306	0.00143624	0.000670675	0.00105618	0.000498792	0.000586017	0.00367372	0.00391403
0.00168891	0.00139763	0.000669362	0.00102414	0.000479592	0.000582262	0.00362352	0.00355277
0.00169453	0.00140353	0.000694227	0.00101677	0.000479818	0.000589576	0.00383942	0.00436934
0.00173216	0.00135419	0.000676135	0.00108198	0.000481185	0.000590959	0.00393954	0.00452959
0.00167727	0.00137794	0.000689894	0.00110217	0.000479411	0.000593303	0.00399441	0.00451509
0.0016542	0.00139072	0.000697165	0.00110687	0.00051027	0.0006009	0.00402251	0.00457064
0.00160274	0.00119374	0.000684753	0.00109962	0.000517454	0.000590117	0.0040727	0.00454389
0.00168049	0.00109809	0.000687209	0.00110329	0.000512371	0.000590801	0.00414788	0.00521966
0.00168892	0.00136742	0.000695005	0.00110829	0.000521368	0.000605497	0.00401086	0.0058163
0.0017577	0.00138673	0.000680143	0.00115536	0.000539029	0.000597987	0.0040129	0.00632832
0.001723	0.00137887	0.000686104	0.00116448	0.000540166	0.000601802	0.00388176	0.00553362
0.00181845	0.00138178	0.000689913	0.0011727	0.000543898	0.00060555	0.00385405	0.00548791
0.00177533	0.00131658	0.000696506	0.00123486	0.000546484	0.000619012	0.00398684	0.00573129
0.00167542	0.00112197	0.000702328	0.00126795	0.000534968	0.000618364	0.00395611	0.00561001
0.00162624	0.00103507	0.000683902	0.00131852	0.000538262	0.000613541	0.00394686	0.00481875
0.00147805	0.00105025	0.000688717	0.00130963	0.000549838	0.000617455	0.00380239	0.00437454
0.00141517	0.00112894	0.00067677	0.00133791	0.000555975	0.000633297	0.00387502	0.0040869
0.00152547	0.00112774	0.00066212	0.00134547	0.000566058	0.000637437	0.00384613	0.00429309
0.0014808	0.00136125	0.000675457	0.00130123	0.000586285	0.000621305	0.00393955	0.0034259
0.00155975	0.00134944	0.000674287	0.00125812	0.000587927	0.000602794	0.00383077	0.00359529
0.00152535	0.00141417	0.000675082	0.00125395	0.000558359	0.000603261	0.00384178	0.00505181
0.00149905	0.00140219	0.000686557	0.00123907	0.000558802	0.000601564	0.00390756	0.00526129
0.00140162	0.00135808	0.000676195	0.00131743	0.000567921	0.000597902	0.00388289	0.00584401
0.00138673	0.00109096	0.000670847	0.00131158	0.000558283	0.000595009	0.00413664	0.00539568
0.00138767	0.00108236	0.000675499	0.00127241	0.000552818	0.000601217	0.0042975	0.00524577
0.0014245	0.00112042	0.000681773	0.00125923	0.000553652	0.00060616	0.00428105	0.00529858
0.00143814	0.00137052	0.000674803	0.0012077	0.000559118	0.000594804	0.00427785	0.00637061
0.0014943	0.00144453	0.000667112	0.00115601	0.000560584	0.000583346	0.00413768	0.00555971
0.00142073	0.00145061	0.000668983	0.00114939	0.000568243	0.000574813	0.00426489	0.00449264
0.00152076	0.0015181	0.000664218	0.00111152	0.000571071	0.000574467	0.00419596	0.0038787
0.00164526	0.00151424	0.000659089	0.00111523	0.000596956	0.000556538	0.00429239	0.00388401
0.00176512	0.00144505	0.000663157	0.00107519	0.000608411	0.000545774	0.00414176	0.00415843
0.00168898	0.00136105	0.000663625	0.00107656	0.000597426	0.000540215	0.00417261	0.00449842
0.00175898	0.00125569	0.000656882	0.00111551	0.000593484	0.000546407	0.00403358	0.00380866
0.00163883	0.00139219	0.000651212	0.00110856	0.000595265	0.000549818	0.00403222	0.0034577
0.00171461	0.00133681	0.000638668	0.00111697	0.000596696	0.000545271	0.00414304	0.00410958
0.00168986	0.00135847	0.000636532	0.00110154	0.000598257	0.000556726	0.00405122	0.00511391
0.00168013	0.00137488	0.000645395	0.00103676	0.000592163	0.000559704	0.00393365	0.00497065
0.00179905	0.0014432	0.000640619	0.00104562	0.000604781	0.000564393	0.0038676	0.00449556
0.00165977	0.00144703	0.000650502	0.00102225	0.000602184	0.00055424	0.00362145	0.00490036
0.00161438	0.00138196	0.000643518	0.00104489	0.00060046	0.000536617	0.00376005	0.00508592
0.00164435	0.00107286	0.00064717	0.00105554	0.000597334	0.000542763	0.00389988	0.00512875
0.00164004	0.00108979	0.000649075	0.00107456	0.00058703	0.000556056	0.00390868	0.00513512
0.00160199	0.00133117	0.000648765	0.00102696	0.000589804	0.000562936	0.00375816	0.00425778
0.00168299	0.00134216	0.000650272	0.00103499	0.000580545	0.000567832	0.00371763	0.00419156
0.00156455	0.00133834	0.000653795	0.00102223	0.000551316	0.000572561	0.00375312	0.00436689
0.00155344	0.00136988	0.000647504	0.00105739	0.000538188	0.000570841	0.0038188	0.00429256
0.0015421	0.00137936	0.000637835	0.00105611	0.000528382	0.000570702	0.00373783	0.00419038
0.0029638	0.00498966	0.00139349	0.0015613	0.000579899	0.00148024	0.00196726	0.000830722
0.00300643	0.00524448	0.00137773	0.00157555	0.000564203	0.00148433	0.00198594	0.000898066
0.00306327	0.00526857	0.00136887	0.00160198	0.000565035	0.00150795	0.00212423	0.000996161
0.0032609	0.0052857	0.0013546	0.00162361	0.000555982	0.00156347	0.00220621	0.00104412
0.00334376	0.00548613	0.00135219	0.00164587	0.000557502	0.00168512	0.00227378	0.00102389
0.0035711	0.00572988	0.00135624	0.00165705	0.000551902	0.00177995	0.00228915	0.001034
0.00404745	0.006055	0.00136578	0.00166619	0.000553393	0.0018026	0.00229306	0.000966554
0.00428311	0.00617195	0.00136539	0.00170645	0.000559387	0.00187579	0.00229907	0.000962851
0.00431243	0.00670662	0.00112795	0.00170031	0.000558802	0.00192213	0.00231406	0.00103642
0.00431138	0.00717615	0.000817983	0.00172711	0.000561855	0.00191825	0.00234656	0.00115421
0.00431911	0.00732452	0.000764126	0.00175056	0.000569421	0.00198473	0.00240512	0.00117948
0.00436971	0.00734042	0.000751058	0.00175489	0.000570426	0.0021155	0.00243703	0.00119523
0.00437733	0.00738357	0.000730659	0.00177993	0.000560475	0.00219018	0.00243266	0.00120871
0.00433013	0.00740506	0.000722674	0.00178523	0.000553757	0.0022154	0.00242286	0.00121692
0.00427096	0.00740572	0.000717506	0.00182487	0.000552644	0.00227478	0.00242426	0.0012137
0.00414579	0.00741258	0.000718844	0.0018432	0.00055173	0.00229873	0.00241421	0.00121277
0.00413698	0.00744967	0.000720839	0.00187249	0.000555828	0.00229753	0.00244034	0.00121634
0.00396527	0.00747819	0.000713521	0.00185874	0.00055412	0.00232919	0.00247979	0.00122427
0.00387328	0.00733323	0.000714165	0.001822	0.000553415	0.00236712	0.00249042	0.00122304
0.00379401	0.00734421	0.000711585	0.00180614	0.000564208	0.00238467	0.00244951	0.00120639
0.00357698	0.00721569	0.000707101	0.00188549	0.000559386	0.00242715	0.00243476	0.00121268
0.0034341	0.00727251	0.000708385	0.0019885	0.000547617	0.00249743	0.00254558	0.00120875
0.0035765	0.00727778	0.000702964	0.001969	0.00054291	0.00257798	0.00255391	0.00124382
0.00360812	0.00732287	0.000696253	0.00197056	0.000546245	0.00267064	0.00247633	0.0012474
0.00366616	0.00734847	0.000695276	0.00197637	0.000546078	0.00269014	0.002455	0.00122358
0.00368	0.00734818	0.00070059	0.00202093	0.000551907	0.00270013	0.00239198	0.00119327
0.0037121	0.00735377	0.000707811	0.00195393	0.000558198	0.0027189	0.0023594	0.00109711
0.00365652	0.00733877	0.000704063	0.00196007	0.000558712	0.0027876	0.00233279	0.00103126
0.0036314	0.00696549	0.000710404	0.00195391	0.000557225	0.00283074	0.00235806	0.00106092
0.00364171	0.00659658	0.000702593	0.00192739	0.000563034	0.00287064	0.00235249	0.00120082
0.00364834	0.00636346	0.000704664	0.00191903	0.000560797	0.00289961	0.00229706	0.00130196
0.00377312	0.00629823	0.000702869	0.00189597	0.000566511	0.00290836	0.00226319	0.00130495
0.00381588	0.00636036	0.000706993	0.00187595	0.0005636	0.0029538	0.00227527	0.00127218
0.00384812	0.00652143	0.00070935	0.00186104	0.00056732	0.00308823	0.00229187	0.0011135
0.00394171	0.00667185	0.000708694	0.00189038	0.000565763	0.00311727	0.00233361	0.00107379
0.00397277	0.00662941	0.000700454	0.00198871	0.000570808	0.00323083	0.00234391	0.00106743
0.00383953	0.00692125	0.000704652	0.00199695	0.00056353	0.00332791	0.00220762	0.00102354
0.00375024	0.00701715	0.000708601	0.00199172	0.00055605	0.00330453	0.00220888	0.00102813
0.00373181	0.00705953	0.000708273	0.00201097	0.000552106	0.00326945	0.0021801	0.00112261
0.00366934	0.00711501	0.0007039	0.00204854	0.000548143	0.00329339	0.00217255	0.00126468
0.00366219	0.007294	0.000693855	0.00204608	0.000548839	0.00332523	0.00213254	0.00132085
0.00363176	0.00779935	0.000680408	0.00199187	0.000555044	0.00329558	0.00213231	0.00132388
0.00374036	0.00811742	0.00069076	0.00197925	0.00055332	0.00324683	0.00212136	0.00132382
0.00371347	0.00831089	0.000706331	0.00196805	0.000555619	0.0031946	0.0021316	0.00133491
0.00343121	0.00864298	0.000718412	0.00199266	0.000553407	0.00318345	0.00208613	0.00133156
0.00332776	0.00920733	0.000717141	0.00197404	0.000553424	0.00329769	0.00204753	0.00134099
0.00331819	0.00938299	0.000713841	0.00195509	0.000562295	0.0032988	0.00206274	0.00131508
0.0035404	0.00940611	0.000716323	0.00188094	0.000561888	0.00325611	0.00204232	0.00131125
0.0035634	0.00938993	0.000723236	0.00180912	0.00056049	0.00320156	0.00200481	0.00132257
0.00357845	0.00900625	0.000710714	0.00189203	0.000561839	0.00325753	0.00193978	0.00132324
0.00359717	0.00904916	0.000707593	0.00192321	0.000561761	0.00328833	0.00193933	0.0013235
0.0035516	0.00952324	0.0007069	0.002	0.000562279	0.00328689	0.00177541	0.00131907
0.00339895	0.00965591	0.000702049	0.00201473	0.000558145	0.00335189	0.00172035	0.00130287
0.00336544	0.00941138	0.000700586	0.00204138	0.000559115	0.00329949	0.00167696	0.00120398
0.00322381	0.00957479	0.000704544	0.00207908	0.000560938	0.00326666	0.00166889	0.00108212
0.00280438	0.00963529	0.000696138	0.00205821	0.000562726	0.00328763	0.00167058	0.00105349
0.00259222	0.00967078	0.000703581	0.00203341	0.000557611	0.00330626	0.00166747	0.00106767
0.00255141	0.00943838	0.000710263	0.00206125	0.000555846	0.00340288	0.00166573	0.00107256
0.00254167	0.00929599	0.000705664	0.0020353	0.000550397	0.00345299	0.00163857	0.00110565
0.00253854	0.00920475	0.000708413	0.00205682	0.000545029	0.00340535	0.00159814	0.00116602
0.00257443	0.00919926	0.000714141	0.00209797	0.00054577	0.00336205	0.00157526	0.00116889
0.00258353	0.00920893	0.000709773	0.0020796	0.000550248	0.00336675	0.00157747	0.00116097
0.00263057	0.00921741	0.000716623	0.00208013	0.000538444	0.00343426	0.00157367	0.0011535
0.00275391	0.00920607	0.000711655	0.00203159	0.000539076	0.0034556	0.00157984	0.000945704
0.0029935	0.00918841	0.000717177	0.0020417	0.000536826	0.00344413	0.00160792	0.000886566
0.00305026	0.00912449	0.000716316	0.00203548	0.000533394	0.00349049	0.00160076	0.000863669
0.00300766	0.00902242	0.000714564	0.00206555	0.000527568	0.0034801	0.00159982	0.000862243
0.00300202	0.00900282	0.000713637	0.00218942	0.00052566	0.00346254	0.00162748	0.000844561
0.00299762	0.00886192	0.000715987	0.00230413	0.000519112	0.00345511	0.00163873	0.000827131
0.00299775	0.00854399	0.000716959	0.00225042	0.000520853	0.00342691	0.00161128	0.000831089
0.00292331	0.00818903	0.000720666	0.00222985	0.000526696	0.00338376	0.00149267	0.000842306
0.00277334	0.00799907	0.000714066	0.00226556	0.000531886	0.00335463	0.00144214	0.000895541
0.00274294	0.0080567	0.000722883	0.00225111	0.000529301	0.00329979	0.00143725	0.000979871
0.00273372	0.00815661	0.000718145	0.00221765	0.000526618	0.00333046	0.00143967	0.000972919
0.00274937	0.0084904	0.000724807	0.00215345	0.000528824	0.00340015	0.00144711	0.000959176
0.00271861	0.00868725	0.000719795	0.00215502	0.000531664	0.0033928	0.00141007	0.000957006
0.00274083	0.00864248	0.000727723	0.00210493	0.000538319	0.00335906	0.00136544	0.000963094
0.00274922	0.00862706	0.000725675	0.0020977	0.000535069	0.00335831	0.00135156	0.000950309
0.00276577	0.00862408	0.000726294	0.00209883	0.000535796	0.0033198	0.00132847	0.000947357
0.00281793	0.00876075	0.000724239	0.0021244	0.000537787	0.00332651	0.00133458	0.000951779
0.00282353	0.0090394	0.000727627	0.00216001	0.000535285	0.00334904	0.00133774	0.000942749
0.00282406	0.00917963	0.000728923	0.00220135	0.000545267	0.00330138	0.00133497	0.000932339
0.00284975	0.00906524	0.000728065	0.00223932	0.000542211	0.00321415	0.0013256	0.000939983
0.00281159	0.00875562	0.000730257	0.00224929	0.000547037	0.00319359	0.00131839	0.000897863
0.00278862	0.00847403	0.000736672	0.00216495	0.000540684	0.00302571	0.00127117	0.000854276
0.00281777	0.00804901	0.000729073	0.00216516	0.000539912	0.00294082	0.00129057	0.000841515
0.00286641	0.00796405	0.000733434	0.00217668	0.000541492	0.00297371	0.00128998	0.000836136
0.00287083	0.00794016	0.000736146	0.00217562	0.000542173	0.00297177	0.00128126	0.000832273
0.00289781	0.00792352	0.000739766	0.00215009	0.000542878	0.0029514	0.00128477	0.000829626
0.00303397	0.00788828	0.00074543	0.00214949	0.00054216	0.00292855	0.00128273	0.000810766
0.00307912	0.00773759	0.000742804	0.0021551	0.000534673	0.00287092	0.00125427	0.000806321
0.00297266	0.00760794	0.000731408	0.00212653	0.000537176	0.00286369	0.00123985	0.000811661
0.00292479	0.00724768	0.000719326	0.00213402	0.000538281	0.00284752	0.00123312	0.000813956
0.0029132	0.00674779	0.000712675	0.00217549	0.000546168	0.00278223	0.00125008	0.000817946
0.0028835	0.00620217	0.000710813	0.00219877	0.000549781	0.00264894	0.00127759	0.000808009
0.00287186	0.00606406	0.000705951	0.00219405	0.000543646	0.00261138	0.00125891	0.000760057
0.00267127	0.00603878	0.000699779	0.00218793	0.000553733	0.00265487	0.00125825	0.00067334
0.00266631	0.00607635	0.000693097	0.00214578	0.000552868	0.00266852	0.00124894	0.000655515
0.00265506	0.00610737	0.000695385	0.00206603	0.000551008	0.00261989	0.00123758	0.000672483
0.00259844	0.00576168	0.000699393	0.0020244	0.000549206	0.00258245	0.00122301	0.000685235
0.00104058	0.00272371	0.000495676	0.000599241	0.000286514	0.000330357	0.00393627	0.00349704
0.00111772	0.00286779	0.000515784	0.000637093	0.000311421	0.000365871	0.0039018	0.00418253
0.00123962	0.00285044	0.000531734	0.000676458	0.00033509	0.000391899	0.00386394	0.00493568
0.00130267	0.00287109	0.000546003	0.000723025	0.000354774	0.000418553	0.00377561	0.00581436
0.00135542	0.00300624	0.000556713	0.000763752	0.000377399	0.000447987	0.00376168	0.00642583
0.00139734	0.0030383	0.000564624	0.000810421	0.000426292	0.000480226	0.00367395	0.00698889
0.00141243	0.00298502	0.000582923	0.000887659	0.000445009	0.000520907	0.00354525	0.00738498
0.00141931	0.0029608	0.000595742	0.000936902	0.000468042	0.000550757	0.00343297	0.00703108
0.00143062	0.00290296	0.000612884	0.00100864	0.000504433	0.000585885	0.00356222	0.00703608
0.00143459	0.002928	0.000634119	0.00104799	0.000526834	0.000624873	0.00361727	0.00711024
0.00158478	0.00352154	0.000640619	0.0010926	0.000550566	0.000644413	0.00363595	0.00657
0.00160263	0.00349098	0.000639201	0.00107081	0.000555083	0.000647076	0.00373739	0.00610228
0.00159043	0.00349325	0.000636867	0.00108416	0.000561275	0.000642206	0.00371948	0.00566278
0.00150866	0.00369617	0.000647197	0.00106493	0.000568879	0.000647781	0.00358119	0.00544758
0.00155691	0.00374754	0.000649111	0.0010898	0.000580373	0.000630473	0.00357589	0.0057869
0.00163221	0.00380033	0.000659122	0.00108157	0.000578083	0.000637868	0.00358686	0.00551284
0.00150603	0.00333123	0.000665189	0.0010775	0.000561959	0.000636677	0.00352896	0.00563221
0.00148728	0.00311128	0.000673929	0.00105815	0.000568766	0.000642309	0.00344456	0.00573888
0.00141977	0.00304189	0.00067242	0.00109066	0.000574349	0.000641246	0.00346678	0.00545938
0.00140222	0.00293415	0.000671433	0.00110039	0.000567871	0.000624423	0.00333595	0.00652934
0.00139105	0.00282776	0.000660688	0.00112261	0.000577615	0.000612127	0.00334367	0.00653523
0.0013284	0.00280894	0.000664218	0.00114061	0.000577	0.000634384	0.00345983	0.00632968
0.00136402	0.00274627	0.000662464	0.00117642	0.000579422	0.000636017	0.00349424	0.00674419
0.0013141	0.00255147	0.000676317	0.00117484	0.000581619	0.000629429	0.00344383	0.00608126
0.00128902	0.00246861	0.000697981	0.00120828	0.000558609	0.000631393	0.00365307	0.00660007
0.00130208	0.00247331	0.00069333	0.00120283	0.0005645	0.000622066	0.00378212	0.00693474
0.00130008	0.00244659	0.000700073	0.00125251	0.000566482	0.000626113	0.00406528	0.00742263
0.00133633	0.00244998	0.000691649	0.00123671	0.000551628	0.000621277	0.00395259	0.00724729
0.00136278	0.00238466	0.000685687	0.00123181	0.000552924	0.000611688	0.00378834	0.00712984
0.00120902	0.00179813	0.000685165	0.00122651	0.000538558	0.000612332	0.00379047	0.00685224
0.00140465	0.00173076	0.000681765	0.00124976	0.000540335	0.000607705	0.0038704	0.00738672
0.00145059	0.00173091	0.000688147	0.00125638	0.000542062	0.000621635	0.00386181	0.00761903
0.00145834	0.00152478	0.000681432	0.00131399	0.000540089	0.000617313	0.00403072	0.00731643
0.00140712	0.00145237	0.000675307	0.00129368	0.000540109	0.000622588	0.00389436	0.00708825
0.00133926	0.00140752	0.000665333	0.0012985	0.000546875	0.000617701	0.00395857	0.00644195
0.00126335	0.00140387	0.000656463	0.00134079	0.000561557	0.000621818	0.00397449	0.00590001
0.00130813	0.00163772	0.000661648	0.00139236	0.000564439	0.000608258	0.00413423	0.00613329
0.00147737	0.00164567	0.000665424	0.00135738	0.000569582	0.000607984	0.00413108	0.00552087
0.00153949	0.00111462	0.000664605	0.00136698	0.000571381	0.000606832	0.00433206	0.00530659
0.00154171	0.000992602	0.000660264	0.00135867	0.000555652	0.000608505	0.00429572	0.00523372
0.00154247	0.000983672	0.000655642	0.0013672	0.000564524	0.000593627	0.00418763	0.00483164
0.00144534	0.000991953	0.000659618	0.00133726	0.000566737	0.000595209	0.00419257	0.00488734
0.00144312	0.00108515	0.000663697	0.00138975	0.000572166	0.000604164	0.00446594	0.00530384
0.00146327	0.00120737	0.000652251	0.00137338	0.0005638	0.000590718	0.00433335	0.00558374
0.00160489	0.00120096	0.00065058	0.00134389	0.000567826	0.000584129	0.00431038	0.00567334
0.00165459	0.00120394	0.000643569	0.00134789	0.000573726	0.000572993	0.00435539	0.00598404
0.00167475	0.00120441	0.000651616	0.00136424	0.0005796	0.000587075	0.00435129	0.0060987
0.00168843	0.00120807	0.000651129	0.00140217	0.000585265	0.000584489	0.00448765	0.0062211
0.00169053	0.00116072	0.000657442	0.00141917	0.000592858	0.000582839	0.00446582	0.00706934
0.00149352	0.0011644	0.000668587	0.00144858	0.000602525	0.000578901	0.00439644	0.00679598
0.00145579	0.00117625	0.000664698	0.00140196	0.00059709	0.000561935	0.00426262	0.00654802
0.00144684	0.00121459	0.000667519	0.00135348	0.000586349	0.000576943	0.00411032	0.00601632
0.00142913	0.00127714	0.000680773	0.00131622	0.000577645	0.000588133	0.00416725	0.00556587
0.00143995	0.00126947	0.000683014	0.0013147	0.000573625	0.00058298	0.00420748	0.00613954
0.00153435	0.00125174	0.000677084	0.0013135	0.000564847	0.00057705	0.00423691	0.00604905
0.0014966	0.00102954	0.000674478	0.00128264	0.000557836	0.000578822	0.00413362	0.00569643
0.0014837	0.00130322	0.00066527	0.00123696	0.000556379	0.000584044	0.00400499	0.00599029
0.00143437	0.00134872	0.000667046	0.00120857	0.000553558	0.000587117	0.00378782	0.00527715
0.0014074	0.00133287	0.000674208	0.00123355	0.000551162	0.000586255	0.00387816	0.00464319
0.00139852	0.00131052	0.00067356	0.00121592	0.000539394	0.000581873	0.00391586	0.00475938
0.00150783	0.00130663	0.000677965	0.00121098	0.000532081	0.000575493	0.00402299	0.0048643
0.00150674	0.00124114	0.000664144	0.00116035	0.000522308	0.000577035	0.00382149	0.00508292
0.00149568	0.0010953	0.000662092	0.00116979	0.000524268	0.000589249	0.00383234	0.00488027
0.00140296	0.00117158	0.000660403	0.0011706	0.000522288	0.000582608	0.00384898	0.00456101
0.00142172	0.00117117	0.00066166	0.00110753	0.000510615	0.000587634	0.00362027	0.00442159
0.00150438	0.00144166	0.000661449	0.00107528	0.000508392	0.00058435	0.00351784	0.00379776
0.00150008	0.00143689	0.000672483	0.00106622	0.000503318	0.000580334	0.00358578	0.0037783
0.00164291	0.0014361	0.000670702	0.00105594	0.000498579	0.000586019	0.0036764	0.00391717
0.0016608	0.00141417	0.000670583	0.00101726	0.000483931	0.000587729	0.00361982	0.003646
0.00169045	0.00139614	0.000684281	0.00101769	0.0004731	0.000594652	0.00376906	0.00366957
0.00169731	0.00137422	0.000689643	0.00103274	0.000479172	0.000583049	0.00384976	0.00423244
0.00174179	0.00135718	0.000678099	0.00108921	0.000478621	0.00058927	0.00391192	0.0044335
0.00169947	0.00137513	0.000683739	0.0010954	0.00047928	0.000591934	0.00398678	0.00463495
0.00160824	0.00138787	0.000697003	0.00110157	0.00050978	0.000588316	0.00397635	0.00442017
0.00174159	0.00139679	0.000690179	0.00109293	0.000513774	0.000597423	0.00399165	0.00464079
0.00159685	0.00112283	0.000689813	0.00110997	0.000513795	0.000592316	0.00410419	0.00475249
0.0016803	0.00109765	0.000687935	0.001103	0.00051199	0.000591026	0.0041463	0.00521763
0.00169043	0.00132138	0.000689962	0.0011164	0.00052331	0.000600496	0.00406737	0.00565801
0.00164477	0.00137899	0.000696003	0.00112669	0.00053271	0.000605335	0.00398998	0.00630617
0.00171147	0.00138212	0.000687571	0.00115943	0.000541612	0.000604924	0.00395297	0.00571108
0.00172735	0.001378	0.000683041	0.00115781	0.000543973	0.000603141	0.00389301	0.0055324
0.00183204	0.00138122	0.000688971	0.00117238	0.000545722	0.000600463	0.00385312	0.0055802
0.00178167	0.00131726	0.000692611	0.00121839	0.000537421	0.000617711	0.00397913	0.00575541
0.0017039	0.00131571	0.000697029	0.00124463	0.000540689	0.000614806	0.00397452	0.00553262
0.00168651	0.00104933	0.000694988	0.00128621	0.000537826	0.000613381	0.00397914	0.00565599
0.00163015	0.00103505	0.000684802	0.00131472	0.000537775	0.000612526	0.00394241	0.00483745
0.00148049	0.00104609	0.000689469	0.0013128	0.000547664	0.000613382	0.0038842	0.00449222
0.00145862	0.00109461	0.000682242	0.00134142	0.000552882	0.000624739	0.00392224	0.00449529
0.00141393	0.00113189	0.000668957	0.00135639	0.000559129	0.000627609	0.00378967	0.00391904
0.00153035	0.00114858	0.00066393	0.0013338	0.000567015	0.000637249	0.00383852	0.0042855
0.00150296	0.0013643	0.000675429	0.00130072	0.000588034	0.00062166	0.00388044	0.00356137
0.00147765	0.00134685	0.000683386	0.0012836	0.000593165	0.000610144	0.00386356	0.00332172
0.00159403	0.00136098	0.000671315	0.00125363	0.000567464	0.000608283	0.00387152	0.00431594
0.00151279	0.00140351	0.000675506	0.00125161	0.000560681	0.000603992	0.00386635	0.0051381
0.00149283	0.00140171	0.00068531	0.00124429	0.000556399	0.000604293	0.00391336	0.00524665
0.00143285	0.00136499	0.000680736	0.00129462	0.000568966	0.000600869	0.00388348	0.00594882
0.00137522	0.00116257	0.000674114	0.00129348	0.000565119	0.000596874	0.00400488	0.00561694
0.00138966	0.00108066	0.000667109	0.00129257	0.000556661	0.00059326	0.00408692	0.00557218
0.00140505	0.00108256	0.000671718	0.00126588	0.000555231	0.000599471	0.00430849	0.00524263
0.00142536	0.00110025	0.000677922	0.00127118	0.000558303	0.000606252	0.0043217	0.00525386
0.00955829	0.00972149	0.00330254	0.00165651	0.00291571	0.0038726	0.00252895	0.00110197
0.00962364	0.0100056	0.00330282	0.00166144	0.00290977	0.00407472	0.00252013	0.00113496
0.00965024	0.0100485	0.00328784	0.00167582	0.00287074	0.00413002	0.00251812	0.00113109
0.00968457	0.0100656	0.00326364	0.0017122	0.00279289	0.0041503	0.00257528	0.00113718
0.0096881	0.0100414	0.00303203	0.00172654	0.00267729	0.00415106	0.00262396	0.00114492
0.00968492	0.0100022	0.00282184	0.00174055	0.00234078	0.0041695	0.00265263	0.00113694
0.00968869	0.00999055	0.00278905	0.00173159	0.0020382	0.00418411	0.00264582	0.00112049
0.00969606	0.00998242	0.002731	0.00173346	0.00198576	0.00419106	0.00265665	0.00111889
0.00974538	0.010012	0.00254087	0.0017422	0.001974	0.00421232	0.00266465	0.00112654
0.00983846	0.0100389	0.00243929	0.00174077	0.00196122	0.004219	0.00266542	0.00112037
0.00987642	0.0100715	0.00238661	0.00173817	0.00186986	0.00424235	0.00266051	0.00110574
0.00993688	0.0100581	0.00223882	0.00175153	0.0017915	0.00425864	0.00265043	0.00108503
0.0100491	0.0102169	0.00193596	0.00177126	0.00150498	0.00427536	0.00264867	0.00111088
0.0104959	0.0105729	0.00185127	0.00178436	0.0010212	0.00429414	0.00266665	0.00113201
0.0106884	0.010886	0.00169043	0.00178204	0.000796255	0.00431428	0.00266704	0.00114349
0.0108139	0.0111927	0.00132646	0.00179181	0.000789152	0.00435431	0.00268478	0.00112731
0.0108762	0.0114636	0.00118992	0.00179239	0.000758992	0.00442327	0.00271328	0.00116268
0.0109009	0.011715	0.00118543	0.00180017	0.000740971	0.00447483	0.00272255	0.00118212
0.0109179	0.0117676	0.0011803	0.00182149	0.000746466	0.00451203	0.00272828	0.00121043
0.0109235	0.0118253	0.00118437	0.00184945	0.000738995	0.00451186	0.00274108	0.00123258
0.0109169	0.011835	0.00116616	0.00186201	0.000704477	0.00451591	0.00276106	0.00123093
0.0108153	0.0118261	0.00108545	0.00187246	0.000699352	0.00454081	0.00280717	0.00122351
0.010503	0.0118234	0.000856312	0.00188411	0.00068768	0.00455291	0.0028104	0.00122316
0.0103182	0.0118164	0.000715044	0.00190011	0.000647753	0.00455723	0.00282037	0.00120103
0.0101651	0.0118081	0.000701154	0.00191755	0.000638223	0.00457735	0.00284493	0.00118737
0.0101337	0.0117981	0.000688484	0.00193944	0.00063822	0.00459461	0.00289473	0.00117409
0.0101672	0.0117945	0.000691784	0.00195434	0.000638006	0.00460808	0.00287637	0.00117034
0.0101397	0.0117995	0.000690995	0.00195337	0.000639824	0.00461886	0.0028736	0.00116644
0.00990495	0.0118058	0.000691189	0.00195697	0.000642787	0.00466223	0.00285489	0.0011457
0.00969177	0.011747	0.000691988	0.00196106	0.000650457	0.00472599	0.00284512	0.00114915
0.0097789	0.011962	0.000693981	0.00196418	0.000657016	0.00486051	0.00283631	0.00112272
0.00992744	0.0124974	0.000700283	0.00195889	0.000655775	0.00505636	0.00281042	0.00109263
0.00910652	0.0127291	0.000697358	0.00193264	0.000659995	0.00520281	0.0027515	0.00109135
0.00853387	0.0130877	0.000693801	0.00185553	0.000657257	0.00526489	0.00269905	0.00108934
0.00787438	0.0128711	0.000691921	0.00187051	0.000642286	0.00526631	0.0026488	0.00108152
0.00740579	0.0129742	0.000682232	0.00185515	0.000636784	0.00514373	0.00263413	0.00106646
0.00734467	0.0129034	0.00068249	0.00182657	0.000634514	0.00504165	0.00258162	0.00106019
0.00737515	0.0127474	0.000685306	0.00183012	0.000638037	0.0050213	0.00257399	0.00105309
0.00740572	0.0125457	0.000686483	0.00182608	0.000636287	0.00501513	0.00257182	0.00102331
0.00742357	0.01232	0.000685555	0.0018417	0.000630755	0.00501515	0.00257002	0.00105341
0.00741048	0.0120397	0.0006848	0.00182666	0.000623836	0.00501826	0.00249954	0.00108098
0.00738621	0.0118714	0.000681908	0.00182333	0.000622825	0.00501313	0.00239678	0.00112593
0.00738207	0.0117844	0.00068294	0.00180624	0.000617927	0.00496245	0.00225479	0.00115909
0.00738459	0.011815	0.000676616	0.00178714	0.000622813	0.00491555	0.00220764	0.00119525
0.00739634	0.0118174	0.000675084	0.0018033	0.000619228	0.00485585	0.00209559	0.00127599
0.00744542	0.0114473	0.000675604	0.00179603	0.000617787	0.00476972	0.0020879	0.00130959
0.007546	0.0109077	0.000680589	0.00177713	0.000620366	0.00475671	0.00208854	0.00130489
0.00760396	0.0106228	0.000681597	0.00176163	0.000619395	0.00471033	0.00207352	0.00132166
0.00764501	0.0104235	0.000683603	0.00174283	0.000620338	0.00468415	0.00207095	0.00131916
0.00763774	0.0103195	0.000680981	0.00174595	0.000620517	0.00456685	0.00206488	0.00129373
0.00765466	0.0100276	0.000677277	0.00175206	0.000621645	0.00448346	0.00206101	0.00128381
0.00765482	0.00921637	0.000680732	0.0017486	0.0006225	0.00447866	0.00205704	0.00121871
0.00759867	0.00876288	0.000679542	0.00171939	0.000621233	0.00439466	0.00204804	0.00120792
0.00743215	0.00852058	0.000673941	0.00172285	0.000623552	0.0043047	0.00203221	0.0011403
0.00700602	0.00830378	0.000676975	0.00173142	0.00062456	0.00418365	0.00202899	0.00112242
0.0065187	0.0080472	0.000670384	0.00170948	0.000626916	0.0040891	0.00191125	0.00108403
0.0062049	0.00764542	0.000663869	0.00166356	0.000621872	0.00401482	0.00177422	0.00106385
0.00610949	0.0074766	0.000663446	0.00166454	0.000618711	0.00392888	0.00173338	0.00107062
0.00606789	0.00727841	0.000671092	0.00162697	0.000623892	0.00392165	0.00166804	0.00106668
0.0060298	0.00716731	0.000668431	0.00162261	0.00062532	0.00380478	0.00155475	0.00105259
0.00600144	0.00708923	0.000671682	0.00160635	0.000625451	0.00373817	0.00153672	0.00105208
0.00596408	0.00703613	0.000673186	0.00158044	0.000626659	0.00361776	0.00149984	0.00106195
0.00572657	0.00688908	0.00067453	0.00156707	0.000622412	0.00355299	0.00147575	0.00107422
0.00534375	0.0068241	0.000667289	0.00153454	0.000622915	0.00349582	0.00142935	0.00105395
0.00517641	0.00677197	0.000670314	0.001484	0.000623195	0.00344672	0.00141224	0.00105971
0.0051019	0.00676697	0.000673453	0.00145444	0.00062334	0.00343346	0.00137177	0.001108
0.00509027	0.00677545	0.000672233	0.00143288	0.000625869	0.00340685	0.0013596	0.00110622
0.00508994	0.0067827	0.000671838	0.00142834	0.00062532	0.00340334	0.00134363	0.00111903
0.00508543	0.0068007	0.000672007	0.00142369	0.000627572	0.00336443	0.00129975	0.00114381
0.00509139	0.00679513	0.000672757	0.001427	0.000626416	0.0033203	0.00129039	0.00116762
0.0050926	0.00676526	0.000670441	0.00142404	0.000629685	0.00324867	0.00128487	0.00127062
0.0050788	0.00660639	0.000672524	0.0014139	0.000631608	0.00318352	0.00128271	0.00146602
0.0049393	0.00637891	0.000671518	0.00139584	0.000626537	0.00308849	0.00128201	0.00164039
0.00455145	0.00597872	0.000669142	0.00139837	0.000634746	0.00283072	0.00126865	0.00166404
0.00421087	0.00573535	0.000673602	0.00140277	0.000620133	0.00241732	0.00125962	0.001679
0.00414657	0.00547138	0.000668222	0.00140517	0.000606703	0.0022037	0.00126436	0.00167814
0.00411937	0.00542814	0.000672252	0.00139383	0.000603165	0.00216003	0.00124738	0.00166018
0.00412951	0.0053597	0.000675783	0.00137038	0.000603194	0.00212468	0.0011806	0.00162371
0.00414146	0.00535451	0.000678264	0.00135089	0.000596983	0.00211943	0.00112719	0.00157899
0.00415256	0.00535392	0.000676288	0.00132626	0.000595719	0.00209599	0.00108396	0.0015454
0.00414679	0.00534809	0.000677223	0.00133628	0.00059679	0.00209272	0.00106654	0.00153288
0.00413868	0.00534724	0.000688874	0.00136544	0.000599415	0.00208417	0.00105885	0.00146378
0.00409837	0.00531851	0.000687837	0.00144126	0.000601968	0.00207389	0.00105537	0.00142653
0.00400291	0.00531053	0.000717853	0.00149483	0.000600139	0.00207486	0.00105856	0.00152204
0.00395906	0.00528172	0.000725363	0.0015461	0.000606746	0.00205819	0.00105538	0.00158887
0.00388733	0.00526168	0.000736148	0.00153149	0.000606059	0.00203175	0.00105999	0.0016741
0.00376076	0.0050449	0.000738283	0.00152143	0.00060442	0.001998	0.00105843	0.00177624
0.00329565	0.00465596	0.000742895	0.00151432	0.000603294	0.0019586	0.00104204	0.00181126
0.00309623	0.00433534	0.000747148	0.00151889	0.000600396	0.00192556	0.00103601	0.00181319
0.00293647	0.0040031	0.00074715	0.00150724	0.000592112	0.00187847	0.00102975	0.00183627
0.00284602	0.00373474	0.000756469	0.00150536	0.000588065	0.00181287	0.00100022	0.00183236
0.00282311	0.00350746	0.000762774	0.00150355	0.000587279	0.00176163	0.000995936	0.00181625
0.00280281	0.00345099	0.000754967	0.00148201	0.000586584	0.00172764	0.000993386	0.0018286
0.00280272	0.0033965	0.000756878	0.00146018	0.000593716	0.00172647	0.000975042	0.00185024
0.00280413	0.00338743	0.000761879	0.00145551	0.000593421	0.00171293	0.000943559	0.00183934
0.0028088	0.0033862	0.000770511	0.00147743	0.000595324	0.00169613	0.00091504	0.00184928
0.00280995	0.00338793	0.000925795	0.00146586	0.000601248	0.0016905	0.00091142	0.00185482
0.0028054	0.00338655	0.00131799	0.00145891	0.000600674	0.00168359	0.000908424	0.00185893
0.00280195	0.00339053	0.00150497	0.0014467	0.000598504	0.0016621	0.000884263	0.0018897
0.00272845	0.00338673	0.00154298	0.00143276	0.000597697	0.00164811	0.000829867	0.00192004
0.00104058	0.00272371	0.000495676	0.000599241	0.000286514	0.000330357	0.00393627	0.00349704
0.00111655	0.0028656	0.000516774	0.000640383	0.000313161	0.000370067	0.00389272	0.00430633
0.00125894	0.00284865	0.000534881	0.000679882	0.000336139	0.000394179	0.00385396	0.0050516
0.0013207	0.0029598	0.000546993	0.000727673	0.000357505	0.000425336	0.00379078	0.00588704
0.00135727	0.00304026	0.000556831	0.000770373	0.000401877	0.000461049	0.00372584	0.00668501
0.00140898	0.00302195	0.000568039	0.000847693	0.000431853	0.000495558	0.00362843	0.0073262
0.00141317	0.00297854	0.000587053	0.000910925	0.000457096	0.000536426	0.00351366	0.00726046
0.00142414	0.00292959	0.000603506	0.000978424	0.00048408	0.00057068	0.00356698	0.00718287
0.00143367	0.002921	0.000625577	0.00103465	0.000515474	0.000614351	0.00357666	0.00726168
0.00154861	0.00333973	0.000642578	0.00108818	0.000546222	0.000640239	0.00358186	0.00672234
0.00160095	0.00350791	0.000645597	0.00108379	0.000554224	0.000653287	0.00371944	0.00634301
0.00158755	0.00348609	0.000637374	0.00108885	0.000557101	0.000646744	0.00380077	0.00571664
0.00149814	0.00366378	0.000645828	0.00106198	0.000570209	0.000649522	0.00359096	0.00515085
0.00155068	0.00374795	0.00064812	0.0010923	0.000580008	0.000634475	0.00358616	0.00578741
0.00162975	0.00380159	0.000661749	0.00107943	0.000577883	0.000639168	0.00358921	0.00550584
0.00150011	0.00330414	0.000666313	0.00107638	0.000563354	0.000635255	0.0035378	0.00557061
0.00148945	0.00309455	0.0006765	0.00105929	0.000570601	0.000648528	0.00342104	0.00570453
0.0014085	0.0029609	0.000669589	0.00110019	0.000575685	0.000641669	0.00346867	0.00562452
0.00141153	0.00290698	0.000674207	0.00110162	0.000563423	0.00062149	0.00333271	0.00635243
0.00139419	0.00282928	0.000666748	0.00113224	0.000578833	0.000629595	0.00343374	0.00635907
0.00137113	0.00280261	0.000667996	0.00117017	0.000579956	0.000635651	0.00348963	0.00647286
0.00132266	0.00258414	0.000671133	0.00117082	0.000580788	0.000632276	0.00341706	0.00667711
0.00131571	0.00248044	0.000693843	0.00119332	0.000556111	0.000627785	0.00360334	0.00634952
0.00130339	0.00247303	0.000702238	0.00119877	0.000562961	0.000629392	0.00372986	0.00676686
0.00130322	0.00245233	0.000695645	0.00125284	0.000565006	0.000625684	0.00402519	0.00744946
0.00131031	0.00245108	0.00069193	0.00123155	0.000554233	0.000628456	0.00396512	0.00712447
0.00136381	0.00238625	0.000686626	0.00123427	0.000551691	0.000610094	0.00378476	0.00741066
0.00120896	0.00180845	0.000684668	0.00122785	0.000538202	0.000612471	0.00379253	0.00685295
0.00140615	0.00173227	0.000681646	0.00126418	0.000539992	0.000610982	0.00389932	0.00746879
0.00145596	0.00173063	0.000690692	0.00125517	0.00054558	0.000621901	0.00386928	0.00754283
0.00143499	0.00147285	0.000679181	0.00132359	0.000544127	0.000621611	0.00404655	0.00741575
0.00137934	0.00143379	0.00067013	0.00130573	0.000542309	0.000617644	0.00391761	0.00689291
0.00130353	0.00140058	0.000654803	0.00130902	0.000547959	0.000618327	0.00395433	0.00632472
0.00129216	0.00153201	0.000656701	0.00138212	0.000565727	0.000618467	0.00400504	0.00588748
0.0013864	0.00164042	0.000662184	0.00137356	0.000569956	0.000605539	0.00407829	0.00598205
0.00153445	0.00149382	0.000664724	0.00137303	0.00056925	0.000604574	0.00428915	0.005475
0.00156879	0.00100385	0.00066052	0.00137043	0.000557415	0.000602479	0.00435145	0.00514413
0.0015822	0.000981005	0.000653138	0.00135955	0.000561464	0.0005929	0.00416136	0.00485471
0.00144576	0.000989739	0.000650908	0.00132277	0.000565714	0.000589117	0.00412312	0.00483182
0.00144274	0.00104759	0.000662735	0.00139328	0.000571612	0.000603113	0.00449206	0.00512976
0.00146529	0.00120957	0.000651033	0.00137216	0.000564937	0.000592484	0.00433472	0.00557934
0.00160694	0.00120058	0.000650759	0.00134437	0.000567642	0.000584487	0.00430892	0.00567224
0.00165449	0.00120364	0.000641912	0.00135822	0.000573964	0.000573891	0.00433778	0.00599295
0.00167136	0.00121029	0.000653548	0.00135929	0.000582365	0.000585678	0.00435595	0.00606934
0.00168784	0.00120908	0.000654623	0.00142453	0.000588313	0.000583193	0.00451005	0.00643415
0.00163564	0.00115651	0.000660631	0.0014241	0.000591911	0.000580302	0.00451715	0.00699462
0.00149149	0.00117652	0.000666187	0.00140559	0.00060665	0.000575072	0.0042548	0.00672577
0.00144228	0.00117334	0.000662436	0.0013997	0.000588891	0.000573196	0.00423302	0.00646261
0.00143913	0.00126612	0.00067809	0.00132242	0.000583641	0.000581837	0.00414642	0.00582247
0.00144028	0.00126822	0.000679846	0.00130825	0.000575968	0.000584244	0.00422845	0.00576756
0.00149753	0.00125862	0.000676337	0.00131982	0.000567207	0.000572202	0.00427912	0.00611259
0.0014988	0.00102923	0.000676633	0.0012805	0.000561514	0.000577796	0.00420452	0.00557171
0.00150427	0.00127588	0.000668499	0.00124277	0.000556455	0.000582693	0.00403343	0.00594031
0.00143596	0.00134881	0.000664987	0.00121196	0.000554944	0.000585582	0.00381246	0.00542917
0.00140793	0.00133224	0.000675209	0.00123326	0.000550749	0.000586897	0.00387679	0.00467485
0.00140039	0.00131158	0.000674904	0.00121635	0.000538778	0.000580754	0.00391152	0.00475896
0.00150704	0.00130777	0.0006727	0.00119354	0.000531825	0.000578739	0.00402562	0.0049313
0.00150536	0.00115501	0.000665945	0.00116205	0.000523518	0.000575747	0.0037896	0.00508095
0.00145163	0.00111269	0.000660989	0.00116758	0.000522151	0.000585979	0.00386315	0.00472997
0.00135192	0.00117734	0.000655126	0.00114674	0.000519444	0.000582342	0.00368574	0.00448899
0.00148215	0.00122757	0.000659739	0.00108383	0.000505122	0.000589772	0.00355794	0.00425236
0.00146721	0.00144104	0.000668666	0.00107474	0.00050904	0.000584968	0.00348697	0.00379574
0.00161123	0.0014351	0.000674417	0.00101954	0.000497634	0.000581946	0.00355362	0.00383664
0.00165029	0.00141951	0.000674969	0.00102697	0.000488424	0.000590483	0.00366844	0.00401537
0.00169024	0.00139613	0.000680368	0.00101489	0.000472375	0.000589507	0.00369771	0.0034948
0.00170001	0.00138502	0.000694709	0.00101916	0.000478326	0.000584363	0.00383414	0.00432499
0.00173144	0.001353	0.00067683	0.00108016	0.000480611	0.000590545	0.00394187	0.00453516
0.00173932	0.00137479	0.000678665	0.00108968	0.000479257	0.000590472	0.00394409	0.00473019
0.00160871	0.001388	0.000697344	0.0011016	0.00050868	0.000588582	0.00397763	0.0044137
0.00174134	0.00139223	0.000688296	0.0010899	0.000514101	0.000597539	0.00398384	0.00466262
0.001597	0.00108379	0.000684753	0.00111409	0.000511447	0.000593965	0.00411013	0.00495314
0.00168066	0.0010973	0.000680645	0.00109479	0.000514292	0.000586398	0.00414722	0.00536163
0.00168944	0.00136871	0.000695566	0.00110775	0.000521377	0.000605696	0.00401508	0.00581083
0.00174162	0.0013753	0.000685151	0.00114757	0.000533702	0.000597435	0.00400666	0.00647946
0.00170983	0.00137768	0.00068704	0.00116036	0.000541188	0.000607145	0.00391435	0.00552448
0.00179223	0.00138238	0.000684886	0.00119034	0.000549619	0.000598889	0.00394254	0.00567282
0.00180379	0.00135251	0.000688687	0.00120916	0.00053878	0.000611558	0.00386198	0.00569962
0.00177443	0.00131582	0.000698171	0.00123484	0.000541138	0.000617675	0.00400168	0.00558143
0.00167429	0.00112392	0.000702585	0.00126797	0.000533918	0.000618664	0.0039564	0.00561803
0.00164066	0.00103693	0.000686859	0.00131331	0.000540981	0.000609379	0.00397872	0.00496712
0.0014952	0.00104263	0.00068825	0.00131714	0.000544619	0.000614115	0.00389233	0.00448452
0.00145993	0.00108819	0.000683268	0.00134112	0.000552533	0.000624048	0.00391549	0.00455654
0.00141455	0.00113165	0.000669431	0.0013562	0.000559528	0.000627374	0.00378617	0.00393068
0.00153165	0.00118421	0.000666428	0.00132509	0.000570558	0.000635349	0.00380045	0.00425746
0.00148198	0.00136093	0.000675773	0.00130089	0.000586589	0.000621003	0.00392922	0.00343696
0.00148486	0.00134914	0.000675851	0.00127557	0.000594109	0.000604326	0.00380329	0.0034054
0.00154193	0.00138353	0.000674749	0.00125594	0.000558275	0.000605066	0.00387283	0.00449242
0.00150733	0.00140587	0.000678897	0.0012512	0.000558163	0.000604244	0.00392232	0.00515418
0.00151335	0.00141161	0.000686469	0.00126124	0.000565805	0.000596589	0.00386566	0.00565966
0.00138834	0.00132668	0.000675197	0.00130995	0.000570156	0.000599198	0.00392749	0.00576697
0.0013855	0.001092	0.000670755	0.00131097	0.000557845	0.000595301	0.00413366	0.00538656
0.00135739	0.00108123	0.000675905	0.00125826	0.000553683	0.000600528	0.00429273	0.00549504
0.00142636	0.00107987	0.000670929	0.00126898	0.000558758	0.00060841	0.00434354	0.00521957
0.00142771	0.0011576	0.000674829	0.00123682	0.000548485	0.000606997	0.00433154	0.00589127
0.0014738	0.00145166	0.000667053	0.00118687	0.000560881	0.000583945	0.00422448	0.00614344
0.00149503	0.00144386	0.000671769	0.00115433	0.000565351	0.000584549	0.00413221	0.00530341
0.00141822	0.00145031	0.000668135	0.00115131	0.00056876	0.000574988	0.0042657	0.0044992
0.00151721	0.00151225	0.000669456	0.00112816	0.000570477	0.000570562	0.00425399	0.00386126
0.00159898	0.001526	0.000663397	0.00111324	0.000574213	0.000555115	0.00425114	0.00372681
0.00174536	0.00147821	0.000663694	0.0010889	0.000603654	0.000548533	0.00413599	0.00428832
0.00289145	0.00580182	0.000747478	0.0013028	0.000738579	0.000816439	0.00200213	0.000934657
0.00296772	0.005771	0.00074523	0.00129289	0.000701357	0.000816633	0.00203183	0.000942196
0.00320155	0.00594984	0.0007375	0.00132968	0.000624988	0.000878472	0.00204653	0.000956114
0.00325159	0.00650402	0.000724651	0.00143637	0.000599308	0.000926624	0.00207437	0.00107484
0.00324572	0.00660133	0.000701185	0.00146863	0.000588992	0.000953	0.00208261	0.00118887
0.00322634	0.0066133	0.000708096	0.00153826	0.000582525	0.00102331	0.0021031	0.00122982
0.00328151	0.00667386	0.000706066	0.00157266	0.000568564	0.00104156	0.00211035	0.00144532
0.0032592	0.00674972	0.000694426	0.0015763	0.000566601	0.00105509	0.00209974	0.00152289
0.00319028	0.00681142	0.000678448	0.00158882	0.000571585	0.0011193	0.0021158	0.00156179
0.00317323	0.00677698	0.000678236	0.00160554	0.000566247	0.00121516	0.00214353	0.00156947
0.00317558	0.00678569	0.000673814	0.00160946	0.000568256	0.00121963	0.00215896	0.00163475
0.00320645	0.00717857	0.000668604	0.00163344	0.000572719	0.00125479	0.00216351	0.00162081
0.00330065	0.0068824	0.000672031	0.00163493	0.000571909	0.00127339	0.00212139	0.00160532
0.00329488	0.00663705	0.000673323	0.0016254	0.000570562	0.00128749	0.00210795	0.00185284
0.00320443	0.00629986	0.000680982	0.00163143	0.000562142	0.00128986	0.00208932	0.00210867
0.00303002	0.0066144	0.000677784	0.00158924	0.000563662	0.00131009	0.00206184	0.0022881
0.00248849	0.00693913	0.000676093	0.00149194	0.000560521	0.00137418	0.00191362	0.00236183
0.00242041	0.00707192	0.000684512	0.00142942	0.000563536	0.00143386	0.00186846	0.00231174
0.00250612	0.00700651	0.00067504	0.00142739	0.000563282	0.00145774	0.00183792	0.00223922
0.00254427	0.00722349	0.000683908	0.00140074	0.000563105	0.00148154	0.00176918	0.00224795
0.0024263	0.00738529	0.000686883	0.00142191	0.00056193	0.00149225	0.00173848	0.00233974
0.00233488	0.00738002	0.000687867	0.00145613	0.000560641	0.00151279	0.00170071	0.00225385
0.00226416	0.00715767	0.000685509	0.00143945	0.000563768	0.00152379	0.00168825	0.00240316
0.00209228	0.00617963	0.00068695	0.00142226	0.00055939	0.00155984	0.00167575	0.00232863
0.00206957	0.00616279	0.000676745	0.00142821	0.000549511	0.00157075	0.0016002	0.00226364
0.00207161	0.00608653	0.000681691	0.0014678	0.000549137	0.00156919	0.00153878	0.00243058
0.00214972	0.00609768	0.000685094	0.00145269	0.00055325	0.00156423	0.00149064	0.0024239
0.00223027	0.00619858	0.000684567	0.00145099	0.000549587	0.00167847	0.00149586	0.00242874
0.00238333	0.00681107	0.000675268	0.00145168	0.000542865	0.00172965	0.00149239	0.0023817
0.00244663	0.00722618	0.000676821	0.00142595	0.000540523	0.00173274	0.0014862	0.00236978
0.00251221	0.00774815	0.000668251	0.00138427	0.000550691	0.00170838	0.00136865	0.00237784
0.00247305	0.00775056	0.000685441	0.00133027	0.000554938	0.00165651	0.00123893	0.00204091
0.00250197	0.00753318	0.000689829	0.00130664	0.000559142	0.00165634	0.00126099	0.00176031
0.00259828	0.00707136	0.000691088	0.00133757	0.000555421	0.00165609	0.0012476	0.00163172
0.00252128	0.00692911	0.000690148	0.0013565	0.000554473	0.00172273	0.00123455	0.00156571
0.00246246	0.00714735	0.000678148	0.00133775	0.000558404	0.00184585	0.00118202	0.00154973
0.00239061	0.00784448	0.000667511	0.00133012	0.000557934	0.0019179	0.00112627	0.00150665
0.00225706	0.00790754	0.000669139	0.00133436	0.000551184	0.00197457	0.00111688	0.0014829
0.00207605	0.00757723	0.000669355	0.00123127	0.000545654	0.00188604	0.001101	0.0013676
0.00213002	0.00751481	0.000666837	0.00118868	0.000547515	0.00186293	0.00107895	0.00128113
0.00228123	0.00760658	0.000664511	0.00112654	0.00054215	0.00182399	0.00106613	0.00114112
0.00219655	0.00787091	0.00066354	0.0010715	0.000548941	0.00179761	0.00105618	0.00113453
0.00215925	0.00792776	0.00066475	0.0010529	0.000552602	0.00180251	0.00106069	0.000920404
0.00215385	0.00813126	0.000662168	0.00103749	0.000554947	0.00178756	0.00104721	0.000750881
0.00216797	0.00833089	0.000667933	0.0010162	0.000550738	0.00171576	0.00102187	0.000734491
0.00240991	0.00882509	0.000668293	0.000998372	0.000553728	0.00170943	0.00101461	0.000702951
0.00250028	0.00863493	0.000672192	0.000989112	0.000562095	0.00175913	0.00103846	0.000699103
0.00250041	0.00876428	0.000676926	0.00093754	0.000563743	0.00182802	0.00103312	0.000694583
0.0025747	0.00942742	0.000678533	0.000885387	0.000578263	0.00182092	0.000948763	0.000683484
0.00254591	0.00998316	0.000677667	0.000869669	0.000584786	0.00179855	0.000900357	0.000714028
0.00254443	0.00997621	0.000705098	0.000847688	0.000602184	0.0018072	0.000886771	0.000731321
0.00264842	0.00952755	0.000722209	0.000826337	0.000605368	0.00172019	0.000853555	0.00073346
0.00267495	0.00930636	0.00072636	0.000812437	0.000603627	0.00165659	0.000820122	0.000741033
0.00257113	0.00921622	0.000722948	0.000806676	0.000608238	0.00160389	0.00080021	0.000727041
0.00252991	0.00941053	0.00073151	0.000784972	0.000613469	0.00158953	0.000797687	0.000711881
0.00251599	0.0102812	0.000730399	0.000749879	0.000617155	0.0015606	0.000804537	0.000702901
0.0027093	0.0110073	0.000736819	0.000678811	0.000632193	0.00156205	0.000804936	0.00079313
0.00290041	0.0111663	0.00073803	0.000651375	0.000638184	0.00155032	0.000807089	0.000763067
0.00288692	0.0112686	0.000737904	0.00065374	0.000630537	0.00152405	0.000803521	0.000767403
0.00285513	0.0108144	0.000738529	0.000649505	0.000637677	0.00150494	0.000809672	0.000759455
0.00284769	0.0106308	0.000741195	0.000610366	0.000649699	0.00150801	0.00082089	0.00079951
0.00281534	0.0106438	0.000740253	0.000585658	0.000647139	0.00151084	0.000835396	0.000807235
0.00271315	0.0106528	0.000742796	0.00057841	0.000664278	0.00142187	0.000833451	0.00080489
0.00261671	0.0103168	0.000747923	0.000585785	0.00067079	0.00135485	0.000847144	0.000957024
0.00248624	0.00976355	0.00074591	0.00057979	0.000668984	0.00130667	0.000859356	0.00102958
0.00243595	0.00927088	0.000739908	0.000586047	0.000672921	0.00130119	0.000877707	0.00109545
0.00236668	0.00880067	0.000740177	0.00058402	0.000683831	0.00131623	0.000888415	0.00130835
0.00235981	0.00878137	0.000737216	0.000591358	0.000677298	0.00132233	0.00087146	0.00129734
0.00227052	0.00878991	0.000730884	0.000565166	0.00068991	0.00133276	0.000846283	0.00130035
0.00211	0.00876493	0.000730185	0.000547336	0.000693342	0.00131978	0.000860863	0.00132162
0.00209509	0.0087529	0.000735811	0.000545245	0.000701744	0.00117297	0.000875183	0.00132105
0.00209419	0.00803258	0.000741957	0.000556625	0.000699616	0.00108909	0.000873121	0.00138716
0.00210583	0.0077761	0.000739803	0.000571948	0.000708511	0.00100257	0.000878952	0.00142059
0.00210225	0.00771806	0.000741177	0.000571096	0.000715846	0.00100166	0.000886616	0.00141657
0.00210631	0.00737836	0.000754047	0.000584566	0.000720438	0.00100092	0.000896859	0.00137109
0.00190812	0.00770889	0.000745397	0.000587583	0.00071837	0.00104015	0.000899553	0.00135201
0.0018219	0.007879	0.000745485	0.000586636	0.000716146	0.00102532	0.000901313	0.00135922
0.0017994	0.00759078	0.000747809	0.000588336	0.000713266	0.0010511	0.00088915	0.00140101
0.0017906	0.0073971	0.000755431	0.000595227	0.000715129	0.00102562	0.000886362	0.00141689
0.00178695	0.00721634	0.00079694	0.000598828	0.000713264	0.00102489	0.000887299	0.00153548
0.00166085	0.00675906	0.000794257	0.000605367	0.000721071	0.00103868	0.000902725	0.00169651
0.00147504	0.00656754	0.000808502	0.00062548	0.000790414	0.00103051	0.000869744	0.00152519
0.0014389	0.00623306	0.000832185	0.000641058	0.000829512	0.000959026	0.00085675	0.00148429
0.00126576	0.00577234	0.000842875	0.000665466	0.000838039	0.000936541	0.000855798	0.00141198
0.00121191	0.00506288	0.000827379	0.000665757	0.00082894	0.000948793	0.00085971	0.00134799
0.00121442	0.00483325	0.000811498	0.000679576	0.000819068	0.000937352	0.000846298	0.00137908
0.00115062	0.00472633	0.000791567	0.000719756	0.000825425	0.000943895	0.000853372	0.00135798
0.00108208	0.00471768	0.000793555	0.000724858	0.000826489	0.00096603	0.000861128	0.00134528
0.00106901	0.00470497	0.000793811	0.000722585	0.000828071	0.000969231	0.000862248	0.00190053
0.00102521	0.0045784	0.000804271	0.000726387	0.000858903	0.000980336	0.000866512	0.0022204
0.00101434	0.00372133	0.000797886	0.000737218	0.000867982	0.000980874	0.000861228	0.00232162
0.000964249	0.00238932	0.000796883	0.000748179	0.000860501	0.000998823	0.000867025	0.00228739
0.000707247	0.00214885	0.000790487	0.000810296	0.000857975	0.000989113	0.000872349	0.00227496
0.000625852	0.00197958	0.00079785	0.000861252	0.000869835	0.000996673	0.000875449	0.0022605
0.000624454	0.0017898	0.000813507	0.00087929	0.000864912	0.00101335	0.000871707	0.00226219
0.000621617	0.00176361	0.000818914	0.000884688	0.000851472	0.0010193	0.000851831	0.00240573
0.000623776	0.00176422	0.000826561	0.000915097	0.000867932	0.00101368	0.000845754	0.00256847
0.000620899	0.00173568	0.000835594	0.000921045	0.000863454	0.00102993	0.00083384	0.00243467
0.000614961	0.00172609	0.000836055	0.000927711	0.000856655	0.00102801	0.000843278	0.00233345
0.000615006	0.00172875	0.000835109	0.000958321	0.000864384	0.00103772	0.000836232	0.00235875
0.00104058	0.00272371	0.000495676	0.000599241	0.000286514	0.000330357	0.00393627	0.00349704
0.00111997	0.00286445	0.000518122	0.000643873	0.000318071	0.000371062	0.00387878	0.00441301
0.00127457	0.00283599	0.000535657	0.000689832	0.000340694	0.000402152	0.00382024	0.00526647
0.00135402	0.00300245	0.000554818	0.00074937	0.000367594	0.00043766	0.00376983	0.00596276
0.00138468	0.00304558	0.000563841	0.000800081	0.000424651	0.000473377	0.00370045	0.00698303
0.00141252	0.00298516	0.000582839	0.000888305	0.000445373	0.000521009	0.00354318	0.00738594
0.00141872	0.00294677	0.000597504	0.000940469	0.000475334	0.000557514	0.00347603	0.00702664
0.00143256	0.00290069	0.000621392	0.00102931	0.00051032	0.000611415	0.00355348	0.007242
0.00154554	0.00329416	0.00064333	0.00108664	0.000544685	0.000640504	0.00358309	0.00670799
0.00160459	0.00350273	0.000643868	0.00107983	0.000553314	0.000653251	0.00372822	0.00618439
0.00158958	0.00349413	0.000636638	0.00108078	0.000560492	0.000642159	0.00370486	0.00563858
0.00152822	0.0037324	0.00065376	0.00106373	0.000571797	0.000643951	0.00355578	0.00601808
0.00156962	0.00379039	0.000653572	0.0010893	0.000584392	0.000636094	0.0035804	0.00574165
0.0015755	0.00366654	0.000660249	0.00108466	0.000568117	0.0006389	0.00352781	0.00571486
0.00148392	0.00313579	0.000672223	0.00106023	0.000567307	0.000640909	0.00346306	0.0058281
0.00141627	0.00302871	0.000670789	0.00109469	0.000574262	0.000641155	0.00346891	0.00544871
0.00140714	0.0028889	0.000672788	0.00110192	0.000560964	0.000623245	0.00332131	0.00637179
0.00139518	0.00282925	0.000666581	0.00113344	0.000577051	0.000629656	0.00342705	0.00634912
0.00137946	0.00280005	0.000668965	0.00118379	0.000581575	0.000635738	0.00351821	0.006679
0.00131466	0.00255942	0.000674168	0.00117522	0.000580413	0.000631447	0.00342618	0.00618726
0.00128689	0.00246705	0.000696298	0.00120496	0.000560226	0.000631224	0.00365382	0.00659069
0.00130688	0.00246296	0.000695748	0.00122194	0.000562114	0.000622491	0.00387624	0.00716213
0.00129684	0.00244564	0.000697457	0.00124817	0.00056787	0.000625652	0.00395983	0.00711322
0.00136193	0.00240057	0.000687548	0.00123447	0.000549424	0.000608877	0.00384471	0.00759729
0.00121275	0.00189576	0.000682311	0.0012299	0.000535857	0.000615095	0.00381358	0.00678978
0.00140607	0.00173237	0.000681493	0.00126578	0.000540194	0.000611173	0.00390238	0.00747794
0.00145635	0.00172873	0.000688352	0.00125353	0.000543947	0.000618287	0.00387625	0.00740156
0.00141422	0.00147574	0.000675396	0.00133416	0.000542003	0.000616026	0.0040111	0.00735952
0.00138227	0.00142078	0.000673178	0.00130145	0.000543956	0.000616592	0.00390638	0.00666243
0.00125175	0.00139473	0.000656501	0.00131603	0.000558693	0.000620107	0.00396155	0.00597226
0.00130339	0.00163946	0.000658379	0.00140318	0.000564387	0.000608385	0.00413185	0.00612336
0.00150616	0.00164682	0.000664303	0.0013505	0.000570007	0.000605953	0.00419571	0.00557345
0.00157019	0.0010189	0.000660265	0.00137746	0.000568463	0.000603863	0.00436176	0.00508778
0.00157886	0.000979447	0.000654257	0.00136014	0.000560354	0.000592112	0.00417213	0.00485958
0.00144577	0.000990431	0.000654549	0.00132236	0.00056482	0.000592984	0.00415768	0.00482642
0.00144502	0.00113536	0.000662702	0.00138787	0.000569502	0.000606401	0.00445615	0.00533269
0.00150069	0.00120878	0.000652912	0.00137893	0.00056554	0.000593402	0.00433731	0.00560585
0.0016468	0.0011938	0.000648364	0.0013581	0.000568197	0.000588523	0.00440474	0.00559284
0.00165952	0.00120475	0.000644285	0.00137443	0.000579995	0.000581047	0.00435277	0.00605652
0.00168771	0.00121153	0.000649792	0.00137848	0.000584938	0.000586843	0.00445351	0.00611903
0.00168695	0.00116201	0.000660414	0.00141845	0.000591541	0.000583152	0.00449037	0.0070324
0.0014952	0.00117561	0.000665846	0.0014062	0.000604541	0.000574907	0.00425525	0.0067436
0.00144377	0.00117497	0.000663063	0.00139632	0.000589347	0.000573885	0.00422582	0.00645452
0.00143497	0.00127352	0.000681888	0.00131857	0.000578207	0.000587004	0.00413184	0.00565356
0.0014275	0.0012672	0.000681655	0.00131206	0.000574531	0.00058565	0.00422607	0.00612303
0.00152303	0.00123571	0.000676013	0.00129857	0.000562867	0.000576592	0.00424496	0.00594231
0.00159091	0.00107111	0.000672664	0.00125816	0.000555062	0.000582114	0.00410837	0.00582369
0.00144516	0.00135689	0.00066973	0.00121424	0.00055793	0.000584587	0.00385432	0.00582364
0.00141814	0.00133848	0.000678631	0.0012321	0.000555345	0.000590699	0.00389405	0.00480486
0.0013945	0.00131035	0.000674292	0.00121875	0.000541074	0.000582303	0.0039243	0.00475887
0.00150741	0.00130774	0.000672099	0.00119067	0.000532003	0.00057918	0.00402197	0.00493572
0.00150203	0.00114017	0.000671242	0.00116436	0.000524714	0.000582986	0.0037719	0.0050672
0.00144551	0.00112855	0.000661443	0.00116243	0.000523434	0.000583418	0.00387232	0.0045861
0.00136533	0.0011812	0.000664342	0.00111862	0.000516658	0.00058754	0.00359278	0.00443919
0.00151572	0.00143014	0.000662483	0.00108031	0.000507696	0.000583223	0.00350735	0.00379547
0.00150721	0.00143567	0.000668332	0.00103958	0.000503493	0.00058254	0.00354726	0.00377796
0.0016497	0.00142589	0.000673833	0.00105366	0.000497825	0.000587276	0.00367283	0.00400047
0.00169012	0.00140086	0.000674022	0.00103228	0.000470606	0.000585738	0.00370107	0.00353963
0.00170075	0.001387	0.000696194	0.00101926	0.000478314	0.000584172	0.00382808	0.00431558
0.0017351	0.00135705	0.000677547	0.00108622	0.000479569	0.000590811	0.00392925	0.00446838
0.00167712	0.00137796	0.0006899	0.00110233	0.000479413	0.00059332	0.00399428	0.00451347
0.00165026	0.00139046	0.000696664	0.0011058	0.00051289	0.000598728	0.00403515	0.00454097
0.00162607	0.00129409	0.000683332	0.00110139	0.000516643	0.000591004	0.00405066	0.00470097
0.00163846	0.00106551	0.000685913	0.00110672	0.00051471	0.000595687	0.00409824	0.00524588
0.00169124	0.00130465	0.00068708	0.00111637	0.00052105	0.000599259	0.00406612	0.00566091
0.00167275	0.00137643	0.000692282	0.00113677	0.000534014	0.000601298	0.00397634	0.00639658
0.00170733	0.00137875	0.000686493	0.00116604	0.000541536	0.000606543	0.00392772	0.0055772
0.00179252	0.00138251	0.000681189	0.00119036	0.000549018	0.000598888	0.00392529	0.0057047
0.00179069	0.00132974	0.000691694	0.00122073	0.000533587	0.000618341	0.00390639	0.00570074
0.00169907	0.00131596	0.000695115	0.00124191	0.000541006	0.000614669	0.00397986	0.0055402
0.00168958	0.00103958	0.000692161	0.00129493	0.000538017	0.00061166	0.00402876	0.00566801
0.0015818	0.00104126	0.000685744	0.00133214	0.000544535	0.000610282	0.00401848	0.00470814
0.00147503	0.00106543	0.000692889	0.00131631	0.000553165	0.000617867	0.00382029	0.00452151
0.0014118	0.00113212	0.00067081	0.00135637	0.000557559	0.000632665	0.00386581	0.00403803
0.00152946	0.00114209	0.000663678	0.0013369	0.000567438	0.00063674	0.00384209	0.00428807
0.00148075	0.00136127	0.000675442	0.00130125	0.000586271	0.000621325	0.00394001	0.00342516
0.00152164	0.00134808	0.00067614	0.00125755	0.000589563	0.000604251	0.00383465	0.00351394
0.00155587	0.00139822	0.000673292	0.00124957	0.000557921	0.000606092	0.00384663	0.00497056
0.00149487	0.00140528	0.000681566	0.0012466	0.00056024	0.000607503	0.00393773	0.00523924
0.00143377	0.00136568	0.000680813	0.00129458	0.000568819	0.00060103	0.00388344	0.00594727
0.00138019	0.00109688	0.000665139	0.00130568	0.000564101	0.000593612	0.00408501	0.00548789
0.00137835	0.00108421	0.000668842	0.00126019	0.000554388	0.000601488	0.00412062	0.00565969
0.00143158	0.00107944	0.000668124	0.00126806	0.000557653	0.000603498	0.00434195	0.00522838
0.0014301	0.00115616	0.000674893	0.00123582	0.000548097	0.000606826	0.00433702	0.00585484
0.00147371	0.00145235	0.00066636	0.00118821	0.000560844	0.000582535	0.00417487	0.00608971
0.00147081	0.00144214	0.000664703	0.00114139	0.000566713	0.000580244	0.0041068	0.00491459
0.001466	0.00146399	0.000671326	0.00113403	0.000571443	0.000578896	0.0042244	0.00433331
0.00153229	0.00151948	0.000661673	0.00110309	0.000569902	0.000571196	0.00420068	0.00370756
0.00166789	0.00151149	0.00066143	0.0010992	0.000596435	0.000555194	0.00424031	0.00410244
0.00176466	0.00144221	0.000663013	0.0010683	0.000605904	0.000545811	0.00413384	0.00416128
0.00168919	0.00136081	0.000663673	0.00107666	0.0005974	0.000540264	0.00417308	0.00450016
0.00175989	0.00120494	0.00065717	0.00111189	0.000596874	0.000545909	0.00404749	0.00397743
0.001652	0.00138878	0.000649265	0.00109817	0.000593288	0.000549622	0.00402252	0.00363002
0.00172731	0.0013375	0.000639455	0.00111346	0.000596116	0.000543467	0.00411715	0.00396235
0.00170879	0.00135269	0.000634611	0.00111871	0.000597432	0.000552358	0.00403331	0.00494335
0.00167318	0.00135836	0.000641303	0.00105378	0.000592887	0.000559183	0.00400332	0.00501508
0.00174572	0.00143418	0.000643574	0.00103897	0.000599243	0.000565599	0.00383192	0.00467673
0.00172694	0.00144544	0.000644036	0.00104804	0.000603123	0.000560646	0.003777	0.00462131
0.00166565	0.00144799	0.000649807	0.00104124	0.000599152	0.000544014	0.00379012	0.00503497
0.00162627	0.00133163	0.000645671	0.00106543	0.000600533	0.000539	0.00378104	0.00509903
0.00367951	0.00700879	0.000770719	0.00135333	0.000552348	0.00089572	0.00200647	0.00110103
0.00367772	0.00700988	0.000772468	0.00141264	0.000545846	0.000942214	0.00203375	0.00112967
0.00367595	0.00701635	0.000746117	0.00141227	0.000547557	0.000962378	0.00207719	0.00118038
0.0036767	0.00702057	0.000734415	0.00141729	0.000553271	0.000969061	0.00208261	0.00130016
0.00372606	0.0070213	0.000728992	0.00141571	0.000554136	0.000991082	0.00207971	0.00132588
0.00382597	0.00757564	0.000721463	0.00143508	0.000560768	0.00100646	0.00207895	0.00125438
0.00383453	0.00786164	0.000701887	0.00144268	0.000544863	0.00102653	0.00208642	0.00124058
0.00384227	0.00799145	0.000691061	0.00144912	0.000535925	0.0010723	0.00209783	0.00123216
0.00384835	0.00803997	0.000688465	0.00146631	0.000528256	0.00112907	0.00212978	0.001213
0.00392225	0.00874997	0.000694129	0.00147295	0.000528001	0.00114107	0.00217962	0.00119151
0.00403054	0.00922222	0.000698292	0.00151536	0.000524301	0.00116094	0.00227936	0.00116504
0.00406471	0.00928042	0.000699901	0.00157392	0.00052478	0.00117784	0.00232669	0.00116029
0.00409263	0.00937997	0.000688818	0.00159017	0.000521588	0.0012129	0.00236006	0.00117253
0.00411563	0.00943704	0.000691705	0.0016025	0.00052003	0.00124179	0.00240146	0.00125592
0.00405175	0.00945177	0.000694645	0.00164869	0.000521257	0.00128514	0.0024204	0.00133625
0.00392562	0.00975821	0.000690772	0.00166236	0.000526123	0.00139572	0.00244044	0.00132942
0.00374064	0.00961611	0.000687283	0.00168412	0.000523287	0.00155799	0.0024029	0.00131179
0.00366786	0.00977101	0.000692254	0.00167107	0.000521637	0.00165872	0.00235162	0.00130096
0.00371568	0.00988613	0.000684385	0.00165924	0.000521364	0.00168019	0.00231533	0.0013049
0.00378098	0.00983035	0.000685132	0.00167739	0.000518418	0.00168182	0.00231514	0.00133568
0.00363837	0.00956563	0.000683193	0.00167673	0.000525045	0.00177503	0.00230004	0.00131869
0.00313459	0.0092258	0.000700421	0.00163086	0.000530639	0.00181234	0.00219705	0.00126456
0.00297219	0.00907063	0.00070058	0.00158323	0.000535325	0.00182968	0.00216673	0.0012201
0.00295121	0.00868889	0.000694595	0.00155632	0.00052993	0.00191168	0.00214977	0.00126023
0.00299905	0.00878764	0.000692067	0.00152144	0.000540995	0.00197836	0.00213784	0.00128169
0.0030148	0.00876237	0.000697021	0.00152239	0.000541443	0.00199501	0.00213508	0.00135597
0.00301399	0.00926879	0.000696771	0.00150692	0.000546508	0.0019874	0.00209163	0.00143404
0.0030502	0.00948463	0.00069869	0.001495	0.000550504	0.00201558	0.00207475	0.00145557
0.00306039	0.00960687	0.000695707	0.00144609	0.000552398	0.00208327	0.00207427	0.00146353
0.00306621	0.00954121	0.000695154	0.00140734	0.000549629	0.00215343	0.00203178	0.00146454
0.00306364	0.00923004	0.000694918	0.00138693	0.000548604	0.00215573	0.00202256	0.0014673
0.00308275	0.00912274	0.00069607	0.00136256	0.00054542	0.00216531	0.00192104	0.00147368
0.00309792	0.00919372	0.000696099	0.00134621	0.000548267	0.00224163	0.00188997	0.00147398
0.00322747	0.00959455	0.00068219	0.00131894	0.00054883	0.00230963	0.00183448	0.00149379
0.00320017	0.00975572	0.000676641	0.0012731	0.000550357	0.00236322	0.00173816	0.00149682
0.00312564	0.00929503	0.000680485	0.00124847	0.000549054	0.00239476	0.00174468	0.00147973
0.00309643	0.00896162	0.000674375	0.0012891	0.000543863	0.00240844	0.00177549	0.00148803
0.00308814	0.00855185	0.000681735	0.00132194	0.000553261	0.0025481	0.00178868	0.00148852
0.00309509	0.0083272	0.00068727	0.00135146	0.00055606	0.00260469	0.00180012	0.0014792
0.00309821	0.00857579	0.000701981	0.00138552	0.000558671	0.00259881	0.00179857	0.00147922
0.0030051	0.0085649	0.000714633	0.00137779	0.000559657	0.00256954	0.00173128	0.00149491
0.00226017	0.00822072	0.000701402	0.0013633	0.000555452	0.00252431	0.00168743	0.00149411
0.00193901	0.00809326	0.000697336	0.00135438	0.00055237	0.00254048	0.00158948	0.00147634
0.00193538	0.00806937	0.000701192	0.00134303	0.000558243	0.0025449	0.0015105	0.0014648
0.00194454	0.00805599	0.00071016	0.00131397	0.000555169	0.00253922	0.00145768	0.00144552
0.0021729	0.00806499	0.000708342	0.00130181	0.000548892	0.0025527	0.0014573	0.00142976
0.00228858	0.00820992	0.00071187	0.0012554	0.000551303	0.00259095	0.00140988	0.00140582
0.00229596	0.00830203	0.000708853	0.00120286	0.00056018	0.00259318	0.00135891	0.00135355
0.00229332	0.00836918	0.000703291	0.00118987	0.000554687	0.00257683	0.00131194	0.00128375
0.00228853	0.00846696	0.000712528	0.00123705	0.000555759	0.00257205	0.00128811	0.00111523
0.00226015	0.00849411	0.000710551	0.00124107	0.000558913	0.00258214	0.00129024	0.00107153
0.00216324	0.00809023	0.000710395	0.00122627	0.000563098	0.00260597	0.00129292	0.00105597
0.00213672	0.00772741	0.000702885	0.00121428	0.000568154	0.00269294	0.00128217	0.00105582
0.00212339	0.00745518	0.000706244	0.00122744	0.000574905	0.00266218	0.00127115	0.00106849
0.00211352	0.00738478	0.000706172	0.00120972	0.000576106	0.00259404	0.00123868	0.00105911
0.00210236	0.00712702	0.000699121	0.00120759	0.000578788	0.0025826	0.00120165	0.00102475
0.00202806	0.00693587	0.000698583	0.00115913	0.000580612	0.0025702	0.00110184	0.00101665
0.00198214	0.00707671	0.000692396	0.00109704	0.000583284	0.00257664	0.00105149	0.00100215
0.00200917	0.00708592	0.00070145	0.00113003	0.000576822	0.00255428	0.00102228	0.00100982
0.00195483	0.00699797	0.000696143	0.00113655	0.000578772	0.00254639	0.000988136	0.000947394
0.00203893	0.0069879	0.000693778	0.00112963	0.000576815	0.00252154	0.000975607	0.000865179
0.0020764	0.00677183	0.000689666	0.0011479	0.000570878	0.00252769	0.000981491	0.000836268
0.00209208	0.00654254	0.000679637	0.00117886	0.000574401	0.00237052	0.00098275	0.000827713
0.00216183	0.00621154	0.000674479	0.00113061	0.000575889	0.00224784	0.000981584	0.000820577
0.00214005	0.00582496	0.000677297	0.00111851	0.000580722	0.0022225	0.000956164	0.000830965
0.00206553	0.00557942	0.000680759	0.00110652	0.000581745	0.00222378	0.000936969	0.000821377
0.00203202	0.00560586	0.000699644	0.00110266	0.000580983	0.00219822	0.000927079	0.000825435
0.00202732	0.00568705	0.000687475	0.00110337	0.000578657	0.00215394	0.000922494	0.000859231
0.00202365	0.00567993	0.000689583	0.00112383	0.000576789	0.00213266	0.000908601	0.000945522
0.00202401	0.00572405	0.000685629	0.00113668	0.000580406	0.00206598	0.000889752	0.000959688
0.00194851	0.00557161	0.000687643	0.00113322	0.000578944	0.00198091	0.000869511	0.000969232
0.00192587	0.00548672	0.000689664	0.00112437	0.000577335	0.00193027	0.00085375	0.000968863
0.00193454	0.00507199	0.000685072	0.00112488	0.000576465	0.0019063	0.000837491	0.00094843
0.00196083	0.00464489	0.000685624	0.00113402	0.000573154	0.00189208	0.000824944	0.000906856
0.0019524	0.00438589	0.000683662	0.00113251	0.000570224	0.00184542	0.00081182	0.000905733
0.0019391	0.00442087	0.000679978	0.00114303	0.00058424	0.00177268	0.000813363	0.000898176
0.00193438	0.00477112	0.0006842	0.00113851	0.000583305	0.00176499	0.000812635	0.000896746
0.00192563	0.00494786	0.000677754	0.00113466	0.000578053	0.00177573	0.000808355	0.000876789
0.00193221	0.00496717	0.000671146	0.00113652	0.000577601	0.00172743	0.000803496	0.000893988
0.00178834	0.00450363	0.00066819	0.00113916	0.000574384	0.00165727	0.000802082	0.000982468
0.00164907	0.00437322	0.000663936	0.00114129	0.00058251	0.00156558	0.000795502	0.00106854
0.00160814	0.0042886	0.000661713	0.00113918	0.000576332	0.00153828	0.00078584	0.00106588
0.00159201	0.00420668	0.000662149	0.00108884	0.000584836	0.00152591	0.000751686	0.00106993
0.0015945	0.00415446	0.00065187	0.00105267	0.000584255	0.00142486	0.000739438	0.0010727
0.0015866	0.00405952	0.000651852	0.00102132	0.000580092	0.00130191	0.000728863	0.00108528
0.00158577	0.00370628	0.000635885	0.00100351	0.000586103	0.00128458	0.000724746	0.00109386
0.00164369	0.00351944	0.000625017	0.000959752	0.000583279	0.00127032	0.000718706	0.00110029
0.00167851	0.00352878	0.000625777	0.000956441	0.000585598	0.00126667	0.000720742	0.00110121
0.00169764	0.00353962	0.000630163	0.000960705	0.000584847	0.00124319	0.000727023	0.00110452
0.00164739	0.00354274	0.000628769	0.000982789	0.000586071	0.00123594	0.000726667	0.00110489
0.0016196	0.00355859	0.000633428	0.000996147	0.000589118	0.00123577	0.000740721	0.0010719
0.00140853	0.00355074	0.000635172	0.000992379	0.000589663	0.00121905	0.000738578	0.000978541
0.00128137	0.00348724	0.000630323	0.00100201	0.000589648	0.0011863	0.000745969	0.000967888
0.00126483	0.00335821	0.000639478	0.00101082	0.000586079	0.00111929	0.000745903	0.00105996
0.00126817	0.00334901	0.000644285	0.00103159	0.000602287	0.00109075	0.000738442	0.00108427
0.00127234	0.0032268	0.000646841	0.00102304	0.000605401	0.00109023	0.000740188	0.00107321
0.0012724	0.00319566	0.000643365	0.00102066	0.000594848	0.00107021	0.000738085	0.00107422
0.00126789	0.00318841	0.00064534	0.00103258	0.000587561	0.00103921	0.000742587	0.00107348
0.00126924	0.00318062	0.000646637	0.00104355	0.000591395	0.000943586	0.000744738	0.00107226
0.0012734	0.00319259	0.000646592	0.00106527	0.000591303	0.00091478	0.000751165	0.00106933
0.00104058	0.00272371	0.000495676	0.000599241	0.000286514	0.000330357	0.00393627	0.00349704
0.00111667	0.0028662	0.000515999	0.000639299	0.000312605	0.000368454	0.00389397	0.0042813
0.00125411	0.0028483	0.000535078	0.00067831	0.000335524	0.000393808	0.0038587	0.00499717
0.0013131	0.00294658	0.000547341	0.000725661	0.000356682	0.000424098	0.00378977	0.00588753
0.0013548	0.0030336	0.00055671	0.00076941	0.000397228	0.000456084	0.00373121	0.00665743
0.00141018	0.00302539	0.000567131	0.000834858	0.000430172	0.000492696	0.00363674	0.00717601
0.00141285	0.00298209	0.000584295	0.000908384	0.000454992	0.000532159	0.00352295	0.00730119
0.00142173	0.00293683	0.000598972	0.000953559	0.000477772	0.000566452	0.00352755	0.00704639
0.00143218	0.00290257	0.000622265	0.00102934	0.000510989	0.000611559	0.00355861	0.00722302
0.00149956	0.00307249	0.000643037	0.00107768	0.000544367	0.000636867	0.0035985	0.00670779
0.00160125	0.00351093	0.000648462	0.00108913	0.000554737	0.000650832	0.0037046	0.00636985
0.00159459	0.00348985	0.000641108	0.00110161	0.000557501	0.000646839	0.00375982	0.00595938
0.00150913	0.00360188	0.000645619	0.00105682	0.000569318	0.000649363	0.00362215	0.00513716
0.00154541	0.00372444	0.000652725	0.00109662	0.000573305	0.000637968	0.00362591	0.00584925
0.00159618	0.00379086	0.000652174	0.00109792	0.000581354	0.000632764	0.0035927	0.00576154
0.00154332	0.00344293	0.000662652	0.00108284	0.000565106	0.000639468	0.00351551	0.00568265
0.00148505	0.0031258	0.000672406	0.00105725	0.000567944	0.000642137	0.00346228	0.00584669
0.00143149	0.0030632	0.00067424	0.00109166	0.000574248	0.000641674	0.00344851	0.0054407
0.00140102	0.00294001	0.000669862	0.00110002	0.000568301	0.000624225	0.00333767	0.00652697
0.0013915	0.00282647	0.000659213	0.00112382	0.000578645	0.000612074	0.00334208	0.00652815
0.00135336	0.00280829	0.000666137	0.00114633	0.000577453	0.000636585	0.00345394	0.00631409
0.00135798	0.00268366	0.000666516	0.00117568	0.0005806	0.000636545	0.00349441	0.00673908
0.00131652	0.00252548	0.00068298	0.00117383	0.00057554	0.000628074	0.00351292	0.00610575
0.00129702	0.00246366	0.000696314	0.00119171	0.000561888	0.00062488	0.00366025	0.00654959
0.0013055	0.0024627	0.000695864	0.00121769	0.000563423	0.000620323	0.00388345	0.0072531
0.00129769	0.00244714	0.000698531	0.00125781	0.000567546	0.000625971	0.0040078	0.00714159
0.00135902	0.0024341	0.000689073	0.00123112	0.00055067	0.000608186	0.00392371	0.0074896
0.00131409	0.00226236	0.000680694	0.0012344	0.000537232	0.000619562	0.00382589	0.00669289
0.0013562	0.00174262	0.000678117	0.00121508	0.000535659	0.000607182	0.00365528	0.00689297
0.00142829	0.00173177	0.000682892	0.00124753	0.000545776	0.000617487	0.00394871	0.00770463
0.00146031	0.00165772	0.000683615	0.00126817	0.000537229	0.000619937	0.00394544	0.0073902
0.00141541	0.00147376	0.000674617	0.00130519	0.000546274	0.000615967	0.00393949	0.00732351
0.0013686	0.00141884	0.000673249	0.00130099	0.000545295	0.000617008	0.00391413	0.0066153
