0.00731693	0.00127333	0.000746552	0.000788421	0.000576404	0.001629	0.00540125	0.00381396
0.00796723	0.00128364	0.000726548	0.000813221	0.000593882	0.00180396	0.00560009	0.00386235
0.00839508	0.00141044	0.000714192	0.000809232	0.000584518	0.00206857	0.00574164	0.00382054
0.00874728	0.00147791	0.000710157	0.000780124	0.000588599	0.00216675	0.00536272	0.00393442
0.0092409	0.00145815	0.000734778	0.000775969	0.000592088	0.00222716	0.00528219	0.00394702
0.00879738	0.00142167	0.000734974	0.000728183	0.00060854	0.00229764	0.00468124	0.00381678
0.00865699	0.00139652	0.000745826	0.000696099	0.00059128	0.00295126	0.00402274	0.00320624
0.00842858	0.00133836	0.000754905	0.000697528	0.000590788	0.00320666	0.00369403	0.00306073
0.00763377	0.0013674	0.000759566	0.000683471	0.000588486	0.00342227	0.00345968	0.00297758
0.00537267	0.00145574	0.000745088	0.000640862	0.000599454	0.00329508	0.00306604	0.00271576
0.00538938	0.00144946	0.000768337	0.000663482	0.000588708	0.00336411	0.00298657	0.00284087
0.00632031	0.00145329	0.000753917	0.000656392	0.000574927	0.00377428	0.00286309	0.00297759
0.00647875	0.00147854	0.000768454	0.000656099	0.000567441	0.00420795	0.002818	0.00291472
0.00703974	0.0015702	0.000755894	0.000644438	0.000572965	0.00415573	0.00280973	0.00279567
0.00720856	0.00161372	0.00073722	0.00063362	0.000585462	0.00429933	0.00292375	0.00302881
0.00726066	0.00157196	0.000735298	0.000633384	0.000589466	0.00427452	0.00294776	0.00302616
0.00724952	0.00145637	0.000748845	0.000624594	0.000581198	0.00418312	0.00277032	0.00293305
0.0073089	0.0013558	0.000765425	0.000612239	0.000578016	0.00402712	0.00231598	0.00254198
0.00718479	0.0013278	0.000767045	0.000619953	0.000577664	0.00437263	0.00228191	0.00227961
0.00661464	0.00139875	0.000749799	0.000636077	0.000590944	0.00462404	0.00236438	0.00217511
0.00633488	0.0014275	0.00073795	0.000659193	0.000574352	0.00452133	0.00234488	0.00219641
0.00602519	0.00143509	0.000755776	0.000690562	0.000577026	0.00397788	0.00235802	0.00220924
0.00549378	0.001518	0.000766152	0.0006883	0.000590467	0.00366035	0.00234377	0.00212789
0.00551729	0.00144767	0.000782972	0.000683825	0.000570048	0.00358627	0.0022085	0.00206554
0.00621944	0.0013433	0.000773346	0.00067843	0.000565468	0.0036762	0.00202229	0.00197915
0.00652818	0.00128533	0.000778796	0.00064949	0.000570683	0.00364249	0.00170339	0.00182836
0.00663242	0.00135062	0.00079191	0.000675968	0.000578334	0.00328592	0.00155189	0.0016008
0.00687583	0.00132549	0.000791671	0.000669732	0.00059518	0.00285976	0.00152246	0.00156903
0.00662937	0.00127136	0.000771856	0.000665332	0.00059996	0.00273976	0.00143252	0.00151117
0.00654409	0.00130101	0.000786034	0.000660745	0.000604239	0.0027846	0.00116304	0.00123966
0.00635566	0.00124133	0.000760241	0.000651404	0.000591289	0.00276622	0.00104886	0.00120858
0.00544378	0.00126493	0.000754853	0.000662153	0.000582202	0.0027544	0.000971457	0.00122374
0.0061129	0.00124428	0.000728023	0.000644309	0.000585072	0.00266732	0.000934592	0.0011857
0.00602373	0.00124632	0.000731524	0.000660525	0.000607663	0.00232302	0.000865987	0.00115077
0.00592382	0.00131554	0.000724576	0.000640738	0.000606124	0.00207226	0.000748857	0.00113148
0.00545108	0.00128215	0.000721558	0.000609019	0.000603894	0.00202179	0.00066512	0.00105864
0.00555998	0.00129925	0.000701584	0.000555547	0.000586965	0.00201842	0.000615212	0.000982572
0.00565581	0.00118551	0.000673901	0.000546226	0.000565917	0.00211966	0.000596222	0.00100558
0.00627357	0.00125044	0.000683594	0.000564126	0.0005799	0.00211783	0.000592917	0.00099731
0.00573795	0.00126795	0.000683618	0.000585308	0.000580255	0.00189495	0.000588517	0.000994128
0.00614875	0.0013068	0.000685461	0.000580285	0.000565911	0.0018562	0.000580697	0.00101445
0.00618678	0.00143871	0.000670383	0.000581098	0.000559459	0.00207764	0.000587262	0.00102157
0.00623247	0.00159222	0.000675532	0.000571434	0.00055144	0.00202661	0.000604445	0.00102711
0.00590888	0.00170714	0.000691644	0.000574194	0.000537051	0.0020544	0.000611366	0.000984947
0.00621746	0.00176306	0.000677316	0.000570853	0.00052953	0.0019529	0.000590592	0.000962483
0.00715012	0.00195788	0.000666158	0.000578389	0.000538185	0.00187656	0.000573332	0.000982254
0.00777662	0.0019652	0.000683164	0.000574726	0.000564809	0.00190749	0.000560407	0.000962799
0.00710422	0.00197795	0.000721611	0.000576734	0.000557276	0.00192118	0.000563685	0.000982498
0.00661587	0.00200319	0.000715182	0.00057776	0.000543742	0.00184242	0.000563643	0.000961998
0.00696618	0.00193793	0.000713048	0.000572775	0.000519718	0.00177445	0.000543406	0.000982111
0.00718412	0.0019699	0.000706206	0.000595651	0.000544037	0.00173991	0.000519583	0.00103195
0.00752626	0.00203761	0.000689655	0.000611241	0.000556403	0.0017412	0.00052944	0.00104592
0.00752795	0.00214086	0.000708251	0.00063788	0.000549883	0.00161638	0.000530799	0.00105685
0.00717093	0.0021481	0.000708184	0.000625867	0.000547764	0.0016165	0.000520765	0.00105284
0.00760003	0.00218762	0.000693159	0.000606651	0.000549252	0.00170378	0.000527013	0.0010544
0.00712926	0.00230336	0.000678288	0.000605007	0.000558415	0.00170286	0.00052637	0.001087
0.00624145	0.00227433	0.000662424	0.000605423	0.000572451	0.00161781	0.000529152	0.0010675
0.00545108	0.00225144	0.000670973	0.000607113	0.000599987	0.0015847	0.000513052	0.00111564
0.00673829	0.00232071	0.000668458	0.000625702	0.000596722	0.00154752	0.000502879	0.00112199
0.00696016	0.00234743	0.000662668	0.000635581	0.000648949	0.00139052	0.000517862	0.00120308
0.00709262	0.0022498	0.000675673	0.000626693	0.000638556	0.00132755	0.000538666	0.00143542
0.0062759	0.00246766	0.000668508	0.000629281	0.000617526	0.0013249	0.000547297	0.0016669
0.00620773	0.00243407	0.000636903	0.000617957	0.000643636	0.00124507	0.00054672	0.00168139
0.00620611	0.00249744	0.000635259	0.000598401	0.000630943	0.00122443	0.000555276	0.00169804
0.00600002	0.00257587	0.000616527	0.000612354	0.000674692	0.00117531	0.000558051	0.00171096
0.00540297	0.00268791	0.000613758	0.000610823	0.000688512	0.00126267	0.000548498	0.00167847
0.0051648	0.00282282	0.000623585	0.000619119	0.000688202	0.00127322	0.000542241	0.00171671
0.00491863	0.00296269	0.000613343	0.00060144	0.000748181	0.00125075	0.000547984	0.00171921
0.00481078	0.0029604	0.000628136	0.000593837	0.000796203	0.00122773	0.00057147	0.00181809
0.00427144	0.00311346	0.000616894	0.000615447	0.000805947	0.00107159	0.000563327	0.00183295
0.00404487	0.0030983	0.000625535	0.0006096	0.00079818	0.00100424	0.000565059	0.00184292
0.00405383	0.00299158	0.000622137	0.000605078	0.000803184	0.000848476	0.000566021	0.00187456
0.00443051	0.00298936	0.000624258	0.000589739	0.000768025	0.00075843	0.000580977	0.00186254
0.00356071	0.00305556	0.00062496	0.000586597	0.000776097	0.000766955	0.000600051	0.00193262
0.00288925	0.00300469	0.000701347	0.000576093	0.000745538	0.000787997	0.000606088	0.0018966
0.00189713	0.00297146	0.000756122	0.000574625	0.000764996	0.000825045	0.000609319	0.00178402
0.00167163	0.0029191	0.000787777	0.000591264	0.000866156	0.00088864	0.000618846	0.00159955
0.00150127	0.00309286	0.000820407	0.000590375	0.000849163	0.000887305	0.00062369	0.00158601
0.00149479	0.00315164	0.000830731	0.000621659	0.000854794	0.00088051	0.000631883	0.00161324
0.00151189	0.00294732	0.000837995	0.000608571	0.000839469	0.000861084	0.000635237	0.00165137
0.0015107	0.00276243	0.000878589	0.000596825	0.000812177	0.000756421	0.000643696	0.00169785
0.00150267	0.00293044	0.000871401	0.000576549	0.000809266	0.000724083	0.000649741	0.0018874
0.00142546	0.00272825	0.000864011	0.000572817	0.000799588	0.000733254	0.000665446	0.00188289
0.00139894	0.00267137	0.000849726	0.000587231	0.000754899	0.00086304	0.000667438	0.00179555
0.00132322	0.00261683	0.000858002	0.00057522	0.000845274	0.000920339	0.000680751	0.00179273
0.00128857	0.00259414	0.000873808	0.000565243	0.000904432	0.000931105	0.00066322	0.0017679
0.00125784	0.0027797	0.000883821	0.000569279	0.000885103	0.000930943	0.000683497	0.00173387
0.00112267	0.00269431	0.0008772	0.000584263	0.000896988	0.00093877	0.000676655	0.00172956
0.000678498	0.0024819	0.000868843	0.000584309	0.000880876	0.00107422	0.000648258	0.00168824
0.0006359	0.00229105	0.000827313	0.000580169	0.000884745	0.00106727	0.000645697	0.00167238
0.000604429	0.00225333	0.000741929	0.000589976	0.000857995	0.00104626	0.000616581	0.00156129
0.000618553	0.00217063	0.000743415	0.00057204	0.000777269	0.00102272	0.000618492	0.00155149
0.000608071	0.00209988	0.00071373	0.000566752	0.000761407	0.00102664	0.000605359	0.00151003
0.00060595	0.00197019	0.000707896	0.000558429	0.000748202	0.00103881	0.000595092	0.00147004
0.000605875	0.00195853	0.000714948	0.000586502	0.000754204	0.00105326	0.00059129	0.001446
0.000613007	0.00193653	0.000720437	0.000628062	0.000768463	0.00103598	0.000583772	0.00138075
0.000607	0.00161695	0.000710224	0.000635711	0.000777984	0.00101748	0.000576475	0.00126546
0.000590051	0.00152384	0.000711799	0.000636696	0.000742543	0.00100367	0.000582847	0.00122177
0.000576225	0.00150331	0.000715249	0.000639767	0.00073534	0.000889716	0.000589363	0.00121152
0.000600595	0.00138273	0.000711976	0.000620044	0.00065483	0.000804762	0.000603846	0.00140381
0.00061008	0.00110136	0.000569426	0.000794378	0.000907471	0.0003697	0.000745751	0.000914255
0.000633092	0.00118197	0.000610662	0.000738466	0.00093946	0.000416605	0.000720388	0.00100631
0.000657193	0.00154258	0.000681969	0.000700776	0.000897918	0.000500987	0.000695904	0.00104848
0.00103045	0.00153276	0.000737697	0.000646793	0.000844423	0.000565607	0.000773035	0.00114209
0.00146292	0.00154115	0.000722091	0.000585008	0.00079943	0.000593046	0.00114489	0.00144805
0.00205721	0.00175322	0.000704301	0.000558361	0.000758991	0.000565994	0.00190411	0.00181664
0.00376311	0.00202312	0.000680483	0.000590691	0.000657009	0.000641796	0.00245111	0.00244173
0.00417574	0.00219161	0.000710544	0.00061511	0.000575101	0.000879145	0.00307715	0.00290876
0.0050563	0.00223337	0.000705388	0.00063496	0.000580045	0.000936523	0.00434626	0.0036582
0.00556043	0.00204261	0.000669028	0.000701909	0.00057489	0.00145302	0.0065668	0.00524036
0.00621688	0.00208617	0.000652947	0.000740656	0.000601591	0.00184656	0.00797349	0.00621386
0.00629281	0.00202488	0.000698463	0.000774758	0.00061726	0.00235353	0.00918801	0.00692177
0.00620485	0.00206538	0.000697056	0.000777648	0.000605019	0.00274518	0.00988849	0.0074947
0.00770326	0.00187603	0.000712429	0.00083834	0.000593823	0.00386327	0.0122042	0.00871218
0.00917617	0.00172344	0.000718827	0.000838746	0.000601491	0.00433122	0.0114369	0.00835909
0.00892456	0.00176462	0.00100224	0.000855022	0.000639913	0.00418818	0.00930331	0.00673389
0.00826404	0.00177731	0.0011519	0.000841088	0.000649469	0.0046374	0.00786419	0.00565089
0.00916165	0.00184077	0.00118198	0.000866303	0.000636397	0.00485299	0.00684374	0.00532703
0.00963752	0.00155375	0.00117833	0.00084394	0.000629537	0.00494785	0.00566878	0.00444627
0.00819877	0.00180116	0.00117057	0.000748328	0.000638686	0.00562727	0.00285856	0.00273972
0.00824093	0.00161	0.00112744	0.000740775	0.000601356	0.00472378	0.00208305	0.00216584
0.00730754	0.00158932	0.000909306	0.000676203	0.00057136	0.00477852	0.00189661	0.00205877
0.00844146	0.00149137	0.000741916	0.000660928	0.000540541	0.00464799	0.00181624	0.00202344
0.00789875	0.00164722	0.000659438	0.000663685	0.000533488	0.00457593	0.00177207	0.00183469
0.0074512	0.00159141	0.000683876	0.000666079	0.000509941	0.00410553	0.00124925	0.00184264
0.00637727	0.00130715	0.0006647	0.000689177	0.00052259	0.00320953	0.00111404	0.00154154
0.00659237	0.00147325	0.000685357	0.000659053	0.00053235	0.00368	0.00101374	0.00150111
0.00662517	0.00182298	0.000704713	0.000638438	0.000521123	0.00354469	0.000987346	0.00157654
0.00636667	0.00199129	0.000727178	0.000642047	0.00053665	0.00375836	0.000973138	0.00203767
0.00695147	0.00215576	0.000700025	0.000639132	0.000545442	0.00338892	0.00102972	0.00203932
0.00640685	0.00189151	0.000688527	0.000619427	0.000601308	0.00344551	0.000716962	0.0017755
0.00673399	0.00207279	0.000701938	0.000604503	0.000595421	0.00341792	0.000659186	0.0016349
0.00695846	0.0019307	0.000688147	0.000610693	0.000596302	0.00314392	0.000681407	0.0016424
0.00616068	0.00166006	0.000650984	0.000657624	0.00060581	0.00283712	0.000699401	0.00158815
0.00740082	0.00156916	0.000642137	0.000639873	0.000587489	0.00229269	0.000727001	0.00126925
0.00652363	0.00146726	0.000664335	0.000612059	0.000563917	0.00231198	0.000624588	0.00118628
0.00592554	0.00156175	0.000632525	0.000609928	0.000516448	0.00216375	0.000587024	0.00121377
0.00628179	0.00177263	0.000664775	0.000602423	0.000529396	0.00254868	0.000565126	0.00127862
0.00673559	0.00156201	0.000645661	0.000566741	0.000523541	0.00230485	0.000542342	0.00144955
0.00661684	0.00176908	0.000638749	0.000533417	0.000540231	0.00228558	0.00055167	0.00161622
0.00513887	0.00185733	0.000635857	0.000490778	0.000563502	0.00245421	0.000535273	0.00166066
0.00510291	0.00213883	0.000671242	0.000482776	0.000594745	0.00247965	0.000526064	0.00169751
0.00564638	0.00217936	0.000720677	0.000484801	0.000622426	0.00253659	0.000540095	0.00167906
0.00546177	0.00200022	0.000716504	0.000489158	0.000642101	0.0019631	0.000536431	0.00157809
0.00531504	0.00214647	0.000712917	0.000497753	0.000642502	0.00170428	0.000554589	0.00138618
0.00450592	0.00222446	0.000729088	0.000512345	0.000631827	0.00158481	0.00053989	0.00122548
0.00466999	0.0020935	0.00075235	0.000527902	0.00063849	0.00157079	0.000532633	0.00121549
0.00553632	0.00204377	0.000719373	0.000539622	0.000655434	0.00130286	0.00053367	0.00119579
0.00586003	0.00210073	0.000687836	0.000558623	0.000690431	0.00108416	0.000558854	0.00118615
0.00471326	0.00236574	0.000656615	0.000554654	0.000674632	0.00108063	0.000541132	0.00114482
0.0038182	0.00253661	0.000644952	0.000564081	0.000704435	0.00120681	0.000551659	0.00120376
0.00421664	0.00264353	0.000663265	0.000568345	0.000765047	0.00120438	0.00054477	0.0012632
0.00405067	0.00299147	0.000680167	0.000596228	0.000845761	0.0011925	0.000552717	0.00186723
0.00311396	0.0035258	0.000679471	0.000591344	0.000804868	0.000910555	0.00057209	0.00181267
0.00205044	0.00378631	0.000709574	0.000592711	0.000838063	0.000964277	0.000554414	0.00184096
0.0020793	0.0037706	0.00074435	0.000586858	0.000959734	0.0009986	0.000546995	0.00192484
0.00192928	0.00346261	0.00076453	0.000581263	0.000959534	0.000857284	0.000561307	0.00185608
0.00108874	0.00366332	0.000755793	0.000571934	0.00090246	0.00082067	0.000581889	0.0018992
0.000759671	0.00350254	0.000740406	0.000528482	0.0010065	0.00074328	0.000587875	0.00147728
0.000761393	0.00314337	0.000712331	0.00050436	0.00100229	0.000736197	0.000602655	0.00140578
0.000699846	0.00253757	0.000688634	0.000517706	0.000967742	0.00064148	0.000608071	0.00135598
0.000627786	0.0025211	0.000670858	0.000594601	0.000868972	0.000619093	0.000637869	0.0013573
0.000607822	0.00231514	0.000652968	0.000604256	0.000881763	0.000819574	0.000604633	0.00139792
0.000604728	0.00180205	0.000662859	0.000673941	0.000822569	0.000861054	0.000615899	0.00132319
0.000572156	0.00148926	0.000681187	0.000693819	0.000685496	0.000864729	0.000672367	0.00214719
0.000539306	0.00133802	0.000652558	0.000729045	0.000669526	0.000846638	0.00067171	0.00244725
0.000551968	0.00122794	0.000645621	0.000752157	0.000612174	0.000804732	0.000719321	0.00290218
0.000559136	0.000866946	0.000652373	0.000711758	0.000584747	0.000787164	0.000729808	0.00325772
0.000555831	0.00080089	0.000679741	0.000703861	0.000587068	0.00067085	0.000761778	0.0036975
0.000569951	0.0007444	0.000679086	0.000675672	0.000569496	0.000684032	0.000817766	0.0043596
0.000568864	0.000683902	0.000676755	0.000650533	0.000563749	0.000749295	0.000789489	0.0042567
0.000577169	0.000683158	0.000694265	0.000691406	0.000566638	0.000747395	0.000808813	0.00411357
0.000563715	0.000721197	0.00072874	0.000677141	0.000592144	0.000769451	0.000761155	0.00355155
0.000562588	0.000718189	0.000731044	0.000683874	0.000591097	0.000787103	0.000741842	0.00321225
0.000561498	0.000772044	0.000714217	0.000690092	0.000592927	0.000799341	0.000740903	0.00289848
0.000575074	0.000886162	0.000719932	0.000657463	0.00060615	0.000772697	0.000718031	0.00286067
0.00057185	0.000937164	0.000691454	0.000644565	0.000622742	0.000569509	0.000709824	0.00262922
0.000550902	0.000917101	0.000666564	0.000590855	0.00060772	0.000566069	0.000705455	0.00222524
0.000540151	0.000850377	0.000663313	0.000603571	0.000623053	0.000566132	0.000758266	0.00267198
0.000527379	0.0010442	0.000667254	0.000598643	0.00063618	0.000533258	0.000765112	0.00278666
0.000531603	0.00112981	0.000660908	0.000575713	0.000634986	0.000506812	0.000742003	0.00279551
0.000524928	0.00125989	0.000669368	0.000589807	0.000636495	0.000533541	0.000733698	0.0024742
0.000539624	0.00147109	0.000665573	0.000605085	0.000686481	0.000531322	0.000727918	0.00202882
0.000555874	0.00159885	0.000669839	0.000638164	0.000747006	0.000528201	0.000728361	0.00192713
0.000566642	0.00187668	0.000678901	0.000625409	0.000810937	0.000567901	0.000669279	0.00152636
0.000582742	0.00187946	0.000667697	0.000636435	0.000804172	0.000603773	0.000638717	0.00128921
0.000606145	0.00186487	0.000686149	0.000623813	0.000923983	0.000635155	0.000610472	0.00113296
0.000632994	0.00174083	0.000685107	0.000617656	0.000966704	0.000629288	0.00061464	0.00110479
0.000673621	0.00136633	0.000680983	0.000606036	0.000864	0.00063629	0.000629035	0.00108839
0.000674976	0.00127158	0.00070303	0.000571431	0.000859162	0.000640876	0.000627912	0.0011424
0.000657411	0.00099985	0.000681604	0.0005604	0.000773569	0.000632803	0.000617605	0.00116503
0.000658117	0.000955075	0.000694253	0.000546552	0.00083482	0.000587487	0.000620938	0.00171497
0.000623236	0.000842993	0.000677766	0.000559433	0.000689262	0.000582949	0.000621815	0.00198919
0.000619103	0.00103687	0.000667169	0.000574419	0.000747951	0.000582385	0.000630678	0.0020828
0.00055421	0.00108433	0.000646839	0.000558659	0.000798855	0.000586702	0.00060012	0.00227558
0.000550946	0.00106517	0.000633197	0.000577775	0.000903869	0.000600557	0.000576226	0.00227328
0.000577509	0.00111179	0.000650445	0.000603986	0.000948118	0.000616425	0.000558764	0.0022071
0.000599086	0.00107732	0.00065479	0.000619576	0.00090553	0.000634662	0.000540642	0.00189601
0.000614399	0.00117498	0.000651304	0.000611413	0.00091345	0.000623317	0.00055646	0.00151783
0.000652049	0.000918664	0.000750693	0.00061281	0.000858623	0.000665342	0.000597951	0.00157648
0.00692486	0.00141058	0.00063303	0.000819977	0.000550303	0.00224393	0.0069502	0.00539134
0.00683479	0.00140261	0.000623193	0.000809373	0.000549823	0.00237846	0.00704148	0.00546695
0.00710454	0.00155736	0.000613172	0.000839535	0.000551189	0.00260273	0.00788861	0.00588719
0.00751596	0.00153438	0.000616265	0.000852496	0.000544927	0.00344515	0.00935392	0.00681324
0.00706418	0.00146139	0.000639176	0.000860692	0.000505766	0.00372507	0.00992236	0.00749109
0.00725065	0.00135108	0.000660175	0.0008595	0.000518588	0.00405619	0.0101198	0.00789121
0.0074407	0.0013195	0.000657053	0.000905546	0.000505537	0.00417709	0.00994643	0.00785999
0.00832456	0.00135626	0.000654416	0.000878516	0.000498913	0.00416724	0.00938398	0.00777168
0.00846635	0.00134185	0.00067884	0.000839018	0.00051301	0.00415821	0.00905547	0.00777557
0.00854462	0.00138284	0.000670776	0.000849887	0.00051117	0.00430962	0.00899777	0.00781631
0.00794714	0.00147653	0.000688299	0.000804449	0.000514261	0.0043284	0.00840124	0.00772483
0.00804813	0.00148416	0.00069145	0.000804298	0.000516342	0.00420282	0.00744642	0.00728744
0.00841095	0.00151402	0.000691845	0.000774157	0.000509838	0.004206	0.00718533	0.00714008
0.00869238	0.00150544	0.000699543	0.000780936	0.000501373	0.00461768	0.00660599	0.00655546
0.00845066	0.00151609	0.000708439	0.000807064	0.000493233	0.00507647	0.00622822	0.0064792
0.00842016	0.00153596	0.000711699	0.00078362	0.000499699	0.00508855	0.00637799	0.00658977
0.00864042	0.00146782	0.000727174	0.000812827	0.000499306	0.00491507	0.00640949	0.00590546
0.00865467	0.00146329	0.000741339	0.000807427	0.000517022	0.00469766	0.00606395	0.00595185
0.00783673	0.00131354	0.000756904	0.000771781	0.000528579	0.00490409	0.00555968	0.00574923
0.00774806	0.00151011	0.000751379	0.000741782	0.000530501	0.0043223	0.00378834	0.004943
0.00773192	0.0015754	0.000752034	0.000723985	0.000539499	0.00392788	0.00323374	0.0042744
0.00832842	0.00154567	0.000729917	0.000738054	0.000542795	0.00391277	0.0025928	0.00334791
0.00864222	0.00156144	0.000712746	0.000716219	0.000545343	0.0036886	0.00257235	0.00330496
0.00769343	0.00149112	0.000713713	0.000705937	0.000553258	0.00376352	0.00257536	0.00309366
0.00781196	0.00146794	0.000713555	0.000731963	0.000551081	0.00380122	0.00258997	0.00280685
0.00787535	0.00146957	0.000721104	0.00073198	0.000540144	0.00377969	0.00255817	0.00269511
0.00783529	0.00138257	0.000727674	0.000731257	0.000544478	0.00356026	0.00243618	0.00252717
0.00744358	0.00134632	0.000721476	0.000732923	0.000554605	0.00350735	0.0022748	0.00235337
0.00648576	0.00138263	0.000726112	0.000727869	0.000560769	0.00384612	0.00214629	0.00230267
0.00574677	0.00135256	0.000722003	0.000723742	0.000559443	0.00378169	0.0022109	0.0022241
0.00575214	0.00140669	0.000719797	0.000715305	0.000565624	0.00313275	0.00221195	0.00211167
0.00584264	0.00149443	0.000735757	0.000724454	0.000564425	0.00346684	0.0021378	0.00201475
0.00550093	0.00155625	0.000731871	0.000720572	0.000565945	0.00352414	0.00159323	0.00199145
0.00535556	0.00156236	0.00072381	0.000725155	0.000553767	0.00346241	0.00139482	0.00175819
0.00606584	0.00155193	0.000701625	0.000725904	0.000548357	0.00343122	0.0013535	0.00159607
0.00721835	0.00141362	0.000706928	0.000715548	0.000549957	0.00329333	0.00133106	0.00147169
0.00744833	0.00127526	0.000713177	0.000720382	0.000553934	0.00325677	0.00128464	0.00139708
0.00675001	0.00126794	0.000730028	0.000703713	0.000538924	0.00320411	0.00121517	0.00135958
0.00630245	0.00127089	0.000737181	0.000691734	0.00053645	0.00315784	0.00113619	0.00133674
0.00638587	0.00129951	0.000741486	0.000675174	0.0005391	0.00312789	0.00110161	0.0012668
0.00748875	0.00133928	0.000750272	0.00065152	0.000535758	0.00297874	0.00109046	0.00126812
0.00699716	0.00130315	0.000745326	0.000614136	0.000544473	0.00293825	0.00102202	0.0012573
0.00666232	0.00141887	0.000725621	0.000614841	0.000554939	0.00296921	0.00100218	0.00126945
0.00654532	0.00142278	0.000730244	0.00061817	0.000540336	0.00309644	0.00100006	0.00126894
0.00656453	0.00135746	0.000722261	0.000618335	0.000540333	0.00274223	0.000999144	0.00124552
0.00644305	0.00134227	0.000709922	0.000614966	0.00053612	0.00246109	0.00088433	0.00122761
0.0062648	0.00142415	0.000700621	0.000577624	0.000545399	0.00254862	0.000701789	0.00121373
0.00630726	0.00141668	0.000687749	0.00056755	0.000545089	0.00231737	0.000690081	0.00117684
0.00649173	0.00137452	0.000680364	0.000546689	0.000551919	0.00224211	0.000624018	0.001065
0.00741233	0.00139515	0.000671842	0.000558833	0.000568354	0.00237412	0.000575721	0.00104588
0.00727739	0.0013971	0.000673519	0.000553219	0.00057656	0.00232063	0.000564018	0.00106384
0.00661939	0.00138389	0.000691174	0.000556779	0.000571762	0.00217869	0.000565925	0.00110321
0.00545149	0.00139729	0.000672253	0.000561058	0.000579982	0.00210005	0.0005623	0.0011073
0.00520468	0.00155653	0.000668362	0.000560561	0.000601479	0.00204808	0.000541423	0.00108036
0.00513564	0.00164822	0.000661701	0.00056401	0.000594273	0.00208136	0.000544843	0.00103315
0.00491388	0.00161495	0.000665623	0.000563507	0.000600629	0.00192595	0.000534622	0.00102134
0.00372688	0.00162181	0.000663407	0.00056022	0.000597514	0.00181644	0.000521449	0.00100825
0.00373212	0.00157693	0.00067478	0.000557523	0.00061187	0.00177477	0.000529297	0.00100128
0.00386987	0.00166778	0.000686701	0.000567837	0.000599948	0.00162288	0.00053427	0.000989795
0.00410864	0.00170258	0.00069056	0.000561851	0.00061027	0.00151608	0.000528871	0.000971746
0.00415585	0.00186853	0.000697374	0.000571748	0.00061148	0.00147011	0.000518092	0.000957452
0.00418077	0.00202354	0.000693064	0.000570927	0.000640538	0.00148191	0.000528003	0.000969015
0.00411703	0.00221595	0.000704171	0.000574258	0.000664802	0.0014389	0.000519614	0.000991344
0.00455159	0.00221362	0.000701031	0.000579373	0.000686491	0.00131363	0.000518677	0.000959266
0.00518564	0.00235138	0.000706938	0.000591381	0.000695481	0.00115501	0.000505709	0.000953553
0.00451182	0.00251997	0.00070317	0.000588753	0.000690404	0.000981553	0.000502368	0.000977493
0.00365291	0.00257562	0.000707033	0.000604975	0.000704412	0.000937333	0.000516348	0.000991176
0.00353698	0.00279551	0.000701861	0.000611879	0.000694924	0.000953401	0.000512233	0.0010176
0.00340977	0.00281883	0.000687735	0.000608455	0.00069992	0.000927498	0.000521196	0.00107003
0.00337568	0.0030478	0.000673362	0.000607838	0.000714511	0.000926902	0.000533314	0.00131954
0.0033588	0.00305175	0.00068306	0.000600368	0.000716224	0.000899615	0.000522832	0.00154704
0.00337518	0.0030994	0.000684259	0.000583243	0.00071747	0.000925579	0.000534576	0.00155013
0.00379485	0.00334966	0.00067663	0.000610226	0.000712489	0.000943236	0.000550024	0.00156542
0.00345681	0.0035734	0.000662344	0.000625068	0.000701122	0.000890433	0.000558288	0.00163296
0.0031426	0.00364003	0.000655816	0.000625036	0.000702411	0.000905317	0.000551582	0.00168621
0.00311655	0.00363893	0.000638149	0.00062315	0.00069127	0.000888732	0.000556814	0.00177111
0.00293879	0.00357601	0.000635614	0.000615751	0.000722325	0.000895283	0.000574254	0.00191452
0.00296663	0.00347736	0.00065936	0.000612127	0.000727094	0.000889565	0.000569482	0.00198817
0.00294541	0.00346217	0.000654112	0.00060169	0.000707463	0.00087412	0.000558656	0.00209886
0.00258382	0.00370142	0.000661694	0.000604917	0.000705562	0.00087291	0.000577126	0.00219712
0.0017459	0.00373641	0.000654343	0.000590195	0.00071092	0.000889283	0.000564193	0.00232117
0.00152926	0.0035903	0.000665207	0.00059711	0.000734576	0.000844438	0.000576551	0.00230589
0.00149638	0.0035817	0.000671319	0.000576625	0.000757317	0.000828886	0.000564522	0.0023215
0.001473	0.00349447	0.000671632	0.000577942	0.000762645	0.000800086	0.000562386	0.0023335
0.00145126	0.0032665	0.000687614	0.00056873	0.000756181	0.000783344	0.000566729	0.00227138
0.00141336	0.00298933	0.000695511	0.000564302	0.000724992	0.000782546	0.000564318	0.00209088
0.00142144	0.00284445	0.000711284	0.000566598	0.000724152	0.000775538	0.000579145	0.00190339
0.00141549	0.00294901	0.000695448	0.000579647	0.000722186	0.000751364	0.000581456	0.00191244
0.00123181	0.00283977	0.000693232	0.000580151	0.00074411	0.000676292	0.000565603	0.00190152
0.000882533	0.00275304	0.000697374	0.000585523	0.000746004	0.000672401	0.000572725	0.00190383
0.000866617	0.00272445	0.000707461	0.000578062	0.000719347	0.000681023	0.000568717	0.0019842
0.000817673	0.00269577	0.000714715	0.000576009	0.000727644	0.000713789	0.000564805	0.00193183
0.000737729	0.0026115	0.000722967	0.000575705	0.000722426	0.000901827	0.000554399	0.00186507
0.000654582	0.00261235	0.000699614	0.000565833	0.000703392	0.000989773	0.000561917	0.00174294
0.000621818	0.00253754	0.000696801	0.000566805	0.000710391	0.000978832	0.000573141	0.0016908
0.00059708	0.00226543	0.000691331	0.000575351	0.000720214	0.000976659	0.000588789	0.00157736
0.00057614	0.00219158	0.000698983	0.000589707	0.000748924	0.000952043	0.000584688	0.00143737
0.000568105	0.00210943	0.000692426	0.000583144	0.000739655	0.000950787	0.000595238	0.00135077
0.000553077	0.0019231	0.000668799	0.000575712	0.000679886	0.000951658	0.000584983	0.00134086
0.00055338	0.00192187	0.000662645	0.000580473	0.000681312	0.000944411	0.000591515	0.00136725
0.00061008	0.00110136	0.000569426	0.000794378	0.000907471	0.0003697	0.000745751	0.000914255
0.000632437	0.00119084	0.000605773	0.000747146	0.000945913	0.000407609	0.000724285	0.00100351
0.000647591	0.0014589	0.000662181	0.000710191	0.000901616	0.000487697	0.000698053	0.00103554
0.000900795	0.00154741	0.000711926	0.000663173	0.000856597	0.000551624	0.000728466	0.0011063
0.0012616	0.00150899	0.000740655	0.000610547	0.000821238	0.000599765	0.000867481	0.00135924
0.00160529	0.0016435	0.000694037	0.00056212	0.000765548	0.000577635	0.00141682	0.00158653
0.00280931	0.00193205	0.000692116	0.00056399	0.00077305	0.000588058	0.0021759	0.00189362
0.00407052	0.00210624	0.000680036	0.000588075	0.000623108	0.000671633	0.00263073	0.00260052
0.00465603	0.00241477	0.000706968	0.000620138	0.000577864	0.000937326	0.00334768	0.00291741
0.00506242	0.00214901	0.000687649	0.00064306	0.000579839	0.00102922	0.00522993	0.00410915
0.00556023	0.00203449	0.000670026	0.000715123	0.000582882	0.00149347	0.00694227	0.00544022
0.00620836	0.00208854	0.000655037	0.00074304	0.000601072	0.00186218	0.00801711	0.00621463
0.00627496	0.00202498	0.000690047	0.000772621	0.0006143	0.00234375	0.00894558	0.00673118
0.00592909	0.00210111	0.000706135	0.000777371	0.000611436	0.00264854	0.0096768	0.00763511
0.00746272	0.00192257	0.000715756	0.000840438	0.000591703	0.00342581	0.0120391	0.00862526
0.00785483	0.00171443	0.000719161	0.000840893	0.00058736	0.00411293	0.0119526	0.00878419
0.00935881	0.00173476	0.000897248	0.000871358	0.000621592	0.00434773	0.00985445	0.00751582
0.00861956	0.00182578	0.00109566	0.000847244	0.000662232	0.00440972	0.00842077	0.00632597
0.00918544	0.00179492	0.00116399	0.000851432	0.000630693	0.00485095	0.00723722	0.00558957
0.00923318	0.00184162	0.00117243	0.000878654	0.000634349	0.00492508	0.00633019	0.00473338
0.00969955	0.00163976	0.00118529	0.000817453	0.000645907	0.00500308	0.00534758	0.00414678
0.00829258	0.00178058	0.00115549	0.000748766	0.000628875	0.00515921	0.00253962	0.00253061
0.00773561	0.00159534	0.0011195	0.000735973	0.000606701	0.00470581	0.00206952	0.00215491
0.00731296	0.001592	0.000911558	0.000675039	0.000572146	0.00479214	0.0018985	0.0020604
0.00848487	0.00150144	0.000752068	0.000669599	0.00053677	0.00474883	0.00182622	0.0020332
0.00788124	0.00155474	0.00068469	0.000662363	0.000538013	0.00462154	0.00177216	0.00175092
0.00796579	0.00159293	0.000673661	0.000641502	0.000514082	0.00425504	0.00138706	0.00191565
0.00639719	0.00129313	0.000663172	0.000689461	0.000502708	0.00389	0.00112156	0.00159153
0.00599092	0.00148233	0.000672464	0.000673253	0.000523338	0.00304655	0.0010473	0.00148143
0.00704941	0.00156401	0.000719582	0.000652372	0.000524889	0.00364424	0.000999095	0.00154717
0.00686872	0.00188556	0.000725034	0.000633185	0.000521677	0.00358049	0.000978323	0.00166544
0.00640182	0.00208022	0.000711012	0.000636264	0.000539144	0.00370421	0.0010157	0.0020115
0.00686654	0.00205831	0.000694308	0.000637184	0.00056339	0.0033655	0.000961433	0.00200354
0.00636683	0.0018884	0.000682468	0.00061173	0.000593261	0.00344953	0.000713613	0.00174845
0.0067319	0.00207273	0.000701797	0.000604471	0.000595312	0.00341774	0.000659246	0.00163496
0.00733266	0.00194081	0.000688137	0.000608678	0.000590668	0.00337714	0.000678757	0.0016634
0.00610799	0.00180266	0.00065785	0.000647909	0.000611125	0.00287081	0.000702416	0.00157353
0.00714008	0.00162081	0.000640661	0.000642216	0.000586215	0.00248319	0.000723685	0.00141076
0.00715347	0.00145367	0.00066431	0.000636447	0.000573263	0.00237989	0.000662203	0.00115872
0.00576963	0.00147887	0.000652388	0.000607444	0.000524709	0.00211768	0.000588463	0.0012202
0.00592618	0.0017902	0.00065451	0.000620642	0.000520354	0.00222488	0.000570999	0.00122444
0.00685761	0.00170257	0.000653809	0.000571416	0.000505101	0.00243098	0.000559977	0.00136197
0.00690508	0.00160336	0.000637917	0.000555792	0.000537433	0.00229046	0.00054403	0.00148278
0.00664422	0.00183411	0.000639039	0.000522212	0.000540986	0.00225453	0.000556101	0.0016272
0.00515167	0.0018952	0.000643951	0.000489408	0.000571811	0.00246319	0.000539056	0.00166068
0.00509406	0.00213603	0.000670643	0.000486261	0.000595898	0.00250608	0.000526037	0.00169227
0.0056592	0.00215563	0.000718833	0.000483289	0.000621153	0.00257334	0.000533745	0.00165981
0.00563407	0.00196669	0.0007145	0.000483844	0.000643667	0.00217903	0.00053388	0.00158301
0.00504665	0.00206437	0.000719687	0.000492058	0.000643881	0.00170976	0.000544807	0.00149498
0.0045166	0.00224441	0.000720402	0.000511005	0.000627039	0.00167283	0.000550639	0.00132565
0.00462941	0.00205009	0.000741655	0.000517748	0.000618522	0.0015672	0.00052193	0.0011961
0.00476983	0.00198709	0.00073736	0.000548217	0.000657953	0.00149356	0.0005331	0.00122829
0.00582752	0.00201132	0.000699303	0.000540539	0.000689648	0.00115949	0.000555007	0.00119294
0.00498747	0.00200164	0.000676763	0.000555181	0.000682086	0.00109024	0.00054863	0.00115493
0.00467842	0.00239475	0.000660868	0.000547564	0.000672003	0.00110595	0.000548218	0.00115107
0.00353762	0.00257452	0.000647288	0.000567019	0.00071627	0.00120511	0.000560878	0.00120354
0.00422811	0.00267574	0.000669029	0.0005667	0.000767975	0.00120026	0.000546107	0.00128867
0.00405896	0.00298315	0.000678654	0.000591817	0.000844054	0.0011892	0.000551997	0.00187247
0.00329981	0.00346316	0.000689056	0.000582958	0.000804786	0.0009064	0.000567558	0.00181529
0.00206705	0.00372754	0.000718245	0.000600879	0.000838376	0.000953229	0.00055085	0.00183149
0.00208903	0.00383599	0.000730517	0.000574228	0.00095003	0.00100298	0.000544385	0.00184921
0.00202479	0.00362597	0.000746286	0.000581964	0.000962532	0.000972084	0.00055765	0.00190027
0.00173637	0.003621	0.000762985	0.00057093	0.000949308	0.000827043	0.000564209	0.0019164
0.000818321	0.00365781	0.000749365	0.000564792	0.000987438	0.000790022	0.000571435	0.00191961
0.000752001	0.00347069	0.000725806	0.000513298	0.00100611	0.000737669	0.000590447	0.0013657
0.000737446	0.00284484	0.000726827	0.000494711	0.000991561	0.000721358	0.000595593	0.0014022
0.000681282	0.00273418	0.000689111	0.000529698	0.000986856	0.000628188	0.000603487	0.00138592
0.000632449	0.00249	0.00066502	0.00059027	0.000863862	0.000627595	0.000640812	0.00134287
0.000607862	0.00231492	0.000653364	0.000604194	0.000881695	0.000819272	0.000604541	0.00139797
0.000615649	0.00185816	0.000658553	0.000668616	0.000826008	0.000855092	0.000623628	0.00131777
0.000577128	0.00154496	0.000677317	0.000687895	0.000711072	0.00085893	0.000665239	0.00200877
0.000563799	0.00134197	0.000652064	0.000719135	0.000670266	0.00084674	0.000661996	0.00230128
0.00054111	0.00128889	0.000632433	0.000759776	0.000633125	0.000822889	0.000707963	0.00277267
0.000559868	0.000897824	0.000649049	0.000737647	0.000585044	0.000798701	0.000725083	0.0030784
0.000548878	0.000876668	0.000670734	0.000717052	0.000600904	0.000726308	0.000755533	0.00359378
0.000570441	0.000757078	0.000675889	0.000711578	0.000563881	0.000579534	0.000756114	0.00365303
0.000563562	0.000752461	0.000687032	0.000649922	0.000568248	0.000750755	0.000826933	0.00455409
0.000580638	0.000670164	0.000669734	0.000648568	0.000567109	0.000757542	0.000792126	0.00412352
0.000578634	0.000691195	0.000702514	0.000685965	0.000568173	0.000751265	0.00081402	0.00408369
0.000561238	0.000719031	0.000728981	0.000679718	0.000591374	0.000771137	0.000759742	0.00355213
0.00055866	0.000713566	0.000731811	0.00068042	0.000588088	0.000788851	0.000742644	0.00323715
0.000572235	0.000778633	0.000713998	0.000690605	0.000588635	0.000798388	0.000736111	0.00292074
0.00057085	0.000858599	0.000709938	0.000659833	0.00059633	0.000772225	0.000758737	0.00305787
0.000567816	0.000918764	0.000695449	0.000668046	0.00062814	0.000606877	0.000696522	0.00254182
0.000546907	0.00091736	0.000677451	0.000636488	0.000611884	0.000580288	0.000686912	0.00217773
0.000538749	0.000871299	0.00066525	0.000602478	0.000627982	0.000569242	0.00071828	0.00238577
0.00052499	0.00086513	0.000664896	0.000607233	0.000625704	0.00055529	0.000778261	0.00274483
0.000524568	0.00111583	0.000641918	0.000585426	0.000644747	0.000530466	0.000759296	0.00281124
0.000536704	0.00116386	0.000673053	0.000576464	0.000633843	0.000515237	0.000738581	0.00271341
0.000528707	0.00145304	0.000651317	0.000582063	0.000628355	0.000526258	0.000740633	0.00246327
0.000537566	0.00148053	0.000662231	0.000610386	0.00068807	0.000532578	0.000732841	0.00199622
0.000557706	0.00160149	0.000669606	0.000638375	0.000745099	0.00052671	0.000731725	0.00195185
0.000566207	0.00188408	0.000686007	0.00062456	0.000810682	0.000559945	0.000687743	0.00156979
0.000582647	0.00191943	0.00065978	0.000636735	0.000800181	0.000605685	0.000634547	0.00127418
0.000604418	0.00184741	0.000690065	0.000632011	0.000921938	0.000637413	0.000620145	0.00120871
0.000604366	0.00178365	0.000689933	0.000618442	0.000958349	0.000644404	0.000610398	0.0011249
0.000672656	0.00141314	0.000710078	0.000634809	0.000950176	0.000625574	0.000618985	0.00109265
0.000685858	0.00134026	0.000703997	0.000577858	0.000873807	0.000636749	0.000630275	0.00110715
0.000677714	0.00121867	0.000698803	0.000563927	0.000837034	0.000633061	0.000616225	0.00118949
0.000672664	0.000979123	0.000681941	0.000554958	0.000782723	0.000629914	0.000617242	0.00123629
0.00994188	0.00152409	0.000667537	0.000874827	0.00056021	0.00241065	0.00675675	0.00443696
0.00940729	0.00156985	0.000684175	0.000892748	0.000569453	0.00251268	0.00734646	0.00457814
0.00904748	0.00167802	0.000678484	0.000919504	0.000563568	0.00259667	0.00783066	0.0044539
0.00846805	0.00165261	0.00068685	0.000953342	0.000557517	0.00280158	0.00771481	0.00422439
0.00798725	0.00160281	0.000675885	0.000954051	0.000536472	0.00313379	0.00732488	0.00437731
0.00772855	0.0016053	0.000657568	0.000905929	0.000525712	0.00324962	0.00746097	0.00478138
0.00850774	0.00168838	0.00064237	0.000875218	0.000506921	0.00337507	0.00727991	0.00479383
0.00820505	0.00167354	0.000634148	0.000865856	0.000495372	0.00362298	0.00711364	0.00453781
0.00799522	0.0015558	0.000635102	0.000845031	0.000501759	0.00369126	0.00674912	0.00446028
0.00805854	0.00151815	0.000653209	0.000836905	0.000494739	0.00393816	0.00655244	0.00432916
0.0085164	0.00134735	0.000648664	0.000817682	0.000497509	0.00396598	0.00649134	0.00437004
0.00840777	0.00132827	0.000630161	0.000792199	0.000490737	0.00396992	0.00644203	0.00419626
0.0089664	0.00133759	0.000616862	0.000744982	0.000476024	0.00412703	0.00627137	0.00417887
0.00815563	0.00146373	0.000639398	0.000715323	0.000479206	0.00428043	0.00561547	0.00397668
0.00817934	0.00149088	0.000637753	0.000688083	0.00049468	0.00419318	0.005238	0.00390024
0.00764421	0.00156321	0.00064168	0.000669338	0.00049785	0.00419166	0.00469704	0.00367777
0.00717391	0.00157728	0.000617707	0.000669082	0.0004977	0.00408713	0.00428377	0.00345005
0.00721747	0.00156053	0.000627161	0.000708251	0.000491834	0.00395225	0.00424768	0.00338063
0.00845221	0.00155133	0.000618244	0.000693979	0.00050485	0.00409031	0.00354771	0.00301318
0.00888134	0.00148254	0.000620573	0.000648946	0.000508123	0.00432175	0.00315118	0.00291246
0.00903386	0.00149409	0.000631261	0.000607337	0.000509613	0.00419984	0.00296212	0.00287341
0.00917286	0.0014531	0.000622492	0.000606527	0.000510549	0.00411635	0.00264046	0.00271656
0.00905099	0.00142569	0.000646367	0.00060254	0.000519558	0.00401257	0.00137386	0.00184393
0.0081318	0.00136768	0.000663688	0.000618798	0.000526058	0.00384531	0.00119782	0.00180492
0.00735321	0.00137484	0.000648143	0.000627461	0.000523765	0.00340791	0.0010895	0.00184069
0.00716633	0.00145557	0.000656548	0.000636458	0.000508634	0.00315147	0.00104279	0.00182911
0.00694304	0.00155289	0.000662933	0.000609847	0.000494169	0.00286988	0.00102128	0.00185624
0.0071151	0.00156174	0.000666205	0.000612354	0.000487142	0.00290304	0.000986043	0.00187281
0.00722295	0.00156974	0.000690553	0.000611537	0.000495492	0.00285042	0.000965357	0.00188577
0.00688658	0.00165025	0.000694486	0.000614253	0.000516721	0.00264223	0.000957019	0.00184601
0.00686133	0.00155734	0.000678308	0.000605554	0.000504532	0.00285326	0.000954306	0.00196262
0.0064448	0.00153156	0.000683919	0.000590723	0.000495545	0.0030742	0.000944107	0.00212304
0.0059831	0.00144371	0.000698127	0.000585262	0.000498947	0.00303503	0.000920906	0.0021775
0.00600652	0.00152541	0.000707072	0.000550759	0.000510358	0.00299642	0.000827577	0.00207275
0.00590386	0.00165422	0.000703372	0.00054553	0.000507916	0.00289812	0.000668277	0.00205032
0.00516599	0.00177341	0.000722623	0.00054837	0.000500357	0.00271073	0.000594456	0.00197223
0.00480374	0.00184343	0.000733144	0.000551574	0.000509403	0.0024972	0.000559012	0.00198092
0.00590062	0.00183343	0.000729888	0.000548074	0.000535133	0.00256417	0.000566901	0.00194943
0.00647555	0.00183128	0.000730089	0.000548851	0.000541499	0.00235486	0.000549483	0.00194153
0.00641455	0.00191507	0.000717565	0.000536601	0.000549625	0.00230942	0.000536118	0.00189223
0.00643624	0.00199997	0.000711966	0.000529372	0.000554217	0.00255342	0.000535144	0.00174833
0.0064639	0.00198363	0.000732692	0.000520581	0.000553822	0.00264968	0.000532219	0.00155077
0.00655762	0.00197351	0.000715513	0.000507224	0.000560784	0.00264597	0.00053121	0.00144838
0.0068307	0.00189092	0.000726218	0.000503202	0.000579421	0.00252942	0.000551841	0.00141523
0.0062551	0.00203184	0.000734855	0.000494607	0.000605036	0.0024588	0.000567615	0.00142443
0.0055112	0.00197789	0.000732271	0.000499119	0.000587128	0.0023707	0.000579604	0.00147939
0.00517819	0.0019527	0.000724216	0.000494376	0.000588197	0.00213821	0.000568165	0.00148492
0.00537407	0.00200311	0.000741313	0.000497608	0.000601571	0.00182205	0.000579238	0.00161816
0.00613732	0.0022048	0.000737946	0.000494899	0.00061329	0.00152999	0.000578839	0.00166814
0.00604405	0.00259776	0.000731046	0.000497264	0.000614042	0.00160167	0.000586848	0.00164168
0.00596263	0.00262844	0.000742666	0.000494839	0.000603905	0.00160728	0.000575928	0.00164896
0.00624809	0.00271339	0.000726017	0.000508121	0.000624677	0.00165291	0.000572435	0.00164002
0.00607896	0.00254874	0.000716237	0.000499247	0.000672171	0.00159022	0.000571111	0.00161816
0.00612787	0.00251342	0.000706371	0.000512269	0.000649177	0.00147972	0.000575737	0.00165028
0.00465911	0.00257201	0.000712923	0.000524809	0.000629644	0.0013227	0.000560129	0.00161925
0.00436472	0.00267623	0.000736845	0.000522429	0.000666399	0.0013062	0.000563116	0.00161151
0.00434309	0.00271224	0.000747967	0.000541073	0.00066021	0.00123392	0.000549502	0.00160307
0.00433923	0.00288551	0.000740009	0.000540515	0.000662049	0.000969952	0.000547285	0.00162422
0.00430386	0.00288233	0.000730509	0.000553705	0.000674423	0.000886123	0.000551989	0.00167038
0.00425341	0.0031111	0.000749648	0.000557157	0.000695778	0.000891355	0.000558767	0.00166019
0.00380241	0.00324555	0.000742337	0.000572507	0.000711564	0.00090439	0.000546962	0.00169256
0.00380652	0.00324323	0.000747843	0.00059191	0.000703861	0.000954538	0.000557376	0.00165163
0.00423769	0.00342165	0.000742474	0.000594402	0.000704678	0.00101434	0.000565959	0.0016325
0.00411393	0.00347497	0.000742656	0.000583941	0.000740244	0.00102618	0.000575438	0.00156715
0.00351072	0.00359663	0.000737095	0.000583913	0.000763311	0.000963036	0.000564802	0.0012937
0.0027672	0.00345747	0.000725579	0.000569211	0.000762692	0.00103259	0.000580328	0.00110987
0.00268217	0.003139	0.000707878	0.000556609	0.000750823	0.000969442	0.000577376	0.00108626
0.00263252	0.0031458	0.000687374	0.000555412	0.000809459	0.000956039	0.000585847	0.00107768
0.0021571	0.00316415	0.000707603	0.000566344	0.000829155	0.00100049	0.000602257	0.00106472
0.0020163	0.00341894	0.000699295	0.000555055	0.000886805	0.0010429	0.000605015	0.00105399
0.00183345	0.00377008	0.000699934	0.00054315	0.000896582	0.0010398	0.000599594	0.0010258
0.00179635	0.00399246	0.000699803	0.000531815	0.000959057	0.00103851	0.000615532	0.00101039
0.0015946	0.00390688	0.000677663	0.000539368	0.000942195	0.00102117	0.000620073	0.00102408
0.00157599	0.00391757	0.000678935	0.00052752	0.000963707	0.00102645	0.000629622	0.00102837
0.00154535	0.00407476	0.000681223	0.000526133	0.000970687	0.00102685	0.000627187	0.00101678
0.00153944	0.00419456	0.000679392	0.000514658	0.000979995	0.00101336	0.000644439	0.00100698
0.00146229	0.00391519	0.000658588	0.00052724	0.000967973	0.00100149	0.000633196	0.0010227
0.00146761	0.00398479	0.000657731	0.000514075	0.000983885	0.00100459	0.000636268	0.00103367
0.00123406	0.00403331	0.000655252	0.000496624	0.00100347	0.00093223	0.000621754	0.0010641
0.000839841	0.00387416	0.00065907	0.000496841	0.000986862	0.000891698	0.000600906	0.00106202
0.000738858	0.00382115	0.000669993	0.000506379	0.000944345	0.0008881	0.000608893	0.00111563
0.000665005	0.00385939	0.000672808	0.000510541	0.000918502	0.000872488	0.000623649	0.00115071
0.000680034	0.00382065	0.000675217	0.000521238	0.00091009	0.000767127	0.000610013	0.00115905
0.000707391	0.00383506	0.000686094	0.00053123	0.000965035	0.000738459	0.00061499	0.00122392
0.000701806	0.00388416	0.000705645	0.000523843	0.00099758	0.000721869	0.000607696	0.00131342
0.000683022	0.00377257	0.00071034	0.000512409	0.000938037	0.000626828	0.00060271	0.00134674
0.000682883	0.00343835	0.000720335	0.000517753	0.000893613	0.000617142	0.000594452	0.00137539
0.000675744	0.00306051	0.000720528	0.000515211	0.000892791	0.000647164	0.000579055	0.0013686
0.000671521	0.00274752	0.000729049	0.000521881	0.000820982	0.00066357	0.000582542	0.00138954
0.00065516	0.00268693	0.000731614	0.000531566	0.000825912	0.000833742	0.000603498	0.00136931
0.000632552	0.00254766	0.000718387	0.000551856	0.000814073	0.000932813	0.000615648	0.00135426
0.00064186	0.00212156	0.000717982	0.000558084	0.000809282	0.000966866	0.000607781	0.00135707
0.000621348	0.00197764	0.000716078	0.000555109	0.000790695	0.00104453	0.00060774	0.00133532
0.000626331	0.00208614	0.00072143	0.000542406	0.000791377	0.00106066	0.000614398	0.00131748
0.000611911	0.00184374	0.000724093	0.000561857	0.000761352	0.00106497	0.00060926	0.00131115
0.00060791	0.00167008	0.00070398	0.000571834	0.000756478	0.001052	0.000611268	0.00133085
0.00059894	0.00166355	0.00069614	0.000584105	0.000756663	0.00104589	0.000633843	0.001415
0.00058504	0.00157151	0.000688407	0.000586916	0.000761401	0.00104425	0.000661228	0.0014819
0.000581715	0.00130969	0.000693032	0.000597845	0.000779757	0.00106437	0.000654796	0.00149814
0.000562849	0.0012807	0.000700082	0.000620453	0.000782963	0.00106053	0.000695093	0.00153391
0.00061008	0.00110136	0.000569426	0.000794378	0.000907471	0.0003697	0.000745751	0.000914255
0.000630624	0.00116227	0.000593494	0.000750914	0.000946979	0.000403575	0.000730009	0.000985991
0.00064542	0.00133988	0.000654786	0.000708281	0.000905434	0.000479244	0.00069437	0.0010236
0.000784809	0.00156832	0.000703252	0.00067934	0.000867561	0.000531521	0.000727975	0.001094
0.00109801	0.00151136	0.000738088	0.000627963	0.000827023	0.000596165	0.000791941	0.00116866
0.00149862	0.00157565	0.000712614	0.000585345	0.000798606	0.000594	0.00118301	0.00150365
0.00201239	0.00174302	0.000700895	0.000557157	0.000760326	0.000566897	0.00186341	0.00181741
0.00315276	0.0020073	0.000681332	0.000597037	0.000671889	0.000634638	0.00228387	0.00223988
0.00415708	0.00214058	0.000689626	0.000595905	0.00059367	0.000696346	0.00288463	0.00285456
0.00483273	0.00244009	0.000698967	0.000622391	0.00058984	0.00093953	0.00367305	0.00304884
0.00506562	0.00207393	0.000680807	0.000666507	0.000582463	0.00106386	0.00573389	0.00432313
0.00555965	0.00203468	0.000669772	0.00071472	0.000582883	0.00149495	0.00694639	0.00544754
0.00624166	0.00208964	0.000655045	0.000736721	0.000605729	0.00182927	0.00787824	0.00622438
0.00624601	0.00202088	0.00069396	0.00076302	0.000617153	0.00230086	0.00876679	0.00649026
0.00608468	0.00212686	0.000697176	0.00077327	0.000625086	0.00261257	0.00925372	0.00727026
0.00600723	0.00194595	0.000710929	0.000820322	0.000584433	0.00280133	0.0111109	0.00793523
0.00780049	0.00192346	0.000711949	0.000831595	0.000591669	0.00403962	0.0122722	0.00874123
0.00923112	0.00171262	0.000713989	0.000846299	0.000602405	0.00436837	0.0113437	0.00829066
0.00903355	0.00174743	0.000989851	0.000860322	0.00063996	0.00420823	0.00931084	0.00675125
0.00850133	0.00181928	0.00112013	0.000858384	0.000648829	0.0045895	0.00809476	0.0057475
0.00937895	0.00182907	0.00118094	0.000849597	0.000630719	0.0048914	0.00697813	0.00549791
0.00943402	0.00180923	0.00117076	0.000881314	0.000635434	0.00495185	0.00621456	0.00463668
0.00970777	0.00164436	0.00118365	0.000815706	0.00064616	0.00500234	0.00533684	0.00414731
0.0082847	0.0017983	0.00116116	0.000744413	0.000637297	0.00540765	0.00273742	0.00262795
0.00862781	0.0016066	0.00113309	0.000737711	0.000600999	0.00475934	0.00213423	0.00218282
0.0072727	0.00162347	0.00101872	0.000685109	0.000582714	0.00477731	0.00197264	0.00209082
0.00843974	0.00157444	0.000796091	0.000665323	0.000547535	0.00490853	0.00182895	0.00201719
0.00810959	0.0014675	0.000704488	0.000657546	0.000534199	0.00476109	0.00171759	0.00191357
0.00789664	0.00164185	0.000663798	0.000643081	0.000521706	0.00447861	0.0015387	0.00182951
0.00736599	0.00158927	0.000684951	0.000674151	0.000512389	0.00410343	0.00122921	0.00180625
0.00631891	0.0012537	0.000659659	0.000678142	0.000516009	0.00359593	0.00111909	0.00153577
0.00641742	0.00150415	0.000694241	0.000675553	0.000528653	0.00334904	0.00103122	0.00149511
0.00699692	0.00155148	0.000712967	0.000649145	0.000521786	0.00362872	0.000990638	0.00155321
0.00686176	0.00188947	0.000725246	0.000632815	0.000521718	0.00359694	0.000978112	0.00167086
0.0064067	0.00205017	0.000713378	0.000637563	0.000539517	0.00374001	0.000996166	0.00201677
0.00693119	0.00214584	0.000699943	0.000640072	0.000549333	0.00338488	0.00102941	0.00203806
0.00653734	0.00190312	0.000686635	0.000627904	0.000599341	0.00344381	0.000750449	0.00185604
0.00659736	0.00200898	0.000690475	0.000589696	0.000589655	0.00344401	0.000676742	0.00168023
0.0077456	0.00201297	0.000694663	0.000595342	0.000587628	0.00362576	0.000686826	0.0016495
0.00647233	0.00192789	0.00066393	0.000636175	0.000604194	0.00277846	0.000711427	0.00159774
0.006506	0.00158807	0.000656763	0.000647331	0.000604753	0.00277074	0.000701586	0.0015824
0.00740751	0.00157107	0.000641606	0.000639347	0.000587621	0.0022923	0.000726964	0.00127172
0.00693528	0.00145436	0.000669788	0.000622877	0.000571208	0.00237969	0.000651356	0.00117101
0.00579553	0.00148878	0.000656454	0.000611764	0.000528366	0.00207942	0.000585797	0.00121991
0.00594875	0.00178727	0.000654417	0.000620273	0.000519808	0.00223111	0.000570575	0.00122478
0.00692285	0.00170523	0.00065064	0.000576722	0.000507197	0.00247605	0.000567091	0.00136156
0.00687719	0.00157421	0.000649011	0.000560669	0.000538098	0.00227032	0.000550146	0.00148179
0.00661419	0.00175621	0.000635705	0.000535804	0.000540499	0.00230438	0.000547886	0.00162021
0.00547841	0.00181932	0.000643506	0.000497419	0.000553496	0.00227732	0.000538474	0.00164421
0.00514657	0.00205797	0.000654235	0.000488517	0.0005728	0.00249135	0.000529459	0.00168786
0.00506022	0.0020671	0.000684061	0.000490201	0.000619385	0.00259295	0.000542319	0.00169869
0.00588365	0.00214906	0.000732442	0.000495928	0.000634513	0.00235713	0.000533981	0.00163427
0.00560865	0.00199355	0.000730838	0.000484428	0.000641074	0.00191836	0.000546287	0.00157331
0.00528018	0.002116	0.000720642	0.000499105	0.000646885	0.00170927	0.000549088	0.00140178
0.00450585	0.00222677	0.000725219	0.000510816	0.000630561	0.00164518	0.000550854	0.00126805
0.00462411	0.00204449	0.00074191	0.000519302	0.00061947	0.00156882	0.00052014	0.00119531
0.00482002	0.00198982	0.000742791	0.000544714	0.000662085	0.00152307	0.000531182	0.00123898
0.00581166	0.00204064	0.000709674	0.000546329	0.000666965	0.00124532	0.000542543	0.00118348
0.00562645	0.00210022	0.000684766	0.000560943	0.000688255	0.00108538	0.000554754	0.00118521
0.0047334	0.00234665	0.000660448	0.000545947	0.000671292	0.00108567	0.000537927	0.00115337
0.00385756	0.00250011	0.000620674	0.000556824	0.000667888	0.00120497	0.000551877	0.00119782
0.00386119	0.00257851	0.000656138	0.000553099	0.000733867	0.0011909	0.000539713	0.00124447
0.00426987	0.00287185	0.000673491	0.000585678	0.000804084	0.00121067	0.000552774	0.00154888
0.00400561	0.00320994	0.000684254	0.000589773	0.000838317	0.00117723	0.000552923	0.00183145
0.00289581	0.00353883	0.000678461	0.000593086	0.000802755	0.00091078	0.000573353	0.00182519
0.00204983	0.00375751	0.000716599	0.000595007	0.00083828	0.000963652	0.000556957	0.00184465
0.0020901	0.00383105	0.000731162	0.000574216	0.000952236	0.00100301	0.000545225	0.00185615
0.00202249	0.00362622	0.000743111	0.000587114	0.000963792	0.000973436	0.000559505	0.00191331
0.00185472	0.00363387	0.000762292	0.000575976	0.000962047	0.000831982	0.000566979	0.00194154
0.000917484	0.00365149	0.000756758	0.000567188	0.000927587	0.000821662	0.000575688	0.00192675
0.000758487	0.00348832	0.000738866	0.000525744	0.000994984	0.000739715	0.000585908	0.00145014
0.000751941	0.00322089	0.000708634	0.000506292	0.00100014	0.00074358	0.000601688	0.00140865
0.000700361	0.00270562	0.000717498	0.000513856	0.000964695	0.000675076	0.000591397	0.00135602
0.000655266	0.00262266	0.000700336	0.000569241	0.000954689	0.000614296	0.000613699	0.00140524
0.000616251	0.00229391	0.000650144	0.000577899	0.000855342	0.000674249	0.0006326	0.00131198
0.000596981	0.00230988	0.000654245	0.000600595	0.000882459	0.000847064	0.000608165	0.00138776
0.000601551	0.0017915	0.000662992	0.000672016	0.000823717	0.000862716	0.000619668	0.00132765
0.000576332	0.0015423	0.000680496	0.000689451	0.000706542	0.000858454	0.000665528	0.00205187
0.000565089	0.0013433	0.000654263	0.000718108	0.000663481	0.0008508	0.000663586	0.00230565
0.000546765	0.00131249	0.000643589	0.000751329	0.000648885	0.000829107	0.000697321	0.00273018
0.000557139	0.00112089	0.000648648	0.000749342	0.000592257	0.000792965	0.000712011	0.00304973
0.000554312	0.000873864	0.000658348	0.000708516	0.000592505	0.000779303	0.000747081	0.00329352
0.000555572	0.000800359	0.000679879	0.000705221	0.000587474	0.000672806	0.000762204	0.0036996
0.000571568	0.000750344	0.000687862	0.000689417	0.000571568	0.000601911	0.000818047	0.00414801
0.000563699	0.000721328	0.000682175	0.000647019	0.000559888	0.000748779	0.000805927	0.00453453
0.000570749	0.000668928	0.000676365	0.000679451	0.000571113	0.000745303	0.000811589	0.00415778
0.000582159	0.000703115	0.000706362	0.000688138	0.000569723	0.000739198	0.000798573	0.00390248
0.000566514	0.000717807	0.000727378	0.000681544	0.000596309	0.000768174	0.000757228	0.00354383
0.000563121	0.000715207	0.000731539	0.000683448	0.000589097	0.000788878	0.000741536	0.00322586
0.000570235	0.000776485	0.000714138	0.000688627	0.000589148	0.000801769	0.00073248	0.00293063
0.000573266	0.000845932	0.000715947	0.000665115	0.000592591	0.000774943	0.000767967	0.00299438
0.000565519	0.000912757	0.000698645	0.000670384	0.000631139	0.000630543	0.000707471	0.00254213
0.000559014	0.000928588	0.000681123	0.000637013	0.000613236	0.00058137	0.000695797	0.00245873
0.000547531	0.000891399	0.000661971	0.000580456	0.00060873	0.000570606	0.000706227	0.0022961
0.000534893	0.000855268	0.000666962	0.000609567	0.00062039	0.000566241	0.000756959	0.00261202
0.000525868	0.000926301	0.000659993	0.000601054	0.000618819	0.000536705	0.000769037	0.00275218
0.000535291	0.00113577	0.000646953	0.000591376	0.000638623	0.000517111	0.000754085	0.00287172
0.000539122	0.00116134	0.000663821	0.00058228	0.000631203	0.000526268	0.000733977	0.00265827
0.000529555	0.00146088	0.00064755	0.000575025	0.000633353	0.000514897	0.000737065	0.00239619
0.000538748	0.00148967	0.000662627	0.000614752	0.000688441	0.000533871	0.000732315	0.00197266
0.0122142	0.00246696	0.000772088	0.000691816	0.000648759	0.00264411	0.00690716	0.00527614
0.0129369	0.00251268	0.000793065	0.000701408	0.000653176	0.00298282	0.00767399	0.00620393
0.0144809	0.00243923	0.000797077	0.000717553	0.00065952	0.00364949	0.00776068	0.00639674
0.0153975	0.00234655	0.000780362	0.0007333	0.000635661	0.00388166	0.00750091	0.00630572
0.0158884	0.00236691	0.000765999	0.000726041	0.000622125	0.00409961	0.0074105	0.00619664
0.0158445	0.0023565	0.000779657	0.0007112	0.000635748	0.00442338	0.00742358	0.00600999
0.0136409	0.00217514	0.000771335	0.000696845	0.000647142	0.00461109	0.00728786	0.00569562
0.0119546	0.00192514	0.000784816	0.000704232	0.000647476	0.00466601	0.00659325	0.00542621
0.0115239	0.00195046	0.000770524	0.000705165	0.000629705	0.00478886	0.00642249	0.00531486
0.0116257	0.00202868	0.000799341	0.000740238	0.000624989	0.00517586	0.00730629	0.00534145
0.0118828	0.00207055	0.000815993	0.000746214	0.000661335	0.00526606	0.00752895	0.00533057
0.0113984	0.00217877	0.000814415	0.000744027	0.000646173	0.00524441	0.0072058	0.00526786
0.00937123	0.00210158	0.000792833	0.00071009	0.000639163	0.00478849	0.00639726	0.00473749
0.00980751	0.00199468	0.000777334	0.000671615	0.000633872	0.00451809	0.00549768	0.00430788
0.00966801	0.00198552	0.000758383	0.000664975	0.000628059	0.00445887	0.00468561	0.00416899
0.00939485	0.00188995	0.000761325	0.000652066	0.000628137	0.00445439	0.00459484	0.00384087
0.00908752	0.00170595	0.000726004	0.000608462	0.000601093	0.00456751	0.00412539	0.00354148
0.00803807	0.00164781	0.000736138	0.000606549	0.000604781	0.00418648	0.00336466	0.00282551
0.00716396	0.0015336	0.000728367	0.000593481	0.000596763	0.00379169	0.00317729	0.00289829
0.00560601	0.00161384	0.00074006	0.000585592	0.000589556	0.00364894	0.00310716	0.00300255
0.00522829	0.00162522	0.000737868	0.000600638	0.00057695	0.00349788	0.00306913	0.00301943
0.00650729	0.00171504	0.000724059	0.000625988	0.00055703	0.00335801	0.0028269	0.00305776
0.00751457	0.00184729	0.000726715	0.000636984	0.000553046	0.00336255	0.00272573	0.00308851
0.00732621	0.00175936	0.000716386	0.000621568	0.000536841	0.00348598	0.00272396	0.0031027
0.00733006	0.00176464	0.000711851	0.000600879	0.000551345	0.00334689	0.0025993	0.00301521
0.00653152	0.00167164	0.000670534	0.000569025	0.000536518	0.00306691	0.00119506	0.00254043
0.00636019	0.00178923	0.000658819	0.000556796	0.000509332	0.00279667	0.000805933	0.00240737
0.00681625	0.0018491	0.000680657	0.000565375	0.000517944	0.00276408	0.000710966	0.00226506
0.00669364	0.00193864	0.000672711	0.000562882	0.000520103	0.00282288	0.000674764	0.00214344
0.00786587	0.00203087	0.000680498	0.000572996	0.000537462	0.00291197	0.000641793	0.00216886
0.00823923	0.00217983	0.000675118	0.000563919	0.000544951	0.00269044	0.000625236	0.00212016
0.00899425	0.00216514	0.000671142	0.000581775	0.000556949	0.00256917	0.000624523	0.00202057
0.00911029	0.00214648	0.000658821	0.000586611	0.000545676	0.00221285	0.000609811	0.00195831
0.00865832	0.00216534	0.000655447	0.000577849	0.000541159	0.00219128	0.000594119	0.00172274
0.00866341	0.00227098	0.000648403	0.000561229	0.000533484	0.00216607	0.000599429	0.00153801
0.00863793	0.00221614	0.000652834	0.000559169	0.00053838	0.00213426	0.000590963	0.00144485
0.00906566	0.00222295	0.000643188	0.000538523	0.000528656	0.00201575	0.000573138	0.00128949
0.00845268	0.00224043	0.000661656	0.000520612	0.000560722	0.00192864	0.00056421	0.00122458
0.00769613	0.0022558	0.000665977	0.000519089	0.000550066	0.00174296	0.000552331	0.00118073
0.00778541	0.00220073	0.000664246	0.000529526	0.000547134	0.00162492	0.00052297	0.00112318
0.00803561	0.0023433	0.000659486	0.000551939	0.000549388	0.00154021	0.000525092	0.00107718
0.00818631	0.00251202	0.000675209	0.000542001	0.000571521	0.00146481	0.00053748	0.00108328
0.00848252	0.00226654	0.000680018	0.000544948	0.000589111	0.00143662	0.000539076	0.00136839
0.00886063	0.00227182	0.000669562	0.000547226	0.000597647	0.00127205	0.000527327	0.00154098
0.00845805	0.00250726	0.000668616	0.000555003	0.000594422	0.00110489	0.000517668	0.00149934
0.0070206	0.00239744	0.000665578	0.000567073	0.000601625	0.00104983	0.000521729	0.00142628
0.00721642	0.00226037	0.000657605	0.000578615	0.000596271	0.00132961	0.000533459	0.001473
0.00701137	0.00224037	0.000656576	0.000582055	0.000601962	0.0013627	0.000536243	0.00147301
0.00670485	0.00231705	0.000668038	0.000568403	0.000612092	0.001361	0.000551322	0.00147064
0.00744189	0.0023783	0.000662144	0.00056989	0.000620272	0.00129759	0.000541269	0.00146726
0.00769798	0.00253348	0.000675503	0.000585701	0.000622607	0.00126737	0.000536622	0.00144011
0.00778076	0.00265951	0.000682127	0.000585879	0.000641319	0.00125195	0.000536257	0.00142825
0.00694961	0.00257795	0.000729427	0.000611639	0.000651521	0.00125796	0.0005722	0.00148146
0.00657438	0.00255899	0.000803937	0.000619514	0.000669719	0.00129811	0.000604792	0.00154414
0.00655637	0.00269421	0.000884923	0.00062128	0.000691087	0.00140684	0.000616689	0.00156024
0.00717429	0.00282095	0.000895807	0.000604633	0.000691728	0.00147873	0.000613093	0.00157878
0.00732406	0.0026987	0.000941712	0.000587715	0.000691904	0.00148742	0.000606248	0.00158596
0.00730181	0.00279619	0.000981553	0.000600798	0.00066709	0.00149273	0.00061585	0.00149759
0.00635428	0.00286858	0.000998235	0.000582001	0.000653351	0.00152391	0.000623241	0.00127503
0.00598031	0.00276332	0.000986888	0.000597159	0.000666171	0.00150257	0.000625878	0.00111948
0.00562212	0.00271112	0.000998272	0.000587683	0.000677006	0.00146598	0.000615741	0.0011059
0.00546514	0.0028608	0.000997763	0.000583619	0.000665889	0.00141184	0.000604857	0.00109348
0.00416746	0.00289841	0.000995729	0.000583344	0.000690657	0.00111071	0.000604498	0.00110228
0.00466059	0.00298366	0.000993588	0.000570611	0.000693651	0.00106092	0.000645272	0.00115685
0.00548896	0.0029713	0.00100751	0.000574861	0.00072046	0.00105068	0.000653724	0.00115576
0.00562951	0.0029638	0.00103552	0.000567744	0.000712568	0.00100511	0.000663253	0.00115096
0.00582602	0.00280167	0.00103692	0.000565663	0.000729022	0.00101297	0.000647925	0.00118556
0.00581439	0.00270368	0.00100826	0.000558005	0.000737794	0.00102266	0.000642788	0.00119142
0.00558555	0.00274543	0.000913528	0.000534282	0.000726281	0.000932124	0.000613269	0.00117252
0.00555121	0.00291413	0.000864277	0.000539686	0.000726265	0.000893979	0.000613235	0.00114837
0.00545247	0.00298065	0.000800438	0.000528431	0.00075503	0.000754665	0.000598348	0.00114138
0.00442216	0.00296446	0.0007762	0.000544568	0.00074668	0.000697643	0.00061353	0.00115838
0.00424393	0.00306651	0.000767337	0.000553996	0.000826765	0.000669561	0.00061516	0.00114379
0.00450249	0.00303172	0.000704628	0.000566616	0.000845049	0.000674896	0.000608223	0.00116879
0.00463028	0.00290085	0.000697951	0.000559539	0.000837384	0.000640718	0.000603144	0.00117702
0.00464548	0.00281714	0.000707818	0.000536646	0.000827867	0.000662251	0.000608374	0.00118572
0.00466352	0.00270056	0.000692725	0.00054305	0.000838329	0.000647246	0.000644835	0.00121443
0.00462968	0.00282439	0.000701359	0.000544329	0.000820661	0.000627836	0.000641463	0.00122005
0.00454731	0.00281055	0.000711348	0.000529512	0.000816839	0.000644022	0.000632418	0.00115236
0.00361433	0.00270493	0.000709102	0.000536323	0.000806206	0.000638178	0.000601739	0.00109001
0.00260677	0.00271323	0.000700156	0.000531617	0.000789971	0.00063442	0.000590343	0.00111683
0.00178377	0.00259091	0.000690752	0.000519841	0.000780156	0.000631682	0.000606651	0.00122726
0.00148565	0.00257048	0.00071007	0.000522125	0.000825026	0.00061499	0.000603847	0.00123718
0.00139334	0.00243925	0.000715644	0.000533286	0.000782284	0.000605108	0.000605006	0.00124615
0.00140007	0.00233196	0.000719977	0.000527308	0.000775467	0.000595844	0.000611366	0.00126059
0.00138471	0.00203163	0.000709126	0.000538435	0.00077426	0.000602428	0.000605549	0.00125173
0.00135606	0.00191635	0.000711696	0.000529643	0.000743553	0.000601662	0.000588358	0.00129994
0.00134526	0.00173034	0.000728278	0.00054804	0.000734794	0.000609521	0.00059918	0.00129647
0.000887822	0.00162044	0.000716772	0.000553754	0.000671219	0.000618324	0.000605588	0.00140815
0.000668768	0.00148043	0.000721681	0.000542907	0.000647264	0.00060975	0.000602806	0.00143962
0.000598341	0.00141892	0.000727566	0.000557179	0.00067957	0.000632401	0.000611355	0.00145872
0.000570766	0.00140825	0.000736321	0.000566072	0.000675942	0.000620528	0.000625332	0.00154646
0.000546892	0.00126488	0.000734258	0.000543552	0.000653103	0.000635718	0.00061539	0.00153118
0.000538241	0.000992708	0.000743454	0.000576938	0.000648265	0.000726872	0.000631101	0.00167034
0.000539666	0.00100404	0.000741098	0.000619842	0.000650855	0.000736111	0.0006233	0.00170028
0.000552896	0.0010172	0.000725334	0.000636985	0.00063033	0.000753233	0.000620947	0.001746
0.000552857	0.00102511	0.000731514	0.000632063	0.00062299	0.000755212	0.000614531	0.00179496
0.000541157	0.000973085	0.000723135	0.00065033	0.000615724	0.000758693	0.000617964	0.00181347
0.000541679	0.000917439	0.00072187	0.000695136	0.000595245	0.000764133	0.000621485	0.00192555
0.000557971	0.00091118	0.000726456	0.000755	0.00060705	0.000756725	0.000634268	0.00229929
0.00061008	0.00110136	0.000569426	0.000794378	0.000907471	0.0003697	0.000745751	0.000914255
0.000634108	0.00118601	0.000609035	0.0007413	0.000943315	0.000410557	0.000721381	0.0010048
0.000650569	0.00147846	0.000676646	0.000705919	0.00090101	0.000496663	0.000700289	0.00104396
0.000991114	0.00154059	0.000723436	0.000654957	0.000845163	0.000562218	0.000768537	0.00111962
0.00137473	0.00152294	0.000731394	0.000585729	0.00080957	0.000595803	0.00106654	0.0013552
0.00171474	0.00170318	0.000694353	0.000567386	0.000765463	0.000563831	0.00176594	0.00167358
0.00314823	0.00200717	0.000681585	0.000596961	0.000672405	0.000634466	0.00228255	0.00223813
0.00417262	0.00220407	0.000694258	0.000594472	0.000584634	0.000768338	0.00302067	0.00288312
0.00492078	0.00239713	0.000714405	0.000639254	0.000591836	0.000936135	0.00408609	0.00351201
0.00541982	0.0020382	0.000676351	0.000694462	0.000586908	0.00134972	0.00631476	0.0051751
0.0061688	0.00211393	0.000653585	0.000734823	0.000592309	0.00168872	0.00771888	0.00628869
0.0061726	0.00201786	0.000686183	0.000760181	0.000617649	0.0021973	0.00872817	0.00650831
0.00608329	0.0021275	0.00069722	0.000773298	0.000625429	0.00261044	0.00925112	0.00726767
0.00695504	0.00191451	0.000710134	0.000832063	0.000595883	0.00304694	0.0115487	0.00809277
0.0076445	0.00176413	0.000720504	0.000838541	0.000594593	0.00405575	0.0121032	0.0088611
0.00935767	0.00172676	0.000859886	0.000897218	0.000612472	0.00435136	0.0102884	0.00772646
0.00862851	0.00182476	0.00109215	0.000845943	0.000663655	0.00438276	0.00847225	0.00640737
0.00920251	0.00179707	0.00115974	0.000850829	0.000632296	0.00485153	0.00722612	0.00556876
0.0094127	0.00181405	0.00117094	0.000881327	0.000635349	0.00495035	0.00622564	0.00463947
0.00975836	0.0017882	0.00118279	0.000802014	0.000645594	0.00508267	0.00525692	0.0040325
0.0084606	0.00176821	0.00115033	0.00075149	0.000622851	0.00486675	0.00232338	0.00233327
0.00720103	0.00162401	0.00110979	0.000731602	0.000592438	0.00468358	0.00204278	0.00211516
0.00801155	0.00154977	0.000846998	0.000669739	0.000560326	0.00484382	0.00185008	0.00205353
0.00826317	0.00147212	0.000707052	0.000667993	0.000530813	0.00470216	0.00178073	0.00199162
0.0078971	0.00164115	0.000663293	0.00064322	0.000521653	0.0044792	0.0015413	0.00183141
0.00732528	0.00155915	0.000688886	0.00066996	0.000524799	0.00406782	0.00119169	0.00174324
0.00638049	0.00133345	0.000663393	0.000679065	0.00051864	0.0030098	0.00109295	0.00155198
0.00675052	0.0014936	0.000695084	0.000659087	0.0005278	0.00369348	0.000999901	0.00148899
0.00671834	0.00182664	0.000711709	0.000633783	0.000514532	0.00355475	0.000983985	0.0015772
0.00638866	0.00199706	0.000725341	0.000640277	0.00053894	0.0037558	0.000978785	0.00204146
0.00693497	0.00214905	0.000699969	0.000639768	0.000548074	0.00338656	0.00102889	0.00203821
0.00642148	0.00189076	0.000689867	0.000618005	0.000600468	0.0034458	0.000717426	0.00179341
0.00661974	0.00205534	0.000706856	0.000600757	0.000596004	0.00341564	0.000660575	0.00163956
0.0073185	0.00194009	0.000687894	0.000609526	0.000590623	0.00336878	0.000679151	0.00166377
0.00606589	0.00177414	0.000654992	0.000653103	0.000612454	0.00286113	0.000701401	0.00159574
0.00724962	0.00159366	0.000635144	0.000641839	0.000584322	0.00229133	0.000716899	0.00133443
0.00694095	0.00145342	0.000669411	0.000623296	0.000571437	0.00238117	0.000651352	0.00116882
0.0059022	0.00148431	0.000642108	0.000608042	0.000532106	0.00208394	0.000580779	0.0012006
0.00624618	0.00177339	0.000658583	0.000616761	0.000524634	0.00248086	0.000581912	0.0012395
0.00612471	0.00162695	0.000653538	0.00057057	0.000522575	0.00237899	0.00054299	0.00144002
0.00683296	0.00165677	0.000637789	0.000533541	0.000534448	0.00239648	0.000532451	0.00160354
0.00596398	0.00183751	0.000636849	0.00049842	0.000554845	0.00226419	0.000542161	0.00166331
0.0051429	0.00205563	0.000653065	0.000485432	0.000572986	0.00248603	0.000531317	0.00168763
0.0050456	0.00205439	0.000697903	0.000480829	0.000628288	0.00259361	0.000548892	0.00169871
0.00588843	0.0020248	0.000717423	0.000491543	0.000635008	0.00232247	0.000543625	0.00160785
0.00557494	0.0020491	0.000730192	0.000491806	0.000656549	0.00182506	0.000543377	0.00148985
0.00454453	0.00224492	0.000709603	0.000505367	0.000629902	0.00170694	0.000555767	0.00131495
0.00459139	0.00208075	0.000744351	0.00052435	0.000624932	0.00155	0.000529278	0.00120673
0.00480804	0.00198845	0.00074378	0.000544701	0.000662506	0.00152283	0.000531711	0.00123982
0.00582669	0.00201722	0.000702484	0.000541976	0.00068794	0.00116287	0.000549552	0.00118932
0.00491034	0.00201736	0.000668153	0.000553676	0.00068051	0.00108796	0.000548105	0.00115472
0.00463179	0.00237865	0.000654958	0.000554249	0.000677951	0.00111031	0.000549082	0.00115808
0.00353263	0.00256874	0.000646448	0.00056762	0.000721875	0.00119748	0.000546551	0.00124338
0.00429545	0.00273876	0.000681947	0.000577189	0.000795192	0.00121175	0.000546405	0.00135598
0.00400635	0.00320345	0.000684861	0.000590458	0.000835451	0.00118136	0.000553079	0.00183311
0.00259013	0.00346242	0.000689593	0.000590875	0.0008342	0.000915694	0.000581245	0.00184673
0.00205654	0.00380079	0.000694287	0.000579463	0.000844199	0.000958124	0.00054895	0.0018195
0.00205387	0.00373697	0.000746756	0.000581613	0.000966391	0.00100014	0.000554138	0.00191103
0.00186856	0.00349912	0.00076344	0.000588259	0.000966591	0.000844872	0.000572643	0.00186747
0.00105648	0.00364078	0.000754833	0.000571062	0.000905499	0.000826793	0.000578428	0.00191152
0.00075921	0.00349309	0.00073963	0.00052728	0.00099914	0.00074026	0.000587067	0.001461
0.000761323	0.00314592	0.000711649	0.000504383	0.00100299	0.000735997	0.000602949	0.00140461
0.000696445	0.00253539	0.000690248	0.000520233	0.000956295	0.00064044	0.000606456	0.00134744
0.000634685	0.00252319	0.000676795	0.000590011	0.000876692	0.000604958	0.000641327	0.00136001
0.000613924	0.0023076	0.00066845	0.000595648	0.000876337	0.000805888	0.000610836	0.00136964
0.000610708	0.00192464	0.000662315	0.000668554	0.000825201	0.000856656	0.000614461	0.00131654
0.000576874	0.0015426	0.000677603	0.000688385	0.000709869	0.000858583	0.000665156	0.00202369
0.00056067	0.00134051	0.000651726	0.000723833	0.000671282	0.000846258	0.000659325	0.00230574
0.000548448	0.00123001	0.00062828	0.000748081	0.00061689	0.00081614	0.000714041	0.0027939
0.000559272	0.000876696	0.000653579	0.000710962	0.000582324	0.000799904	0.000731132	0.00314516
0.000560172	0.000870085	0.000679732	0.000720445	0.000596775	0.000708993	0.000764938	0.0036725
0.00057084	0.000752518	0.000680072	0.000708864	0.000562177	0.000585018	0.000801552	0.0038814
0.000562641	0.000724952	0.000680885	0.00064936	0.00056043	0.000745897	0.000808743	0.00453021
0.000570288	0.000672026	0.000679334	0.000679231	0.000570415	0.000743293	0.000808257	0.00412198
0.000580287	0.000714645	0.000721969	0.000677308	0.000583253	0.000753111	0.000774137	0.00364607
0.00056742	0.000703753	0.000725657	0.00068455	0.00059644	0.000788157	0.000749685	0.00337733
0.000557459	0.000733315	0.000728185	0.000690177	0.000595692	0.000792358	0.000732216	0.00311894
0.000574231	0.000797651	0.000710322	0.000669774	0.000592751	0.000779879	0.000753811	0.00297577
0.000566339	0.000910514	0.0007008	0.000669674	0.000631372	0.000639002	0.000710648	0.00256494
0.000556747	0.000927375	0.000685151	0.000640512	0.000608979	0.000585942	0.000691647	0.002332
0.00054417	0.000879683	0.000660783	0.000594617	0.000630291	0.000569872	0.000712038	0.00236791
0.000533578	0.000862011	0.000663859	0.000613823	0.000623198	0.000555564	0.000774682	0.00274392
0.000524724	0.00110837	0.000642974	0.000584853	0.000644552	0.000530806	0.000758431	0.00281148
0.000538596	0.00116941	0.000672298	0.000576738	0.00063688	0.000518386	0.000736535	0.00270904
0.000527952	0.00146082	0.00065325	0.00057606	0.000633254	0.000517973	0.000739877	0.00240515
0.000541716	0.00149756	0.000662291	0.000617785	0.000684737	0.000534524	0.000728291	0.00194315
0.000549311	0.00164029	0.000678834	0.00065136	0.000758976	0.000529678	0.00073787	0.00188303
0.000567227	0.00187092	0.000675714	0.00062912	0.000808563	0.000581766	0.000644521	0.00147768
0.000590673	0.00184382	0.000668503	0.000636444	0.000801295	0.000606492	0.000633791	0.00128811
0.000604616	0.00186206	0.000693511	0.000624073	0.00093784	0.000638287	0.000606996	0.00112423
0.000636894	0.00170768	0.000690917	0.000623851	0.000966209	0.000627171	0.000612049	0.00110424
0.000674387	0.00136631	0.000682767	0.000606269	0.000864405	0.000635306	0.000629202	0.00108754
0.000677927	0.00127022	0.000703769	0.000572604	0.000862562	0.000645	0.000627234	0.00114013
0.000662795	0.00101879	0.000687319	0.000560176	0.000789422	0.000634191	0.000622283	0.00116843
0.000667113	0.0009345	0.000686166	0.000543113	0.000830712	0.000587985	0.000621261	0.00170012
0.000620515	0.00084754	0.000685845	0.000570315	0.000704198	0.000571724	0.000620384	0.00196894
0.000627489	0.00103046	0.000665799	0.000574117	0.000747415	0.000598558	0.000626849	0.00205337
0.000552358	0.00108345	0.000646059	0.000559699	0.0007773	0.000591067	0.000602483	0.00226193
0.00053514	0.00107373	0.000637787	0.000572658	0.000889053	0.000596687	0.000584912	0.0022784
0.000563273	0.00108713	0.000656863	0.000596183	0.000925028	0.000604229	0.000556277	0.00216198
0.0111628	0.0015575	0.000684997	0.000736601	0.000626961	0.00185923	0.00468846	0.0037085
0.0119333	0.00145016	0.000694004	0.000749922	0.000626289	0.00186536	0.00499295	0.003766
0.0129448	0.00145734	0.000688836	0.000816476	0.000640646	0.0019542	0.00602829	0.00419776
0.0118103	0.00145614	0.000707996	0.000828434	0.000641517	0.00241165	0.00615141	0.00441057
0.0117909	0.00148065	0.000724627	0.000816074	0.0006356	0.00290614	0.00606025	0.00449061
0.00959518	0.00153148	0.000732651	0.000836264	0.000646855	0.00338563	0.00624296	0.00460231
0.0105285	0.00163817	0.00072251	0.000843222	0.000636882	0.00350806	0.00667333	0.004861
0.0117168	0.00174167	0.00074308	0.000838164	0.000648716	0.00373606	0.00682557	0.0044909
0.0123343	0.00181713	0.000731729	0.000807126	0.000632352	0.00403518	0.00704479	0.00472656
0.0128028	0.00188467	0.000735656	0.000845661	0.000624774	0.00408969	0.00753938	0.00545944
0.0125831	0.00173272	0.000735306	0.000865437	0.000622716	0.00424958	0.00745867	0.00545553
0.0122828	0.00152552	0.000754223	0.000859691	0.00061212	0.0041547	0.00716832	0.00544396
0.0114557	0.00146563	0.000710417	0.00080534	0.000589422	0.00419201	0.00660339	0.00513672
0.0105625	0.00146396	0.000691302	0.00078676	0.000584593	0.00405806	0.0063328	0.00479569
0.0100388	0.00150242	0.000679412	0.000748339	0.000548574	0.00429073	0.00527635	0.00429514
0.0100564	0.00154259	0.000682363	0.000750861	0.000561474	0.00444445	0.00490845	0.00418217
0.00867315	0.00158793	0.000663958	0.000699685	0.000565273	0.00439858	0.00387783	0.00366436
0.00873331	0.00158586	0.000667361	0.000664018	0.000564369	0.00416292	0.00357629	0.00348261
0.00971093	0.00157662	0.000669599	0.000661832	0.000559778	0.00372317	0.00347492	0.00334146
0.00989213	0.00146138	0.000659212	0.000634258	0.000556004	0.00337949	0.00326018	0.00309216
0.00957055	0.00148654	0.000668111	0.000629438	0.000563252	0.00315942	0.00252519	0.00268019
0.00824213	0.0015308	0.000652227	0.000611158	0.000573242	0.00328008	0.00216475	0.00254415
0.00990239	0.00142361	0.000639364	0.000617631	0.000559301	0.00301651	0.00194423	0.00246884
0.0102765	0.00137989	0.000653103	0.000592588	0.000565616	0.00303574	0.00107924	0.00136119
0.0107977	0.00134293	0.000651792	0.000563675	0.000575793	0.00264993	0.000843469	0.00133785
0.0107272	0.00136219	0.000643213	0.000576341	0.000574023	0.0026053	0.00089119	0.00130717
0.0102849	0.00153594	0.00065511	0.000568297	0.000574173	0.00261147	0.000883648	0.00123325
0.0103004	0.00166073	0.000656079	0.000591516	0.000577446	0.00259329	0.000866864	0.00121375
0.0106436	0.0016433	0.000657747	0.000599632	0.000574801	0.0024206	0.00086022	0.00119124
0.0112234	0.00173076	0.000648674	0.00058641	0.000583199	0.00231863	0.000846291	0.00116553
0.0109814	0.00178215	0.000658247	0.000585793	0.000584854	0.00248175	0.00080504	0.00114151
0.0117656	0.001809	0.00066389	0.000584138	0.000593227	0.00250519	0.000806726	0.00115903
0.0116993	0.00182677	0.000659557	0.000571412	0.000601676	0.00243476	0.000800407	0.00115765
0.0125614	0.00190647	0.000676542	0.000562467	0.000595669	0.00242613	0.00076277	0.00112497
0.0118948	0.00189572	0.000684543	0.000571265	0.000592638	0.00258115	0.000745256	0.00111677
0.0118127	0.00179378	0.000689877	0.000573945	0.000578105	0.00243083	0.000725672	0.00111497
0.010008	0.00175078	0.000689257	0.000561787	0.000582271	0.00241232	0.000741453	0.00113886
0.00914621	0.00172155	0.000666828	0.00056721	0.000602621	0.00238157	0.000705157	0.00109665
0.00849279	0.00180962	0.000658958	0.000529222	0.00059464	0.0023868	0.000678539	0.00108556
0.00804991	0.00186169	0.00064948	0.000507658	0.000619109	0.0023719	0.000560849	0.00105511
0.00791649	0.00188484	0.000664808	0.000519599	0.00061929	0.00231528	0.000545182	0.00107847
0.00860401	0.00174058	0.000654454	0.000490795	0.0006175	0.00207932	0.000553779	0.00111362
0.00820305	0.00173908	0.00064685	0.000491467	0.000627291	0.00195929	0.000565594	0.00115836
0.00756902	0.00164918	0.000653559	0.000495562	0.000612997	0.00180341	0.000565336	0.00116834
0.00701678	0.00163	0.000659697	0.000511245	0.000599488	0.00190198	0.000557951	0.00123075
0.00709663	0.00163351	0.000645117	0.000502572	0.000601782	0.0018457	0.000558004	0.00121432
0.00564568	0.00173673	0.00063626	0.000518685	0.000604146	0.00177671	0.000561693	0.00129065
0.00595036	0.00169546	0.000612787	0.000521889	0.000610993	0.00189571	0.000554431	0.00131281
0.00687646	0.00169396	0.00060469	0.000516638	0.000622666	0.00166267	0.000587137	0.00141464
0.00695265	0.00172504	0.000601816	0.000514643	0.000627932	0.00161907	0.000612498	0.0014781
0.00717437	0.00182989	0.000594616	0.000516162	0.00064802	0.00147852	0.000591679	0.00146934
0.00779155	0.00183968	0.000606756	0.000503925	0.000643069	0.00136731	0.000579531	0.00160291
0.00845677	0.0018966	0.000610056	0.000511492	0.000631323	0.00119892	0.000581273	0.0018171
0.00846885	0.00188282	0.000602529	0.000525578	0.000640612	0.00120435	0.000584685	0.00204117
0.00818757	0.00200666	0.000581798	0.000524822	0.00066129	0.00134545	0.000624468	0.00204369
0.00719792	0.00207148	0.000594518	0.000532044	0.00065173	0.00146388	0.000615758	0.00210117
0.0070275	0.0020448	0.000615028	0.000524249	0.000660569	0.00152653	0.000604096	0.00207388
0.00724159	0.00208766	0.000609197	0.000518894	0.000667644	0.00154816	0.000598636	0.00210639
0.00740296	0.00210247	0.000602004	0.000526169	0.00066498	0.00145191	0.000602277	0.00201253
0.00738136	0.00232042	0.00061287	0.000545412	0.000660443	0.00125831	0.000601624	0.00201051
0.00707847	0.00235582	0.000609337	0.000553843	0.00068331	0.00123166	0.000595977	0.00195722
0.00618592	0.00232506	0.00062162	0.000557604	0.000679411	0.00114635	0.000599423	0.00193417
0.00487216	0.00229867	0.000621483	0.000554349	0.000665908	0.00113004	0.000585013	0.00189763
0.00542283	0.00225485	0.000619278	0.000554869	0.000676107	0.00115043	0.00056458	0.00181589
0.00511745	0.0022129	0.000627685	0.000563676	0.000693377	0.00117056	0.000569455	0.00176701
0.00442304	0.00232794	0.000627696	0.000571841	0.000711946	0.00113246	0.000568903	0.00168183
0.00349414	0.00233763	0.00063152	0.000591144	0.00073358	0.00111588	0.000546122	0.00144008
0.00349085	0.00247136	0.000647244	0.000575792	0.000744042	0.00110801	0.000539417	0.00113955
0.00337071	0.0022853	0.000638674	0.000588375	0.000715069	0.00100592	0.000511341	0.00116393
0.00338611	0.00227774	0.000650829	0.000594801	0.000761347	0.000836365	0.000489385	0.00106377
0.00331373	0.00264843	0.000638389	0.00059646	0.000777397	0.000758241	0.000494472	0.00102661
0.00311941	0.00278589	0.00062924	0.000600564	0.000764815	0.000737047	0.000503828	0.000912854
0.0033339	0.00284109	0.000647626	0.000591887	0.000803581	0.000758856	0.000505571	0.000891187
0.00302128	0.00268316	0.000628536	0.000595131	0.000807582	0.000843415	0.000512073	0.000863868
0.00280678	0.00252227	0.000641589	0.000590654	0.000764964	0.000887626	0.000501373	0.00087253
0.00276723	0.00280192	0.000620158	0.000578513	0.00077243	0.000896474	0.000495096	0.00082774
0.00270921	0.00295314	0.000629883	0.000594003	0.00077588	0.000825423	0.000490144	0.00084906
0.00166588	0.00301483	0.000630248	0.000599189	0.00077182	0.000928386	0.000495416	0.000850824
0.0016038	0.00297407	0.000626703	0.000592343	0.000740171	0.000982094	0.000481726	0.000817899
0.00166856	0.0029352	0.000612307	0.000598796	0.000746433	0.0009697	0.000497808	0.000815771
0.00169174	0.00299698	0.000620723	0.000588277	0.000740493	0.00097133	0.000511831	0.000838956
0.00157806	0.00281381	0.000615072	0.00056753	0.000711022	0.000969422	0.000512921	0.00093483
0.00148279	0.00280689	0.000639646	0.00054914	0.00075372	0.000955294	0.000528665	0.000955183
0.00148876	0.00296329	0.000633053	0.000548603	0.00072979	0.000933529	0.000539718	0.000978397
0.00149067	0.00303662	0.000639449	0.000567006	0.000710611	0.000933852	0.000535836	0.000983115
0.00148568	0.00281478	0.000625127	0.000578665	0.00070493	0.000931408	0.000534528	0.00099069
0.00109432	0.00298916	0.000626775	0.000580898	0.000686141	0.000942346	0.00053462	0.00104978
0.000879331	0.00289433	0.000607038	0.000563012	0.000670247	0.00086027	0.000535289	0.00108081
0.000881316	0.00279561	0.000612224	0.000542046	0.000691263	0.000776861	0.000543271	0.00108408
0.000825231	0.00270802	0.000629332	0.000539992	0.000744885	0.000763519	0.000564412	0.00114774
0.000839382	0.00228729	0.000643495	0.000536396	0.000733907	0.000782229	0.000572266	0.00113461
0.000788769	0.00224296	0.000637544	0.000528058	0.000747574	0.000727607	0.000583964	0.0011612
0.000762183	0.00220367	0.000640647	0.00053125	0.000744804	0.000579976	0.00058386	0.0011905
0.00072802	0.00207561	0.000655742	0.000525648	0.000724754	0.000578746	0.000588456	0.00121289
0.000639636	0.00192498	0.000640808	0.000518936	0.000694024	0.000590923	0.000587836	0.0012489
0.000635471	0.00190033	0.000639602	0.000528936	0.000703129	0.000587374	0.00059765	0.00116613
0.000642116	0.00183213	0.000651984	0.000546452	0.000678946	0.000579394	0.000572883	0.0011615
0.000618906	0.00168007	0.000655581	0.000553774	0.000651034	0.000611726	0.000590755	0.00124395
0.000587715	0.00117926	0.000667228	0.000548213	0.000662346	0.000607241	0.000598684	0.00133273
0.000578115	0.00110449	0.000678566	0.000553576	0.000652702	0.000621827	0.000605427	0.0014475
0.00061008	0.00110136	0.000569426	0.000794378	0.000907471	0.0003697	0.000745751	0.000914255
0.000633139	0.00118206	0.000610629	0.000738494	0.00093954	0.000416428	0.000720396	0.0010063
0.000656791	0.00154082	0.00068197	0.000700865	0.000898073	0.000500985	0.000695741	0.00104864
0.00102896	0.00153288	0.000737519	0.00064708	0.000844665	0.000565578	0.000772623	0.00114112
0.00146131	0.00154034	0.000722219	0.000584788	0.000798891	0.000593377	0.00114484	0.00144446
0.00204805	0.00175182	0.000703682	0.000557854	0.000759042	0.00056608	0.00189654	0.00181678
0.00375771	0.00202151	0.00067972	0.000589976	0.000657286	0.000641409	0.00244566	0.00243724
0.00417565	0.00219282	0.000710564	0.000615628	0.000575338	0.000877576	0.00307548	0.00291039
0.00505572	0.00224202	0.000705415	0.000635383	0.000579734	0.000935065	0.00432705	0.00365023
0.00555623	0.00204272	0.000668582	0.000701826	0.00057398	0.00144996	0.00655568	0.00523044
0.00622019	0.00208589	0.000652974	0.000739892	0.00060253	0.00184043	0.00795648	0.0062147
0.00629286	0.0020258	0.000697254	0.000774926	0.000616844	0.00235018	0.00915903	0.0068767
0.00619115	0.00206832	0.000700189	0.000781625	0.000606079	0.0027417	0.00987703	0.00748341
0.00770151	0.00188111	0.000711304	0.000840501	0.000593818	0.00384163	0.0122077	0.00870742
0.00915025	0.00172281	0.000720055	0.000838935	0.000602185	0.00433116	0.0114621	0.00838637
0.0089529	0.00176195	0.000998274	0.000854964	0.000639145	0.00418876	0.00930345	0.00674057
0.00827447	0.00178025	0.00115093	0.000841373	0.000649409	0.00461758	0.00786377	0.00564243
0.00917364	0.00183563	0.00118353	0.000867331	0.000636688	0.00485953	0.00685142	0.00532846
0.00960014	0.00154859	0.00117717	0.00084812	0.000626855	0.00493633	0.00572083	0.00445567
0.00822491	0.00180209	0.00116984	0.000751934	0.000640239	0.00566935	0.00291479	0.00275342
0.00824949	0.00161423	0.00112788	0.000743012	0.000601087	0.00473986	0.00208814	0.00217144
0.00731102	0.00159075	0.000910756	0.000675818	0.000571357	0.00478453	0.00189835	0.00206006
0.00847223	0.00149586	0.000745039	0.000660686	0.0005404	0.00464649	0.00181904	0.00202568
0.0079002	0.00163586	0.000656647	0.000668854	0.00053301	0.00457715	0.00178367	0.00182805
0.00749078	0.00159362	0.000683492	0.000661991	0.000510743	0.00411366	0.00127645	0.00186143
0.00636385	0.00129599	0.000666344	0.000689185	0.000522472	0.00327088	0.00112189	0.00154186
0.00659612	0.00147482	0.000682705	0.000661046	0.000534216	0.00368402	0.00101189	0.00150837
0.00660225	0.00181808	0.000705477	0.000638176	0.000525093	0.00353869	0.000990274	0.00157927
0.00634449	0.00198748	0.000725837	0.000641231	0.000536112	0.00375983	0.000971788	0.00202014
0.00699557	0.00216602	0.000705107	0.000638011	0.000546616	0.00338317	0.00103657	0.00204098
0.00642908	0.0018897	0.000690318	0.000617409	0.000599793	0.00344592	0.000717554	0.00180016
0.00665985	0.00206292	0.000706718	0.000603075	0.000593464	0.00341116	0.00066118	0.00163771
0.00705453	0.00192344	0.000689006	0.000614951	0.0005924	0.00323484	0.000678759	0.00165338
0.00614193	0.00167448	0.000649659	0.00065465	0.000607597	0.00284071	0.000698786	0.00159488
0.00733223	0.00158469	0.000638424	0.000636865	0.000588018	0.00228834	0.000725454	0.00128205
0.0066625	0.00145753	0.000665966	0.000616658	0.000563591	0.00233312	0.000629817	0.00118413
0.00592408	0.001542	0.000634331	0.000611646	0.000519666	0.00215164	0.000586907	0.0012084
0.00626678	0.00177337	0.000661611	0.000604448	0.000525343	0.00254655	0.000567465	0.00128082
0.00665807	0.00157822	0.000643071	0.000567559	0.00052573	0.00231781	0.000538715	0.00142733
0.00661813	0.00174807	0.000635843	0.000537002	0.000540709	0.00230996	0.000546459	0.00162152
0.00517528	0.00184103	0.000637615	0.000491479	0.000559943	0.00239626	0.000535704	0.00166039
0.00512233	0.00213501	0.000667509	0.00048234	0.000592084	0.00244674	0.000527135	0.00169268
0.00566516	0.00216818	0.000718589	0.000482888	0.0006215	0.00256464	0.000536477	0.00166257
0.00550971	0.00198722	0.000711303	0.000488034	0.000646793	0.00200569	0.000533	0.0015785
0.00528704	0.00212574	0.000720137	0.00049796	0.000646365	0.00170888	0.000549871	0.00139739
0.0045074	0.00223538	0.000725893	0.0005119	0.000635747	0.00158419	0.000540569	0.00123807
0.00464052	0.00209116	0.000754237	0.000527403	0.000630935	0.00156444	0.00053282	0.00120119
0.00546742	0.0020396	0.000724763	0.000541143	0.000660842	0.00130383	0.000533637	0.00119897
0.00588024	0.00210276	0.00069247	0.000557633	0.00068914	0.00108222	0.000557234	0.00118821
0.0047293	0.00235819	0.000659048	0.000549256	0.000674429	0.00108354	0.000540299	0.00114717
0.00386353	0.0025292	0.000643968	0.000560023	0.00069676	0.00120795	0.00055328	0.0012034
0.00419405	0.00263613	0.000655742	0.00057076	0.000766588	0.00120027	0.000541635	0.00125693
0.00406194	0.00298313	0.000679976	0.000588727	0.000842252	0.00118968	0.000552727	0.0018744
0.00317953	0.00350993	0.000682608	0.000585805	0.000803219	0.000913019	0.000574444	0.00182008
0.00204933	0.00375903	0.000714186	0.000594513	0.000836754	0.000964647	0.000557076	0.00184557
0.00209454	0.0037683	0.000744308	0.000583888	0.00096005	0.001005	0.000541375	0.00192085
0.00195064	0.00349196	0.000761193	0.000581538	0.000960517	0.000881634	0.000557734	0.00185722
0.00115507	0.00368011	0.000755464	0.000574198	0.000914451	0.000823237	0.00058587	0.00189458
0.000765012	0.00352935	0.000738598	0.000529363	0.00101942	0.000743923	0.0005905	0.00150599
0.000760018	0.00316898	0.000704172	0.000504195	0.00100547	0.000735922	0.00060278	0.00141324
0.000699653	0.00254373	0.000692165	0.000520378	0.00095348	0.000641984	0.000606193	0.00134722
0.000632012	0.00252177	0.000674896	0.000591606	0.000874206	0.000607341	0.000641358	0.00135919
0.000612928	0.00230587	0.000659098	0.000599651	0.000876029	0.000804139	0.000604324	0.00138964
0.00061047	0.0018228	0.000660986	0.000671345	0.000822597	0.000857493	0.00062191	0.00131902
0.000572052	0.00151323	0.000678809	0.000693873	0.000686894	0.000859767	0.00066619	0.00214089
0.000545876	0.00133633	0.000655002	0.000726196	0.000665126	0.000850948	0.000664084	0.00243758
0.000553673	0.0012266	0.000642961	0.000747007	0.000612962	0.000803542	0.000714173	0.00287141
0.000563086	0.000861061	0.000649353	0.000710765	0.000588477	0.000798977	0.000735723	0.00323953
0.000557391	0.000799278	0.000673948	0.000708297	0.000589543	0.000676086	0.00076368	0.00371371
0.000569337	0.000741847	0.000685181	0.000686596	0.000563614	0.000646495	0.000821034	0.0043297
0.000572071	0.000682398	0.000675431	0.000644833	0.000566201	0.000750463	0.000788309	0.00424745
0.000575127	0.000682866	0.000695009	0.000689937	0.000565275	0.000747223	0.000807437	0.00411547
0.000571243	0.000721448	0.000734362	0.000673063	0.000590852	0.000767536	0.000762714	0.00356565
0.00055731	0.000713252	0.000732035	0.000680849	0.000588158	0.00078751	0.000742863	0.00323978
0.000562326	0.000772127	0.000713711	0.000692062	0.000591698	0.000796737	0.000736541	0.00291686
0.000570683	0.000879031	0.000712565	0.000655944	0.000610037	0.000782963	0.000731529	0.00302855
0.000570975	0.000940067	0.000695111	0.00065082	0.00062696	0.000582602	0.000707156	0.00263417
0.000546954	0.000916076	0.000671785	0.000602138	0.000607144	0.000572221	0.000688864	0.00217077
0.000533935	0.000853482	0.000664372	0.000612753	0.000619745	0.000565489	0.000757106	0.0025988
0.000526261	0.000982973	0.000663753	0.000597284	0.000633471	0.000531391	0.000766443	0.00274599
0.000526763	0.00113707	0.000661886	0.00057733	0.000632172	0.000507727	0.000740103	0.00279779
0.000527668	0.00124164	0.000673462	0.000592657	0.000627382	0.00053144	0.00073225	0.00251564
0.000539732	0.00147342	0.000674853	0.000595331	0.000691681	0.000532518	0.000728048	0.00207208
0.000558911	0.00160678	0.000672871	0.000636219	0.000744813	0.000527494	0.000736341	0.00194152
0.000564423	0.00188906	0.000680619	0.000626326	0.00080871	0.000559173	0.000686746	0.00154681
0.00057526	0.00189147	0.000669079	0.000632071	0.00080382	0.000608382	0.000641864	0.00128147
0.000606163	0.001862	0.000683695	0.000627486	0.000922902	0.000641152	0.000616144	0.00116698
0.000630285	0.00178017	0.000687154	0.000617829	0.000968049	0.000631652	0.000613786	0.00112513
0.000672298	0.00137506	0.000688716	0.000612111	0.000870983	0.000639325	0.00063947	0.00109341
0.000689308	0.00127249	0.00070583	0.000570907	0.000864255	0.000647472	0.00062783	0.00112519
0.000666797	0.00104376	0.00068809	0.0005591	0.000788825	0.00062992	0.00062198	0.00117199
0.000666778	0.000936121	0.00068561	0.000543082	0.000830713	0.0005881	0.00062118	0.00170182
0.000622016	0.000830942	0.00067923	0.000566739	0.000693002	0.000573536	0.000621221	0.00197835
0.00062514	0.00103346	0.000664579	0.000574873	0.00074536	0.000581623	0.000628961	0.00207534
0.000551894	0.00108679	0.000640445	0.000564944	0.000777549	0.000587123	0.000592653	0.00227532
0.000533465	0.00106801	0.000630329	0.000574047	0.000899786	0.000600257	0.000586498	0.00227007
0.000572097	0.00110907	0.000651021	0.000600427	0.000947964	0.00062026	0.00055955	0.00220147
0.000585505	0.00108562	0.000651197	0.000612643	0.000909955	0.000628276	0.000535068	0.00195837
0.000613815	0.00117745	0.000654583	0.000596418	0.000905446	0.000624664	0.000557085	0.00152908
0.000647439	0.000950653	0.000738044	0.00060939	0.000856459	0.000647647	0.000602408	0.00148726
0.0104948	0.00159172	0.000723908	0.000685813	0.000541646	0.00315811	0.00872546	0.00671978
0.0100117	0.00156515	0.000730679	0.000679527	0.000531624	0.0032367	0.00852926	0.00680305
0.00996743	0.00155312	0.000733726	0.000662309	0.000543957	0.00343214	0.00890795	0.00695216
0.00979012	0.0014433	0.000762328	0.000675825	0.000528959	0.00365942	0.0092728	0.00718193
0.0095418	0.00142092	0.000769772	0.000675938	0.000532676	0.00412818	0.00944587	0.00809261
0.00932686	0.0014776	0.000743097	0.000645713	0.000539166	0.00422794	0.00914695	0.00805799
0.00908697	0.00144501	0.00072573	0.000670675	0.000550863	0.00423209	0.00841635	0.00770942
0.00909656	0.00140586	0.00073447	0.000668037	0.000571741	0.00436914	0.00754533	0.00719997
0.00856712	0.00138962	0.000736212	0.000646629	0.000566277	0.00439843	0.00712158	0.00693409
0.00799152	0.00131003	0.000730008	0.000648809	0.000553952	0.00446621	0.00706437	0.0070128
0.00784502	0.00123664	0.000732784	0.000645973	0.000569241	0.00439039	0.00687022	0.00695308
0.00738999	0.00138418	0.000744674	0.000633619	0.000580512	0.00432096	0.00672622	0.00680023
0.00740433	0.00144854	0.000747556	0.000627039	0.000588681	0.00454578	0.00647977	0.00678152
0.0074882	0.00141487	0.00076047	0.00061864	0.000603517	0.00478628	0.00557083	0.0061211
0.00746577	0.00136419	0.000753069	0.000616919	0.000602051	0.00486849	0.00518182	0.0057068
0.00658094	0.00134706	0.000744849	0.000594868	0.000594445	0.00476642	0.00501758	0.0055274
0.00521877	0.00129689	0.000707279	0.00059185	0.000601124	0.00438329	0.00409078	0.00455524
0.00502416	0.00135141	0.000699325	0.000593043	0.000601225	0.00421275	0.00363663	0.00422146
0.00495745	0.00138298	0.000705144	0.000586671	0.000596907	0.00435631	0.00330786	0.00404868
0.00534823	0.00138158	0.000692106	0.000581949	0.000595073	0.00476247	0.00281891	0.00382909
0.00557051	0.00133277	0.000698748	0.00058847	0.000594642	0.00487043	0.00256493	0.00329275
0.00619568	0.00132876	0.000704229	0.000599251	0.000605045	0.00482726	0.00248873	0.00314644
0.00602881	0.00132972	0.000712744	0.000600969	0.000601582	0.00464784	0.00191445	0.0029714
0.00603167	0.00139716	0.000701551	0.000584478	0.00060233	0.00433321	0.00152171	0.00258177
0.00592774	0.00132748	0.000718394	0.000579021	0.000601007	0.00387893	0.00100865	0.00158174
0.00593364	0.0012944	0.000724218	0.00058503	0.000600237	0.00371836	0.000790616	0.00146615
0.00584591	0.00124715	0.000747995	0.000567165	0.000587315	0.00354175	0.000732499	0.00134363
0.00560877	0.0013412	0.00079401	0.000570515	0.000575908	0.00328614	0.000734518	0.00130637
0.0054847	0.00140533	0.000913788	0.000600378	0.000595768	0.00325186	0.000746844	0.00135038
0.00561364	0.00147585	0.000963071	0.000593393	0.00061888	0.00312585	0.000725839	0.00125439
0.00558664	0.00151866	0.00101727	0.000593093	0.000601725	0.0030661	0.00072531	0.00110331
0.00536978	0.00141064	0.00102997	0.00057662	0.000595433	0.00300497	0.000730514	0.0011258
0.00448976	0.00139023	0.00101686	0.000581561	0.0005949	0.00280512	0.000712546	0.00117301
0.00427497	0.00147514	0.00105695	0.0005781	0.000585489	0.00255745	0.000697677	0.00125543
0.00447314	0.0017065	0.0010476	0.000596522	0.000586216	0.00245339	0.000692858	0.0013898
0.00514208	0.0019666	0.00109441	0.000667429	0.000678011	0.00249113	0.000805354	0.00155587
0.00504201	0.00205911	0.00111232	0.000682466	0.000668377	0.00248136	0.000823311	0.00163347
0.00498954	0.00202285	0.00111276	0.000681819	0.00066639	0.0024369	0.000829686	0.0017027
0.00534083	0.00206716	0.00112287	0.000682737	0.000665523	0.00228753	0.00083609	0.00173256
0.0053841	0.00221698	0.0011168	0.000672518	0.000667324	0.00185198	0.000842402	0.00173833
0.00527902	0.00245741	0.00112123	0.000650621	0.000668708	0.00166776	0.00084764	0.00175309
0.00460349	0.0025432	0.00110902	0.000634488	0.00068425	0.00169568	0.000858265	0.00177485
0.00410199	0.00256177	0.00110074	0.000646121	0.000707952	0.00167022	0.000865804	0.0018152
0.00371222	0.00249628	0.00111133	0.000652281	0.000713766	0.0016998	0.000858167	0.001839
0.00358143	0.00249167	0.00108575	0.000645388	0.000715554	0.00169538	0.000867572	0.00187479
0.00355843	0.00264867	0.00108864	0.000653774	0.000724831	0.0018613	0.000860704	0.00188373
0.00358428	0.00269388	0.00106578	0.000665687	0.000759366	0.00188607	0.000871374	0.00192429
0.00375903	0.00273713	0.00100286	0.00064441	0.000775438	0.00187102	0.000844454	0.00191583
0.00403215	0.00284884	0.000892476	0.000630986	0.000746019	0.00181817	0.000782157	0.00184295
0.00399101	0.00288089	0.000840495	0.000625357	0.000725963	0.00172796	0.000777275	0.00180774
0.0039578	0.00290493	0.000781081	0.000629221	0.000741559	0.00164662	0.000747261	0.00181431
0.00395203	0.00304113	0.000791412	0.000641531	0.000770629	0.00161906	0.000737032	0.00187166
0.00397145	0.00310208	0.000816164	0.000646136	0.00076773	0.00156472	0.000727751	0.0017759
0.0039664	0.00308012	0.000775641	0.000644278	0.000763074	0.0014765	0.000728993	0.00167516
0.00381406	0.00285053	0.000773034	0.000631428	0.000763103	0.00147215	0.00072055	0.00151033
0.00326192	0.00283219	0.00074548	0.000570364	0.000688752	0.00143523	0.000619726	0.00140703
0.00319755	0.00295363	0.000733561	0.00055884	0.000714765	0.00145462	0.000592512	0.00128133
0.00313709	0.00307394	0.00071872	0.000552923	0.000761883	0.00145155	0.000581677	0.00120158
0.00263081	0.00314556	0.0007051	0.000544048	0.000780033	0.00144109	0.00059853	0.00116008
0.0022958	0.00317298	0.000695598	0.00055007	0.000774398	0.00137823	0.000598598	0.00113751
0.00219789	0.00305689	0.000676615	0.000561413	0.000795076	0.00133186	0.000602385	0.00112158
0.00210903	0.00302553	0.000676754	0.000561511	0.000786611	0.00126196	0.000597856	0.00111871
0.00213022	0.00297708	0.000668085	0.000546723	0.000758995	0.00125851	0.000592766	0.00104485
0.00213165	0.00303809	0.000659891	0.000554487	0.000780642	0.00122363	0.000592123	0.00101916
0.0026229	0.00302137	0.000685497	0.000564847	0.000844758	0.00117342	0.00059597	0.0010039
0.00281062	0.00311794	0.000689709	0.000553218	0.000888887	0.0010609	0.000599571	0.0010354
0.00275325	0.00315611	0.000692976	0.000537569	0.000856464	0.00105519	0.000585896	0.00102754
0.00277272	0.00303965	0.000703752	0.000553735	0.000833548	0.00105634	0.000574351	0.00102162
0.00279011	0.00305536	0.000711724	0.000555812	0.000840395	0.00110085	0.000594452	0.00106234
0.00272478	0.00314372	0.000723805	0.000564836	0.000861648	0.00110774	0.000586499	0.00110807
0.00278159	0.00332891	0.000734837	0.000554963	0.000857234	0.00115625	0.000604257	0.00115492
0.00288296	0.003315	0.000725813	0.000545434	0.000834857	0.00125477	0.000608508	0.00132431
0.00288045	0.00335916	0.000703929	0.000544382	0.000891577	0.00112059	0.000613055	0.00145035
0.00274859	0.00369312	0.000715461	0.000543195	0.00091976	0.0010887	0.00060449	0.00158582
0.00258461	0.00402982	0.000711789	0.000531006	0.00099139	0.00103307	0.000621525	0.0015789
0.00257623	0.00393107	0.000704194	0.000532456	0.000994687	0.00102757	0.000618638	0.00155122
0.00258171	0.00370491	0.000694262	0.000546048	0.00095793	0.00101319	0.000623845	0.00159776
0.00260172	0.00366087	0.000713375	0.00056344	0.000945612	0.00101151	0.000621984	0.00160837
0.00263849	0.00359853	0.000709616	0.00057359	0.000963562	0.00101707	0.00062417	0.00161636
0.00264471	0.00363801	0.000715027	0.000573763	0.000966266	0.0010035	0.000636765	0.00166452
0.00262941	0.00350211	0.000726377	0.000574356	0.000949825	0.000994265	0.000635629	0.00173013
0.00259969	0.00364867	0.000744789	0.000588836	0.000963111	0.00099712	0.000664022	0.00177144
0.00255754	0.00368618	0.000767756	0.000586674	0.00096382	0.000999225	0.000652791	0.00187093
0.00252426	0.00367837	0.000760725	0.000570737	0.000930201	0.00102242	0.000641382	0.00188104
0.00202746	0.00370755	0.000727286	0.000572334	0.000856217	0.00105435	0.000642551	0.00193761
0.00189248	0.00350136	0.000706861	0.000589556	0.000811501	0.00102369	0.000642825	0.00192422
0.00188933	0.00351243	0.00069739	0.000591864	0.000821028	0.0011396	0.000650612	0.00196766
0.00158756	0.00351481	0.000688748	0.000576956	0.000839022	0.00122398	0.000657042	0.00199193
0.000929411	0.00335693	0.000689041	0.000581924	0.000849489	0.00119966	0.000651062	0.0019664
0.000855183	0.00316861	0.00067378	0.000577268	0.000831734	0.00120987	0.000652269	0.00192966
0.000800884	0.00293554	0.000657946	0.00058079	0.000826865	0.00120281	0.00065314	0.00185643
0.00070745	0.00275973	0.000656266	0.000589784	0.000816518	0.00104265	0.000650037	0.00162655
0.000691868	0.00259859	0.000646861	0.000577663	0.000757865	0.00100698	0.000647221	0.00148186
0.000682006	0.00218273	0.000644879	0.000585303	0.000778311	0.00107578	0.000647593	0.00132247
0.000684124	0.00200087	0.000645162	0.000587504	0.000741162	0.00115051	0.000626183	0.00132012
0.000670015	0.00197568	0.000635377	0.000594202	0.000793845	0.00115567	0.000626059	0.0013343
0.000671491	0.0019787	0.000645815	0.000588522	0.000800816	0.00114668	0.000633107	0.00130502
0.000650118	0.00192047	0.000647779	0.000579569	0.000785866	0.00114647	0.000646755	0.00129182
0.000616422	0.00184242	0.000635144	0.000575962	0.000743796	0.00117425	0.000640826	0.00128746
0.000627012	0.00161489	0.000640738	0.000582306	0.000732773	0.00117572	0.000626725	0.00123889
0.00061008	0.00110136	0.000569426	0.000794378	0.000907471	0.0003697	0.000745751	0.000914255
0.000634682	0.00118518	0.000609557	0.000739969	0.00094209	0.000412115	0.000720978	0.00100539
0.000651261	0.00149706	0.00067953	0.000704357	0.000899449	0.000500409	0.000699041	0.00104601
0.0010096	0.00153663	0.000729423	0.000652051	0.000844524	0.000562448	0.000768276	0.00112052
0.00140269	0.00153475	0.000730596	0.000583868	0.000808223	0.000593028	0.00109867	0.00136592
0.00187163	0.00170443	0.00069435	0.000565797	0.000762582	0.00056523	0.0018177	0.00175369
0.00332373	0.00201554	0.000684312	0.000591537	0.000662348	0.00064261	0.00236838	0.0023307
0.00416647	0.00220423	0.000703405	0.000605612	0.00057693	0.000814664	0.00304267	0.00288965
0.00499409	0.00236941	0.000706505	0.000639505	0.000585937	0.000926999	0.0041689	0.00354744
0.0055977	0.0020356	0.000670172	0.000694001	0.000582935	0.00138923	0.00631169	0.00518262
0.00628239	0.00211628	0.000653273	0.00073873	0.000589478	0.00171728	0.00772479	0.00623906
0.00625019	0.00201844	0.000695157	0.000767044	0.000618334	0.00229538	0.00877726	0.00649416
0.00587954	0.00211356	0.000695276	0.000775608	0.00061035	0.00264239	0.00961273	0.00742218
0.00739473	0.00192599	0.00071165	0.000840114	0.000600582	0.00327543	0.011997	0.0085446
0.00787717	0.00170971	0.000718641	0.000840165	0.000586257	0.00413167	0.0119072	0.00876489
0.00928112	0.00172863	0.000933135	0.000871261	0.000630207	0.00428256	0.00972931	0.00711963
0.00854278	0.00182894	0.00110709	0.000855545	0.000653352	0.00453888	0.00814826	0.00582881
0.00938635	0.00181715	0.00118305	0.000855212	0.000632635	0.00489155	0.00692596	0.00546316
0.00961407	0.00166096	0.00117337	0.000887928	0.00063725	0.00499758	0.0060685	0.00466873
0.00985937	0.00178316	0.0011873	0.000781075	0.000647905	0.00536675	0.0046216	0.00387116
0.00860628	0.00169491	0.00114544	0.000752834	0.000606754	0.00471216	0.00217572	0.00231172
0.00728245	0.00164359	0.00103291	0.000723141	0.000600075	0.00473891	0.00202388	0.00210091
0.00839564	0.00157687	0.000798963	0.000664163	0.000550755	0.0048749	0.00183855	0.002021
0.00781954	0.00146786	0.000695102	0.00066351	0.000532103	0.00469538	0.00170641	0.00186382
0.00800905	0.00159446	0.000662584	0.000643374	0.000515707	0.0043322	0.00145688	0.00190099
0.00679468	0.00141796	0.000671008	0.000682173	0.000503662	0.00396852	0.0011499	0.00158874
0.00609032	0.00144349	0.000664738	0.000667146	0.000524415	0.00286955	0.00105913	0.00149727
0.0070512	0.0015553	0.000715285	0.00065293	0.000524867	0.00364781	0.00100133	0.00153824
0.00680002	0.00189332	0.000725317	0.000635058	0.000522661	0.00361408	0.000978021	0.00168743
0.00641833	0.00211244	0.000713248	0.000638273	0.000548237	0.00366108	0.00102667	0.00201829
0.00685398	0.00195293	0.000694767	0.000631183	0.00056857	0.00334069	0.0008771	0.00191961
0.00647236	0.00192783	0.000687565	0.000591162	0.000589987	0.0034673	0.00068734	0.00166078
0.00743818	0.00202386	0.000694053	0.000604209	0.00059397	0.00358761	0.000675843	0.00164059
0.0064864	0.00193745	0.000674444	0.000629399	0.000604241	0.00278651	0.000707568	0.00159145
0.00653553	0.00156504	0.000664764	0.000648792	0.000600279	0.00274191	0.000707316	0.00158009
0.00721789	0.00152929	0.000653463	0.000638719	0.00057995	0.00225033	0.000715795	0.00116713
0.00573578	0.00147365	0.000660343	0.000618512	0.000543201	0.00222805	0.000592761	0.00117497
0.00595958	0.00164504	0.000638919	0.000621131	0.00051049	0.00217822	0.00058816	0.0011969
0.00658804	0.00173929	0.000655018	0.00058353	0.000521272	0.00253149	0.000567154	0.00134704
0.00688608	0.00157691	0.00064777	0.000560433	0.000538776	0.00226954	0.000550364	0.00148263
0.00666568	0.001822	0.000638316	0.000525205	0.000536684	0.00225872	0.000551732	0.00163318
0.00515348	0.00189506	0.000644419	0.000488811	0.000572752	0.00246325	0.000538773	0.00166207
0.00509322	0.00213063	0.000672542	0.000488645	0.000595257	0.0025347	0.000528733	0.00168136
0.00571185	0.00219104	0.000728463	0.000491547	0.000624902	0.00246697	0.000539574	0.00169238
0.00549317	0.00201045	0.000720725	0.00048615	0.000640445	0.00194672	0.000541264	0.00157149
0.00532977	0.00215095	0.000707903	0.00049651	0.000643661	0.00170524	0.000557866	0.00138715
0.00450585	0.00222454	0.000729114	0.000512296	0.000631757	0.00158471	0.000539978	0.00122572
0.00465515	0.00209359	0.000754948	0.000527545	0.000634419	0.00156889	0.000533775	0.00120702
0.00546645	0.00203948	0.000724771	0.00054114	0.000660967	0.00130388	0.000533547	0.001199
0.00587812	0.00210462	0.00069743	0.000556686	0.000686013	0.00108212	0.00055399	0.00118543
0.00473354	0.00234172	0.000663123	0.00054605	0.000670569	0.00108604	0.000536873	0.00115458
0.00387245	0.00251041	0.000641748	0.000551434	0.000685254	0.00120663	0.000551258	0.0011955
0.00415743	0.00261883	0.000666585	0.000572296	0.000750243	0.00120271	0.000537421	0.0012386
0.00406816	0.00299289	0.000670743	0.00058497	0.000842211	0.00120024	0.000544087	0.00181421
0.00351539	0.00344752	0.000688824	0.000581489	0.000807336	0.000910332	0.000560209	0.00180671
0.00206351	0.00373019	0.000717827	0.000602483	0.000838034	0.000955483	0.00055206	0.00183127
0.00209714	0.00383265	0.000736635	0.000579031	0.000952258	0.0010045	0.00054814	0.00188219
0.0020187	0.00358643	0.000764532	0.000577909	0.000947542	0.000951879	0.00055736	0.00187471
0.00138486	0.00369667	0.000752921	0.00057777	0.000940504	0.000820244	0.000565549	0.00187569
0.000782536	0.00354805	0.000742997	0.000547686	0.00101808	0.000752632	0.000565562	0.00166377
0.000748703	0.00325436	0.000714688	0.000513104	0.000994713	0.000742434	0.00058982	0.00139027
0.000702642	0.00272537	0.000718055	0.000512226	0.000964893	0.000686319	0.000592677	0.00136043
0.000645538	0.002609	0.000699624	0.000576342	0.000942915	0.000594912	0.000615494	0.0013932
0.00061531	0.00230005	0.000671035	0.000578787	0.000858066	0.000713609	0.000624888	0.00129363
0.000597498	0.00208658	0.000654788	0.000633518	0.000837118	0.000853203	0.000604226	0.00131371
0.000576711	0.00165727	0.000674583	0.000688869	0.000809308	0.000860331	0.000655924	0.00169281
0.000561446	0.00143238	0.000661114	0.000715073	0.000666124	0.000857858	0.000668135	0.0022993
0.000546221	0.00130838	0.000643075	0.000752458	0.000652348	0.000829633	0.000696314	0.00274043
0.000559786	0.000895487	0.000649468	0.000733871	0.0005847	0.000799909	0.000719782	0.00306433
0.000549434	0.000878448	0.000671816	0.000716299	0.000599882	0.000720739	0.000759319	0.00360192
0.000572611	0.00074844	0.000671916	0.000715192	0.000560994	0.000580706	0.000767558	0.00366498
0.000561719	0.000754295	0.000685195	0.000638099	0.000575711	0.000739579	0.000814007	0.00460946
0.000574284	0.000673985	0.000673964	0.000658724	0.000572732	0.000747208	0.000806446	0.00416275
0.000583898	0.000707011	0.000710003	0.000684807	0.000578069	0.00074313	0.00079302	0.00373932
0.000568453	0.000702285	0.000730557	0.000678147	0.000610833	0.000772702	0.000748384	0.00343817
0.000559856	0.000721429	0.000732744	0.000676584	0.000594373	0.000791483	0.000746074	0.00305807
0.000565115	0.000782982	0.000713561	0.000671874	0.000588713	0.000789473	0.000750607	0.00300748
0.000563042	0.000913501	0.000697182	0.000660409	0.000624842	0.000675198	0.000706319	0.00258753
0.000557133	0.000928754	0.000680672	0.000637301	0.000611323	0.000581254	0.000696734	0.00244667
0.000531929	0.00088449	0.000664408	0.000590664	0.000616478	0.000574506	0.000716121	0.00237652
0.000533918	0.000858438	0.000658254	0.000607971	0.000620931	0.000557947	0.00077283	0.00273313
0.000528615	0.00109797	0.000651204	0.000582708	0.000642841	0.000528693	0.000762008	0.00281143
0.000535494	0.00116347	0.00067273	0.000575472	0.000633737	0.000514688	0.00073883	0.00271367
0.000525011	0.0014545	0.000655376	0.000581125	0.00063338	0.000521192	0.000741926	0.00243632
0.000540101	0.00149147	0.000663921	0.000617345	0.000685455	0.000534598	0.000728644	0.00194348
0.000549396	0.00163153	0.000676416	0.000648085	0.000755494	0.000529612	0.000737748	0.00188695
0.000567453	0.00187093	0.00067559	0.000630682	0.000808696	0.000581361	0.000647151	0.00148068
0.000590763	0.00184352	0.00066859	0.000636517	0.000801269	0.00060647	0.000633789	0.00128809
0.00060553	0.00186217	0.000694228	0.000624314	0.000938352	0.000639648	0.000605825	0.00112507
0.000641181	0.00169035	0.000692283	0.000624929	0.00096447	0.000627826	0.000610039	0.0011066
0.000678035	0.0013656	0.000686567	0.000606595	0.000863388	0.000632219	0.000629416	0.00109948
0.000672614	0.00127283	0.000699959	0.000571406	0.000853386	0.000641982	0.000628414	0.00114469
0.00065739	0.000999839	0.00068163	0.000560414	0.000773737	0.000632816	0.000617734	0.00116482
0.000659985	0.000949199	0.000689541	0.000545889	0.000837531	0.000587082	0.000617638	0.00170472
0.000623637	0.000831287	0.000674538	0.000560922	0.000688094	0.000575389	0.000619852	0.00198075
0.000624713	0.00103626	0.000665066	0.000577643	0.000747039	0.000583103	0.000631109	0.00207941
0.000552099	0.00108687	0.000640444	0.000564923	0.000777418	0.000587323	0.000592782	0.00227532
0.00053299	0.0010683	0.000632154	0.000574874	0.000898877	0.00059889	0.00058705	0.00227196
0.000575247	0.00109753	0.000654738	0.000598577	0.000943365	0.00061557	0.000560871	0.00219425
0.000590199	0.00108603	0.000646017	0.000610375	0.000915685	0.000626422	0.000538731	0.00198082
0.00347122	0.0011581	0.000612912	0.000793605	0.000583517	0.00130129	0.00573532	0.00460947
0.00319466	0.00116312	0.000621584	0.000755745	0.000608156	0.00134803	0.00554698	0.00466437
0.00371697	0.00127512	0.000622351	0.000749157	0.000612732	0.0016837	0.00531398	0.0042453
0.00528024	0.00155031	0.000627334	0.000753165	0.000623739	0.00189404	0.00517137	0.00392956
0.0056565	0.001324	0.000651448	0.000827888	0.000638621	0.00203717	0.00610641	0.00493889
0.00564797	0.00134491	0.000658256	0.000775768	0.000618956	0.00214702	0.00574942	0.00506572
0.00528112	0.00141592	0.00069091	0.000733625	0.000605109	0.00224144	0.00507056	0.00477173
0.00460537	0.00155596	0.000702299	0.000719536	0.000604753	0.0024667	0.00467031	0.00436466
0.00529943	0.00162415	0.000710799	0.000762984	0.000602857	0.00312279	0.00465299	0.00423201
0.00586136	0.00172905	0.000714431	0.000774036	0.000612224	0.00335241	0.00509418	0.00433569
0.0055454	0.00174723	0.000682172	0.000769998	0.000591998	0.00404996	0.00425325	0.00415342
0.00487854	0.00176796	0.000669831	0.00071253	0.000595881	0.00398286	0.00391924	0.0040035
0.00608748	0.00207106	0.000649	0.000716089	0.0006027	0.00457225	0.00392044	0.00360754
0.00650257	0.00211013	0.000656597	0.000718185	0.000575587	0.00463616	0.00386821	0.00363801
0.00527315	0.00195051	0.000654929	0.000724814	0.000562801	0.00468019	0.00382785	0.00364598
0.00464733	0.00186658	0.000656192	0.000652767	0.000554633	0.00465465	0.00274146	0.00262406
0.00517909	0.00188659	0.00063451	0.000625564	0.000571788	0.00454124	0.00233224	0.00205187
0.00549615	0.00190662	0.000641671	0.000636545	0.000561717	0.00476877	0.00209625	0.00203062
0.00570717	0.00173986	0.000637762	0.000638422	0.000573252	0.00470156	0.00215055	0.00200694
0.0058388	0.0016472	0.000633963	0.000626285	0.000582224	0.00422247	0.00222528	0.00202402
0.00514877	0.00164323	0.000629023	0.000633281	0.000565653	0.00420184	0.00209992	0.00191172
0.00512252	0.00164497	0.000652013	0.000623963	0.00055143	0.00339277	0.00144116	0.00172348
0.00655459	0.00163405	0.000650798	0.000594914	0.000568122	0.0036919	0.00145511	0.00161989
0.00598542	0.00142501	0.000670438	0.000631415	0.000549282	0.00380848	0.00143604	0.00149344
0.00521627	0.00124106	0.000678582	0.000642531	0.000549232	0.00355579	0.00146276	0.00175649
0.00479589	0.00142946	0.000682783	0.000637272	0.000550647	0.00338014	0.00145558	0.00183378
0.00500592	0.00140237	0.000669877	0.000648055	0.000555691	0.00319095	0.00143492	0.00205419
0.00507962	0.00136933	0.000674538	0.000664477	0.000551032	0.003505	0.0015065	0.00239064
0.0049869	0.00140271	0.00067499	0.000648767	0.000568047	0.00328887	0.00148362	0.00241123
0.00561268	0.00164298	0.000671483	0.000640854	0.000568741	0.00328444	0.00145524	0.00245346
0.0052512	0.00174599	0.000687346	0.000642263	0.000568669	0.00322384	0.00134644	0.00244218
0.00564541	0.001669	0.000689363	0.00063113	0.000566133	0.00298098	0.00122235	0.00259889
0.00598276	0.00165426	0.000686332	0.000629943	0.000578337	0.00314369	0.00119979	0.0025523
0.0055073	0.00171574	0.000715164	0.000643037	0.000578388	0.00290311	0.00116395	0.00251159
0.00503202	0.00169136	0.000704029	0.000598717	0.00058538	0.00236738	0.00115108	0.00255274
0.00501385	0.00178181	0.000717211	0.000610851	0.000611933	0.00232608	0.00113953	0.00247306
0.00553098	0.00171822	0.000800522	0.00062931	0.000656957	0.0024039	0.00110277	0.00214665
0.005747	0.00165938	0.000812685	0.000645067	0.000658259	0.00253213	0.00108371	0.00192316
0.00604696	0.00174254	0.00082993	0.000618144	0.000658573	0.0023663	0.00101302	0.00167798
0.0058776	0.00176143	0.00085047	0.000647717	0.000637419	0.00220586	0.000967352	0.0014773
0.00561993	0.00175119	0.000827632	0.000658562	0.000626977	0.00232207	0.00096756	0.00140583
0.00591168	0.00156201	0.000821502	0.000659105	0.000620166	0.00222396	0.00100169	0.00134591
0.00608982	0.00156006	0.000804639	0.000631534	0.000634782	0.00231538	0.00108486	0.00122873
0.00590366	0.00155698	0.000782234	0.000609276	0.000624696	0.00234773	0.00112363	0.00114131
0.00622909	0.00153417	0.000780798	0.000615813	0.000623286	0.00217046	0.000935934	0.00106313
0.00623702	0.00151718	0.0007767	0.000615899	0.000624316	0.0021543	0.000805104	0.0010444
0.00599001	0.00144253	0.000763216	0.000606766	0.000586237	0.00212529	0.000775526	0.000970044
0.00569302	0.00155907	0.000655454	0.000568798	0.000524349	0.00232596	0.000723941	0.000974458
0.00566955	0.00177662	0.000664221	0.000560318	0.000516757	0.00227719	0.000717583	0.00103099
0.00583066	0.00176277	0.00067037	0.000570964	0.000507128	0.00239958	0.000719531	0.00105553
0.00553489	0.0017254	0.000679251	0.000561464	0.000517965	0.00243126	0.000740325	0.00105307
0.00573311	0.00153295	0.000684193	0.0005684	0.000548352	0.00220448	0.000716664	0.00107346
0.00499705	0.00152649	0.000681504	0.000554055	0.000544041	0.00208335	0.000696149	0.00106922
0.00515419	0.00165594	0.000668186	0.000568366	0.000533076	0.00215905	0.000614078	0.00108347
0.0050816	0.00164528	0.000665768	0.000603462	0.000541683	0.00227272	0.00057785	0.00108816
0.00460531	0.00180423	0.000688782	0.000614279	0.000559747	0.00213979	0.000588816	0.00113197
0.00483377	0.0019959	0.00069209	0.000619668	0.000589924	0.00211113	0.000588604	0.00108167
0.00494958	0.00206822	0.000701881	0.000620277	0.000603026	0.00202005	0.000582718	0.00110904
0.00470867	0.00202451	0.000694023	0.000644492	0.000605807	0.00191715	0.000596205	0.00115911
0.00519394	0.00178796	0.000679843	0.000642149	0.000602287	0.00193381	0.000567325	0.00111688
0.00494974	0.00183415	0.000681852	0.000638907	0.000630404	0.00169381	0.000581748	0.00113882
0.00471584	0.00186371	0.000667003	0.000622918	0.000621092	0.00165463	0.000562495	0.00116475
0.00412852	0.00200505	0.000646755	0.000617081	0.000600119	0.00168403	0.000593645	0.0011455
0.004187	0.00207554	0.000643826	0.000617837	0.000585557	0.00169923	0.000610998	0.00117809
0.00399999	0.00196387	0.000673576	0.000621848	0.000586868	0.00158706	0.000594218	0.00119102
0.00381538	0.00226184	0.00068834	0.000596942	0.000557183	0.00123603	0.000569868	0.00116006
0.00303604	0.00233098	0.000678507	0.000576166	0.000568124	0.00114759	0.000570185	0.00111182
0.00294085	0.00238929	0.000687742	0.000562064	0.000524453	0.00119838	0.000569311	0.00114428
0.00285328	0.00235493	0.000681567	0.000557708	0.00052335	0.00118848	0.000572518	0.00113162
0.00288245	0.00264862	0.00068029	0.000550762	0.000533827	0.00115217	0.000552696	0.00119528
0.00257752	0.00289242	0.000687713	0.000538455	0.000544265	0.000992126	0.000556394	0.00150868
0.00199528	0.00287754	0.000678841	0.000528808	0.000538648	0.00113553	0.000545331	0.00147872
0.00187807	0.00295585	0.000692907	0.000543353	0.000583091	0.00113126	0.000533355	0.00150065
0.00179	0.003231	0.000663987	0.000555416	0.000597953	0.00105862	0.000529393	0.00149233
0.00154439	0.00340285	0.000670691	0.000562217	0.000603403	0.0010079	0.000510031	0.001483
0.00152562	0.00374913	0.000644362	0.000559511	0.000648664	0.000987936	0.000516339	0.00148334
0.00152914	0.00377454	0.000656076	0.000567321	0.000681217	0.000992948	0.000532328	0.00153985
0.00152662	0.00373032	0.000650338	0.000548818	0.000749319	0.00103496	0.00052195	0.00164685
0.00112619	0.00358799	0.000664325	0.000564541	0.000767918	0.00101768	0.000506586	0.00173079
0.000944992	0.00453921	0.000686651	0.000574484	0.000879671	0.0010667	0.000507246	0.00180323
0.000818809	0.00425409	0.000688066	0.000557504	0.000903175	0.00104763	0.000516549	0.0018479
0.000751579	0.00416269	0.000704583	0.000570892	0.000923822	0.00095639	0.000543903	0.00162718
0.000688113	0.00427698	0.000676228	0.000591797	0.000920407	0.000725116	0.000544431	0.00155846
0.000657471	0.00421549	0.000670771	0.000599725	0.000934638	0.000720283	0.000556163	0.00159203
0.000652922	0.00400046	0.000689862	0.000577289	0.000942704	0.000862393	0.000565628	0.00166871
0.000646991	0.00416192	0.000702816	0.000583477	0.00100504	0.000922876	0.000580425	0.00178033
0.000658655	0.00398202	0.000703711	0.000592361	0.00100087	0.000908685	0.000584899	0.00187626
0.000658765	0.00386191	0.000694148	0.000583768	0.000990279	0.000926726	0.000567399	0.00188002
0.000647504	0.00367947	0.000710695	0.000591937	0.000902812	0.000916634	0.000577126	0.00190095
0.00064387	0.00379722	0.00070346	0.00059389	0.000891741	0.000910059	0.000593671	0.00182954
0.000601947	0.00292155	0.000692243	0.000588185	0.000776436	0.000849606	0.000606711	0.00180088
0.000603806	0.00269079	0.000697791	0.000601598	0.000733216	0.000859957	0.000604343	0.00182018
0.000617767	0.00281848	0.000694637	0.000607153	0.000708005	0.000901385	0.000588855	0.00178395
0.000612147	0.00231309	0.00069674	0.000631483	0.000714196	0.00105661	0.000612685	0.00172799
0.000610186	0.0022516	0.000706162	0.000617536	0.000683794	0.00109345	0.000612527	0.00164662
0.000628834	0.002546	0.00071225	0.000642313	0.000719926	0.00106476	0.000627963	0.00158603
0.000639435	0.00239717	0.000708806	0.000636792	0.00070419	0.000996107	0.000626605	0.00142843
0.000644148	0.00200651	0.00071368	0.000619876	0.000655934	0.00107005	0.000623131	0.0013743
0.000622008	0.00187595	0.0007097	0.000625756	0.000653325	0.00109294	0.00065894	0.00129713
0.000624545	0.00185894	0.000701396	0.000651047	0.000696264	0.00108389	0.000676077	0.00127698
0.00061008	0.00110136	0.000569426	0.000794378	0.000907471	0.0003697	0.000745751	0.000914255
0.000633959	0.00118585	0.000619961	0.000738004	0.000932287	0.000423716	0.000719137	0.00100871
0.000711068	0.00158463	0.000691916	0.000689771	0.000890761	0.000514916	0.00072127	0.00106055
0.00107938	0.00151959	0.000743549	0.000628467	0.000837785	0.000586501	0.000790112	0.00117308
0.00154293	0.0016432	0.000703948	0.000573694	0.00078978	0.000595565	0.00121611	0.00153828
0.00268592	0.00190039	0.00070561	0.000558505	0.000766068	0.000569156	0.00216055	0.00190165
0.00410681	0.00210989	0.000684998	0.00059112	0.000611926	0.00067259	0.00268448	0.00263633
0.0048514	0.00243679	0.000706359	0.000623727	0.000595452	0.000938502	0.00374532	0.00319315
0.00533504	0.00203516	0.000678271	0.000687656	0.000586219	0.0012954	0.00630673	0.00515909
0.00623594	0.00211622	0.000655557	0.000737448	0.000592338	0.00171477	0.00773849	0.00629188
0.0062467	0.00202059	0.00069424	0.000763437	0.000617275	0.0023003	0.00876787	0.00649067
0.00592769	0.00210022	0.000706384	0.000777155	0.000611202	0.00265	0.0096777	0.00763759
