0.00547611	0.00513879	0.000800862	0.00277319	0.000666135	0.000729493	0.00508617	0.00373777
0.00536629	0.00620526	0.000788964	0.00288078	0.000687697	0.000812552	0.00552795	0.00471633
0.00515861	0.00698784	0.00076358	0.00303946	0.000682351	0.000856233	0.00582917	0.0053375
0.00490746	0.00760415	0.00074457	0.00308384	0.000694944	0.000864134	0.00599295	0.00561157
0.00461584	0.00808219	0.00074633	0.00312246	0.000673517	0.000894968	0.00613266	0.00573279
0.00461162	0.00808119	0.000725659	0.00327738	0.000672497	0.00100681	0.00658805	0.00603789
0.00484791	0.00796561	0.000725591	0.00336622	0.000662364	0.00110974	0.00690526	0.00628186
0.00462832	0.00785406	0.00073899	0.00342047	0.000674909	0.00117307	0.00702868	0.00638375
0.00420856	0.00783082	0.000737326	0.00337807	0.000667188	0.00122393	0.00695366	0.00647274
0.00360709	0.00775878	0.000748346	0.00321512	0.000678332	0.001221	0.00673659	0.00658539
0.00195762	0.00922976	0.00071963	0.00297844	0.000676404	0.0012996	0.0065416	0.0075192
0.00177684	0.0102934	0.00070232	0.00279834	0.000685601	0.00145397	0.00651302	0.0078294
0.00200658	0.0109651	0.000689574	0.00280915	0.000661061	0.00151111	0.00668098	0.00801343
0.00234991	0.0113549	0.000676552	0.00247658	0.000677898	0.00161463	0.00682554	0.00813543
0.00239319	0.012446	0.000687544	0.00217999	0.000687746	0.00166465	0.00669028	0.00835575
0.00246241	0.0128884	0.000684002	0.0020924	0.000694902	0.00196031	0.00621998	0.00842555
0.00270328	0.0129796	0.000674401	0.0019054	0.000679295	0.00230489	0.00515201	0.00839978
0.00275654	0.012999	0.000673899	0.0019205	0.000675643	0.00253798	0.00497125	0.00864049
0.00280126	0.012726	0.000667157	0.00195799	0.000689549	0.00266925	0.00478473	0.00882857
0.00322292	0.0144184	0.000639835	0.00191683	0.00070859	0.00313691	0.00488157	0.00834867
0.0034574	0.0157772	0.000635018	0.00193533	0.000710446	0.00331142	0.00494645	0.00818919
0.0037684	0.0162854	0.000636667	0.00193448	0.00071737	0.00340855	0.00498817	0.00789907
0.00477285	0.017046	0.000641463	0.00193639	0.000707186	0.00344051	0.00490041	0.00793673
0.00508165	0.0165115	0.000643182	0.00184583	0.000702487	0.00358752	0.00451302	0.00703581
0.00511258	0.0167583	0.000662905	0.00171355	0.000722803	0.00438854	0.00433025	0.00657412
0.00514176	0.0171024	0.00068072	0.00165872	0.000708202	0.00496661	0.00428979	0.00634882
0.00511358	0.0165986	0.00066609	0.00161686	0.000706902	0.00501018	0.00413614	0.00615101
0.006034	0.0170151	0.000663204	0.00150871	0.000709099	0.00499695	0.00373775	0.00587937
0.00665458	0.0188431	0.000655055	0.0013985	0.000692908	0.00493349	0.00335592	0.00563707
0.00679983	0.0197706	0.000642139	0.00134512	0.000673038	0.00487899	0.00324233	0.00555372
0.00696811	0.0210539	0.000655368	0.00131371	0.000668006	0.00482304	0.00313671	0.00542814
0.00698701	0.0216604	0.000625107	0.00130192	0.000664624	0.00486745	0.00306091	0.00532145
0.00707811	0.0207249	0.0006391	0.00128739	0.000669296	0.00495612	0.00295966	0.00448304
0.00705247	0.0193252	0.000643983	0.00123777	0.000646752	0.00487883	0.00262601	0.00416909
0.00695256	0.0185835	0.000650665	0.00118387	0.000657149	0.00487788	0.00240607	0.00395914
0.00686046	0.0182463	0.000656492	0.00108144	0.000647105	0.00479111	0.00184218	0.00383205
0.00693956	0.0175342	0.000658403	0.00099122	0.00065501	0.00474495	0.00159183	0.00336889
0.00810536	0.0192156	0.000667212	0.000922652	0.000659097	0.00449459	0.00145882	0.00298873
0.00834492	0.0194092	0.000653887	0.000932033	0.000678344	0.00413982	0.00144962	0.00282827
0.00829654	0.0200363	0.000654831	0.000848984	0.000685956	0.00391102	0.00145646	0.00254182
0.00827076	0.0223965	0.000656247	0.000761871	0.000684559	0.00382382	0.00144404	0.00212324
0.00785983	0.0225779	0.000673948	0.000743022	0.000667334	0.00340996	0.00127079	0.00197535
0.00759526	0.0215324	0.000668607	0.000735796	0.000674143	0.00327174	0.00119578	0.00197446
0.00782246	0.0213309	0.00067396	0.000717271	0.000660034	0.00309971	0.00116348	0.00185143
0.00670825	0.0213883	0.000680602	0.000699398	0.000664772	0.00309917	0.00111295	0.00176018
0.00691661	0.0227499	0.000670371	0.000690059	0.000643289	0.00304143	0.0010599	0.0015817
0.00839187	0.0226204	0.000673191	0.000631676	0.00061517	0.0022442	0.000901583	0.0013145
0.0087821	0.0219356	0.000651481	0.000567216	0.00063155	0.00164514	0.00079451	0.00129372
0.00889395	0.0218794	0.000655206	0.000548789	0.000630285	0.00162631	0.0007853	0.0012948
0.00831748	0.0217358	0.000651997	0.000551064	0.000614283	0.00158159	0.000785929	0.00128071
0.00709502	0.0205408	0.000658518	0.000530665	0.000609806	0.00158291	0.000770692	0.00127932
0.00672204	0.0197146	0.000665797	0.00052726	0.000627069	0.00158746	0.000770638	0.00127194
0.00657768	0.0193566	0.000676934	0.000528102	0.000639807	0.00157919	0.00076838	0.00125454
0.00658389	0.0196616	0.000705036	0.000526093	0.00065868	0.00156473	0.000753083	0.00126164
0.00678297	0.0204809	0.000707237	0.000507638	0.000648978	0.00142018	0.000760363	0.00123116
0.00717235	0.0220655	0.000698578	0.000498304	0.000650175	0.00128552	0.000759359	0.00115374
0.00732625	0.0225335	0.000702593	0.000520243	0.000655978	0.00124012	0.000754372	0.00113168
0.00701166	0.0221046	0.000701264	0.00051877	0.000675581	0.00121659	0.000754334	0.00112319
0.00678008	0.0216061	0.000693431	0.000520142	0.000665727	0.00120264	0.00074893	0.00119363
0.00557295	0.0195323	0.000693271	0.000518301	0.000658254	0.0011615	0.000751522	0.00122604
0.00495277	0.0190632	0.000701543	0.00050872	0.000632966	0.00113408	0.000749307	0.00125449
0.00490793	0.0186637	0.000712079	0.000520578	0.000638564	0.00114328	0.000731248	0.00126255
0.0048799	0.0164849	0.000726557	0.000507896	0.000623709	0.00112777	0.000729088	0.00126161
0.00486833	0.014699	0.000716517	0.000506305	0.000614968	0.00106079	0.000738358	0.00130288
0.00485994	0.0136575	0.000726776	0.000514141	0.0006104	0.00103912	0.000745065	0.00133206
0.00456281	0.013621	0.000725982	0.000518064	0.000623432	0.00105021	0.000788224	0.00134677
0.00442205	0.0124707	0.000718349	0.000522261	0.000620987	0.00100377	0.000777314	0.00124195
0.0037681	0.0106139	0.000717409	0.00053807	0.000630569	0.000964157	0.000785677	0.00119799
0.00246747	0.00940469	0.000731032	0.000531599	0.000638856	0.000927062	0.0007946	0.00120879
0.00181556	0.00990921	0.000737141	0.000534229	0.000623574	0.000853889	0.000811212	0.00139755
0.00164102	0.00999231	0.000751428	0.000540316	0.000632224	0.000819013	0.000871175	0.00148287
0.00157185	0.00999469	0.000749999	0.000541399	0.0006485	0.000761488	0.000939446	0.00148471
0.0015595	0.00975663	0.000745653	0.000542329	0.00064944	0.000747541	0.00097333	0.00146446
0.0015566	0.00911245	0.000752938	0.000546433	0.000638853	0.000746216	0.000973111	0.00147548
0.0015359	0.00851633	0.00072899	0.00056671	0.00062817	0.000738221	0.000976641	0.0014693
0.00148001	0.0073735	0.000704488	0.000580677	0.000612389	0.00076868	0.00098116	0.00147369
0.00121781	0.00642983	0.000693819	0.000632671	0.000604587	0.000831147	0.000975012	0.00147343
0.000837459	0.00463897	0.000697372	0.000694088	0.000599686	0.000833355	0.000956187	0.00148197
0.0005356	0.00402089	0.00070046	0.000692915	0.000608649	0.000820954	0.000953169	0.00145645
0.000492201	0.00391729	0.00068545	0.000706366	0.00061295	0.000887706	0.00096439	0.0015115
0.000483404	0.00386068	0.000684705	0.000704809	0.000599069	0.000915005	0.000955872	0.00153579
0.000473926	0.00389749	0.000686634	0.000699573	0.000603534	0.000949868	0.000961395	0.0014816
0.000486906	0.0038972	0.000681243	0.000714105	0.000604933	0.000962635	0.000982639	0.00144276
0.000495462	0.00392048	0.000676197	0.000738123	0.000589794	0.000961956	0.000977142	0.0014368
0.000504999	0.00395936	0.000655865	0.000769773	0.000596891	0.000952576	0.000975016	0.00159081
0.000513709	0.00399382	0.000652183	0.000789738	0.000596622	0.000953711	0.000962401	0.00185067
0.00051962	0.00391277	0.000663771	0.000778338	0.000604836	0.000972922	0.000955395	0.00193055
0.000504957	0.0033871	0.000660378	0.000774386	0.000588305	0.00100435	0.000906803	0.00184978
0.00052815	0.003304	0.000650518	0.000796103	0.000589902	0.00103618	0.000897092	0.00187615
0.000537223	0.00320299	0.000656162	0.00078557	0.000586685	0.00110372	0.000904182	0.00210866
0.000539587	0.0030276	0.000645472	0.000787765	0.000572186	0.00110638	0.000933553	0.00227703
0.000544432	0.00212555	0.000637025	0.000803209	0.000575235	0.0010992	0.000937284	0.00214467
0.000550067	0.00182719	0.00062002	0.000802802	0.000572617	0.00112381	0.000894126	0.0020933
0.00055227	0.0016736	0.000643515	0.000825428	0.00061236	0.00116002	0.000833177	0.00216331
0.000548461	0.0016063	0.000648133	0.000834262	0.000608644	0.00115541	0.000794743	0.0023048
0.000555939	0.00160984	0.000651064	0.000862885	0.000605391	0.00116019	0.000806773	0.00243435
0.000561741	0.00162927	0.000668809	0.000874365	0.000618464	0.00119114	0.000796086	0.00254471
0.000571626	0.00160667	0.000671705	0.000863461	0.000614647	0.00120504	0.000826001	0.00273416
0.000583805	0.00169244	0.000685896	0.000842467	0.000670695	0.00118857	0.000938229	0.0028149
0.000689427	0.00175929	0.000729363	0.000856352	0.000829918	0.00133679	0.00106389	0.00279735
0.000754204	0.00137689	0.000496148	0.000616886	0.000257493	0.000317549	0.00402418	0.00349704
0.000802865	0.0013457	0.000498521	0.000649737	0.000274809	0.000346703	0.0039648	0.00372058
0.000889542	0.00130188	0.00051543	0.00070184	0.000295806	0.000363705	0.00391701	0.00400713
0.00111451	0.00130565	0.000537388	0.000717854	0.000309809	0.000386278	0.00389172	0.00433798
0.00126872	0.00194941	0.000541417	0.000736809	0.000341373	0.000404931	0.00390032	0.00472064
0.00136611	0.0022172	0.000550055	0.000773688	0.00036044	0.000435237	0.00382219	0.00485437
0.0013927	0.0024433	0.000550235	0.000835939	0.000372747	0.000459828	0.00383554	0.00522104
0.00140012	0.00251193	0.000556625	0.000891747	0.000387768	0.000475632	0.00391642	0.00544944
0.00142308	0.00253554	0.000556693	0.000957107	0.000401646	0.000495574	0.00399559	0.00582225
0.00148903	0.00252473	0.00057023	0.00104043	0.000417292	0.000518422	0.00397372	0.00594417
0.00156325	0.00258736	0.000598305	0.00105983	0.000427659	0.00054213	0.00388159	0.00612359
0.0015902	0.00278104	0.000609728	0.001088	0.000443071	0.000570207	0.00385152	0.00657189
0.00159537	0.00341733	0.000628594	0.00113711	0.000470685	0.000610377	0.00401561	0.00683792
0.00159741	0.00390948	0.000637407	0.00115603	0.000495047	0.000637141	0.00396282	0.00699881
0.00165021	0.00401023	0.000637607	0.00115663	0.000507409	0.000646906	0.00394681	0.00719043
0.00173382	0.00405304	0.000642003	0.00113627	0.000508274	0.000660703	0.00393872	0.00744262
0.00174849	0.00405919	0.000633079	0.00111387	0.00051754	0.000654219	0.00389704	0.00738242
0.00178329	0.0040779	0.000630555	0.00109997	0.000519176	0.000645086	0.00400044	0.00726361
0.00197688	0.00407117	0.000639317	0.00108766	0.00051445	0.000654248	0.00396097	0.00713519
0.00202487	0.00407467	0.000629826	0.00105765	0.000507312	0.000646079	0.00387997	0.00703299
0.00196527	0.00407134	0.000646	0.00098895	0.000523058	0.000655513	0.00364779	0.00717319
0.00194196	0.00435073	0.000646673	0.000993794	0.000513193	0.000650642	0.00368264	0.00696393
0.00199246	0.00448896	0.000650619	0.00101905	0.000512422	0.000652676	0.00363638	0.00723253
0.00199364	0.00452758	0.000647639	0.00098898	0.000515559	0.000639496	0.00353101	0.0072637
0.00198452	0.00463229	0.000640683	0.000980577	0.000558744	0.000645446	0.00339632	0.00710635
0.00200486	0.00470364	0.000627978	0.000977524	0.000582787	0.000636614	0.00338628	0.00673175
0.00200152	0.00470806	0.000631549	0.00099268	0.000580728	0.000623174	0.00335093	0.00668221
0.00195065	0.0047129	0.000627922	0.00102755	0.000576745	0.000634387	0.00331469	0.00633644
0.00174739	0.00469033	0.000616763	0.00102037	0.000575397	0.000644053	0.00321969	0.00636428
0.00158935	0.00438	0.000625625	0.00106779	0.000562346	0.000647207	0.00315662	0.00610767
0.00146479	0.00372812	0.000629131	0.00106815	0.000563026	0.000649407	0.003134	0.00602228
0.00144798	0.00352246	0.000634363	0.00105405	0.000564464	0.000646818	0.00308677	0.00586932
0.00143858	0.00339638	0.000646487	0.0010119	0.000566678	0.000654415	0.00307369	0.00556829
0.00144698	0.00330025	0.000653215	0.0010486	0.000581245	0.000654658	0.00311977	0.00525249
0.00137576	0.00326416	0.000654852	0.0010094	0.000600908	0.000658682	0.00314654	0.00511081
0.00131755	0.00327812	0.000659057	0.00100124	0.000599311	0.00069058	0.0032118	0.00599279
0.00128269	0.00308278	0.000649905	0.000995872	0.000606765	0.000676109	0.00342586	0.00590522
0.00129976	0.00268328	0.000654424	0.000990503	0.000608606	0.000664628	0.00325012	0.0057849
0.00148139	0.00260024	0.000644548	0.00101414	0.00060056	0.000648927	0.00319248	0.00567387
0.00156725	0.00306269	0.000641818	0.00102243	0.000595199	0.000638362	0.00332427	0.0057803
0.00145811	0.00300392	0.000655785	0.00101942	0.000599324	0.000636627	0.00347056	0.00552343
0.00145334	0.00294762	0.000652858	0.00104703	0.000589309	0.00064792	0.00352531	0.005672
0.00145601	0.00292666	0.000646303	0.00105012	0.000591772	0.000649423	0.00347614	0.00567346
0.00123143	0.00289451	0.000646661	0.00109383	0.000596577	0.000643087	0.0034931	0.00554725
0.00115677	0.00289365	0.000646095	0.00111321	0.000614691	0.000648027	0.00363771	0.00567599
0.00112024	0.00290483	0.000647947	0.00113116	0.000613743	0.000639289	0.00361269	0.005765
0.00108096	0.00287561	0.00064349	0.00111507	0.000621298	0.000648357	0.0036223	0.00555154
0.00101303	0.00292545	0.000648672	0.00111488	0.000623403	0.000644789	0.00352335	0.00543211
0.00108595	0.00292004	0.000654586	0.00111	0.000625351	0.000649014	0.00354453	0.00541743
0.00111041	0.00283623	0.000659515	0.00120935	0.000601754	0.00063625	0.00378407	0.00611005
0.00114477	0.00281926	0.000661535	0.00120952	0.000577648	0.000641375	0.00377438	0.00644482
0.00113522	0.0028476	0.000675216	0.0012037	0.000579728	0.000643839	0.00380534	0.00637133
0.00125452	0.00285758	0.000680918	0.00117058	0.000580713	0.000638055	0.00384478	0.00635709
0.00138602	0.00288895	0.000706684	0.00113114	0.000578194	0.000636011	0.00387257	0.00653543
0.00151985	0.00288876	0.0006978	0.00110926	0.000568093	0.000628711	0.00389967	0.0063621
0.00153266	0.00287457	0.000699415	0.00109526	0.000562512	0.000617222	0.0039217	0.00629846
0.00153394	0.0028665	0.000702783	0.00108443	0.000555386	0.00062396	0.00398194	0.00632361
0.00152818	0.00286258	0.000699007	0.00111467	0.000564648	0.000634629	0.0039149	0.00647253
0.00152742	0.00286469	0.000703691	0.00106416	0.000563261	0.000634804	0.00371671	0.00676126
0.00152617	0.00287429	0.000691792	0.00113276	0.000541563	0.000630006	0.00374324	0.00685687
0.00152798	0.0028379	0.000687811	0.00118174	0.000548952	0.00059542	0.00373389	0.00653989
0.00151688	0.0027755	0.000686063	0.00120868	0.000546075	0.000605831	0.00354401	0.00605864
0.00151864	0.00344982	0.000689835	0.00119247	0.000540852	0.00060383	0.00352198	0.00620693
0.0014187	0.00352088	0.000689057	0.00119762	0.000530654	0.00060241	0.00344023	0.00655181
0.00125365	0.00287286	0.000694973	0.00116958	0.00052477	0.000593916	0.00335255	0.00650031
0.00130985	0.00266766	0.000675961	0.00119704	0.000557412	0.000590167	0.0032583	0.00669395
0.00133331	0.00268566	0.000665298	0.00120624	0.000562633	0.000601436	0.00324422	0.00685099
0.00132745	0.00272926	0.000682355	0.0012185	0.000565272	0.000610794	0.00334512	0.00721398
0.0013993	0.00272068	0.000678878	0.00120184	0.000557618	0.000620408	0.00345962	0.007449
0.00158069	0.00270912	0.000690261	0.00120669	0.000547195	0.000627586	0.00333724	0.007412
0.00161643	0.00269176	0.00069911	0.0012356	0.000552326	0.00063292	0.0033912	0.00711526
0.00162128	0.00259648	0.000683106	0.00123351	0.000546093	0.00062501	0.00336383	0.0071305
0.00164012	0.00231757	0.000695075	0.00122757	0.000535292	0.000622757	0.00332493	0.00726271
0.00156585	0.00218241	0.000691711	0.00123279	0.000537688	0.000622671	0.00331932	0.00762218
0.00153059	0.00218182	0.00070772	0.00117307	0.000544494	0.000610827	0.0032718	0.00738064
0.0015034	0.00214813	0.000725973	0.00117597	0.000530635	0.000631693	0.00337717	0.00682348
0.001435	0.00208185	0.000717863	0.00121701	0.000535318	0.000618849	0.00351642	0.00671247
0.00141315	0.00206357	0.000717366	0.00120068	0.000539425	0.000614434	0.00347937	0.00685715
0.00126331	0.00205025	0.000700247	0.00125022	0.000545749	0.000622665	0.00357697	0.00688682
0.00109533	0.00203839	0.000696038	0.0012937	0.000558782	0.000617025	0.0037316	0.00721729
0.00107261	0.00202998	0.000691035	0.00135826	0.000564153	0.000616763	0.00398934	0.00755209
0.00106909	0.00203374	0.000682448	0.00142621	0.00056997	0.000627463	0.00407943	0.00769709
0.00106742	0.00202229	0.00069555	0.00141186	0.000569262	0.000626041	0.00412272	0.00767906
0.00105886	0.00202008	0.000684983	0.00140363	0.000562125	0.000624216	0.00418529	0.00738435
0.00111367	0.00201994	0.000687408	0.00134432	0.000556824	0.000610744	0.00415217	0.00736978
0.0011837	0.00201839	0.000699488	0.00128086	0.000552303	0.000617897	0.00413908	0.00736616
0.00120011	0.0020272	0.000684779	0.00127048	0.000552988	0.000616018	0.00405121	0.00735615
0.00120452	0.00169254	0.000685026	0.00126465	0.000553465	0.000626118	0.00403123	0.00731265
0.0011865	0.000977498	0.000678229	0.00125662	0.000545101	0.000634779	0.00418053	0.00697407
0.00117167	0.000886721	0.000667336	0.00128193	0.000545903	0.000630705	0.00425669	0.00668897
0.00119101	0.000808534	0.000675862	0.00126695	0.000527345	0.000626107	0.00417554	0.00644316
0.00138195	0.000790275	0.000682046	0.00123832	0.000510239	0.000626526	0.00412641	0.0063255
0.00147505	0.000740383	0.000678282	0.00126593	0.000515804	0.000603246	0.00434628	0.00614385
0.00148446	0.000743233	0.000683879	0.00133045	0.000525846	0.000606042	0.00440133	0.00590013
0.00132656	0.000747865	0.000677464	0.00132337	0.000535562	0.000606294	0.00448558	0.00591707
0.00131025	0.000760031	0.000680197	0.00128131	0.000540058	0.000611245	0.00439211	0.0060519
0.00128704	0.000768815	0.000686979	0.00128053	0.000539332	0.000609911	0.00439444	0.00612872
0.0012858	0.000774304	0.000675054	0.00136187	0.000546736	0.00061372	0.00463111	0.00593236
0.00127397	0.00075425	0.000663006	0.00143189	0.00054825	0.000615672	0.00477408	0.00555205
0.00129214	0.000758769	0.000656165	0.00144181	0.000547298	0.000620357	0.00464783	0.00551224
0.00661729	0.015907	0.000776615	0.00178458	0.000611508	0.00263952	0.00353706	0.00236173
0.00666117	0.015676	0.000772695	0.00182015	0.000607185	0.00294336	0.00378425	0.00252732
0.0068657	0.0153892	0.000776723	0.0019428	0.000604141	0.00307901	0.00413467	0.00257176
0.00664095	0.0152075	0.000779064	0.00199646	0.000625667	0.0031186	0.00424675	0.00272624
0.00647026	0.016929	0.000785679	0.00197041	0.000641622	0.00316484	0.00410398	0.00269163
0.00552895	0.0177301	0.00078654	0.00194173	0.0006424	0.00326784	0.00402904	0.00268862
0.00524887	0.0180779	0.000786018	0.00191338	0.000657824	0.00353384	0.00396378	0.00266258
0.0050565	0.0189135	0.000787745	0.00191591	0.000658873	0.00364673	0.00384386	0.00260347
0.00371463	0.0187708	0.000762515	0.00190446	0.000652224	0.0037233	0.00366101	0.00248942
0.00314559	0.0183021	0.000760569	0.00179523	0.000647867	0.00376293	0.00365704	0.00242438
0.00299158	0.0190781	0.000775937	0.00171218	0.000652623	0.00377739	0.003647	0.00242882
0.00382595	0.0182747	0.000786413	0.00168152	0.000654768	0.00384612	0.00359657	0.00242587
0.00425091	0.0177736	0.000787131	0.00166022	0.000665435	0.00381138	0.00368262	0.00252654
0.00463308	0.0176966	0.000788873	0.00166177	0.000668416	0.00383904	0.00367683	0.00254295
0.00484858	0.0176737	0.000791557	0.00168718	0.000678965	0.00393223	0.00368538	0.00279698
0.00515107	0.0174681	0.000791015	0.00166517	0.000680141	0.00432611	0.00373029	0.00322935
0.0055549	0.0175092	0.000807781	0.00166822	0.000682235	0.00453587	0.0036568	0.00325684
0.00606944	0.017573	0.000818046	0.00161328	0.000682724	0.00461937	0.00363414	0.00333077
0.0064228	0.017623	0.000833522	0.00158724	0.000686259	0.00474678	0.00360863	0.00339699
0.00670177	0.0169256	0.00084564	0.00156802	0.00067565	0.00459776	0.0035531	0.00342244
0.00674261	0.0163814	0.000847157	0.00154813	0.000682223	0.00457398	0.00351145	0.00345854
0.00666466	0.0162254	0.000846286	0.00153945	0.000679073	0.00460944	0.00347697	0.00355558
0.00664695	0.0160054	0.000832828	0.00159311	0.000675612	0.00473989	0.00346745	0.00358519
0.00658935	0.0155239	0.000812773	0.00161493	0.000686728	0.00492602	0.00341503	0.00374928
0.00653917	0.0151534	0.000803945	0.00161679	0.000692739	0.0050547	0.00338122	0.00392653
0.00648797	0.0151682	0.000807143	0.0015985	0.000694266	0.00502605	0.00331961	0.0039156
0.00626477	0.0151986	0.000805332	0.00157249	0.000707143	0.00497664	0.00311936	0.00383979
0.00612692	0.0155727	0.000808422	0.00152138	0.000697693	0.00492907	0.00295056	0.00391795
0.00623696	0.0166871	0.000811202	0.00144303	0.000701465	0.00477995	0.00271314	0.00401817
0.00632103	0.0180013	0.000795218	0.00146554	0.00069971	0.00463022	0.00268523	0.00400044
0.00633805	0.0197098	0.000791177	0.00155221	0.00070721	0.00455215	0.00265493	0.00381047
0.00598119	0.0203103	0.000799118	0.0015191	0.0006992	0.00464895	0.00217591	0.00359051
0.00573374	0.0203179	0.000799409	0.00134523	0.000703143	0.00478491	0.00187994	0.00356229
0.00586491	0.018924	0.000796407	0.00125306	0.000672249	0.00486923	0.00172841	0.00337619
0.00600736	0.0172089	0.000795462	0.00122694	0.000657075	0.00487773	0.00171905	0.00331627
0.00589474	0.0167526	0.000795404	0.00123287	0.000663418	0.00488133	0.00171494	0.00334235
0.00584516	0.0162123	0.000789581	0.00127129	0.000635012	0.00477366	0.00171909	0.00331812
0.00597873	0.0154991	0.000788194	0.00131246	0.000625966	0.00471851	0.00172936	0.00330531
0.00602335	0.0153284	0.000776093	0.00131513	0.000635022	0.00478137	0.00174964	0.00330492
0.00614417	0.0151947	0.00076773	0.00131098	0.000626093	0.00480671	0.00159716	0.00331424
0.0059443	0.0139886	0.000769893	0.00132148	0.000621856	0.0047833	0.00154796	0.00334434
0.00509146	0.0137295	0.000746092	0.00136428	0.000622575	0.00474201	0.0014389	0.00331172
0.0051707	0.0137508	0.00073809	0.00136079	0.000615576	0.00480633	0.00133148	0.00321958
0.00508134	0.0151011	0.000750997	0.00133962	0.000613879	0.00494119	0.00133946	0.0032198
0.00501969	0.0159708	0.000748136	0.00131541	0.00060639	0.00481272	0.0013093	0.00295488
0.00543528	0.0161966	0.000744923	0.00132151	0.000613186	0.00475037	0.0012666	0.00261658
0.00544531	0.0157159	0.000746915	0.00131262	0.000604553	0.00472101	0.00121198	0.00268206
0.00556245	0.0163741	0.000734499	0.00125872	0.000610066	0.00462108	0.00108567	0.00263476
0.00552736	0.0174601	0.00072605	0.00122328	0.00060837	0.00446648	0.00101338	0.00254745
0.0053971	0.0181346	0.000725348	0.00122426	0.00061127	0.00451932	0.000982964	0.00252859
0.0054875	0.0176649	0.00075121	0.00126434	0.000609136	0.00457441	0.00098179	0.00253751
0.00625027	0.0179191	0.000744266	0.00139259	0.000622607	0.00471144	0.000976679	0.0024755
0.00697534	0.0179782	0.000759868	0.0013863	0.000625654	0.00472261	0.000979042	0.00240503
0.0072457	0.0190865	0.0007734	0.00137651	0.000615271	0.00460228	0.000978166	0.0022817
0.00753576	0.0202721	0.000761464	0.00141148	0.000615658	0.00469862	0.000975675	0.00217281
0.00773529	0.0212217	0.000766006	0.00145608	0.00061585	0.00467118	0.000976544	0.00219164
0.00820207	0.0218216	0.00077154	0.00147557	0.000623051	0.00473013	0.000908519	0.00211923
0.00925784	0.0218151	0.000756564	0.00147998	0.000639575	0.00482715	0.000855483	0.00204402
0.0108378	0.0205776	0.000771251	0.00147755	0.000658722	0.00521803	0.000816584	0.00189017
0.0114136	0.0208764	0.000773164	0.00141747	0.00066356	0.00541044	0.000763501	0.00182633
0.0117266	0.020719	0.000786728	0.00134006	0.000675343	0.00537433	0.000705932	0.00179455
0.0117229	0.0216171	0.000792562	0.00130409	0.000672413	0.00502883	0.000718031	0.00181025
0.011812	0.0227936	0.000845672	0.00127722	0.00069551	0.00484642	0.000698498	0.00179136
0.0116562	0.0237997	0.000858388	0.00126923	0.000706325	0.004819	0.000687126	0.00179566
0.0117709	0.0242933	0.000873307	0.00125882	0.000698495	0.00476197	0.000727772	0.00179078
0.0135203	0.0245195	0.000893566	0.00124222	0.000711454	0.0046926	0.000812879	0.0017258
0.0141516	0.0254737	0.000930684	0.00123101	0.000752877	0.00462082	0.000841825	0.00169484
0.0141218	0.0261869	0.000942847	0.00119721	0.000768477	0.00459935	0.000814945	0.00173195
0.0151986	0.0271549	0.00095727	0.00120349	0.000787499	0.00453069	0.000810887	0.00182071
0.0153808	0.027374	0.000973058	0.00124861	0.000788337	0.00448623	0.000826383	0.00190755
0.01557	0.0274831	0.000974383	0.00124778	0.000802149	0.00448649	0.000838156	0.0020126
0.0154695	0.0275638	0.0010361	0.00125967	0.000828016	0.0044992	0.000939062	0.00203656
0.0151	0.0270782	0.0010833	0.00131783	0.000841109	0.00442712	0.00130308	0.002093
0.0149573	0.0256867	0.0011208	0.00137291	0.000873157	0.00430721	0.0014815	0.00208898
0.0146628	0.0245223	0.00112718	0.00136114	0.000864251	0.0041311	0.00151787	0.0020897
0.013872	0.024117	0.00114153	0.00144161	0.000854785	0.00385018	0.00152522	0.00194855
0.0130533	0.0240885	0.00113938	0.00140809	0.000857243	0.00369843	0.00158835	0.00195253
0.0126649	0.0224169	0.00114192	0.00162248	0.000847611	0.00344734	0.00176968	0.00222161
0.0123328	0.0219529	0.00116025	0.00172977	0.000854234	0.00339891	0.00207569	0.00252044
0.0122608	0.0206954	0.001206	0.0018045	0.000851134	0.00335365	0.00221016	0.00264889
0.0120741	0.0200207	0.001223	0.00188884	0.000848646	0.00320682	0.00232045	0.00264329
0.0109055	0.0193481	0.00125139	0.00191337	0.0009716	0.00292851	0.00246439	0.00283131
0.0105541	0.0189138	0.00125292	0.00194005	0.0011756	0.00283181	0.00262211	0.00285846
0.0102449	0.0175196	0.00129432	0.00220265	0.00121704	0.00262153	0.00288983	0.00280536
0.0100954	0.0165638	0.00131836	0.00370972	0.0012925	0.00243811	0.00322762	0.00278009
0.00957797	0.01543	0.00133019	0.00433958	0.00127912	0.00236007	0.00346949	0.0027886
0.00915371	0.0149473	0.00133732	0.00442612	0.00126887	0.00222654	0.00352958	0.00280613
0.00752913	0.0141727	0.00133518	0.00445475	0.00125592	0.00198453	0.00354072	0.00281544
0.00640483	0.0129842	0.00131825	0.0044889	0.00123215	0.00171703	0.00354317	0.00286832
0.00561655	0.0118923	0.00132493	0.00447615	0.00128087	0.00142952	0.00358336	0.00312086
0.00544437	0.0103212	0.00147341	0.00449258	0.00144855	0.00135441	0.00357626	0.00320159
0.00543383	0.00910201	0.00253522	0.00452171	0.00153053	0.00132769	0.00358423	0.00335969
0.00532018	0.0077681	0.00292496	0.00457363	0.00156994	0.00132291	0.00359251	0.00337606
0.00511475	0.00681102	0.00303825	0.0046442	0.00158098	0.00128689	0.003609	0.00342062
0.00459728	0.00660493	0.00308605	0.00476715	0.00159069	0.00122063	0.00359235	0.00353422
0.00315824	0.00609118	0.00306335	0.00480843	0.00157175	0.00120853	0.00354748	0.00357455
0.00257997	0.00497587	0.00305552	0.00481052	0.00155428	0.00113943	0.00352436	0.0037858
0.00228571	0.00367005	0.00305657	0.00482631	0.00153812	0.00109947	0.00355999	0.00399661
0.00129761	0.00292318	0.00304654	0.00486932	0.00154995	0.00107364	0.00366717	0.00401559
0.00112766	0.00285359	0.00304844	0.00489174	0.00155282	0.00110298	0.00375179	0.00393189
0.000754204	0.00137689	0.000496148	0.000616886	0.000257493	0.000317549	0.00402418	0.00349704
0.000832357	0.00132915	0.000507792	0.00065516	0.00028002	0.000353441	0.0039346	0.00384368
0.00107663	0.00128557	0.000532568	0.000715372	0.000304494	0.000381395	0.00392749	0.00421302
0.00126969	0.00199298	0.000541286	0.000739284	0.000341631	0.000406928	0.00390236	0.00473254
0.00138033	0.0022987	0.000551253	0.00079541	0.000367804	0.000443026	0.00378618	0.00495496
0.00139905	0.00248227	0.000551467	0.000878743	0.000386408	0.000470397	0.00391313	0.0053991
0.0014257	0.00253243	0.000556256	0.000958696	0.000401626	0.00049914	0.00399929	0.00583471
0.00150853	0.00251307	0.000580374	0.00104799	0.000419792	0.000524306	0.00393989	0.00595404
0.00158673	0.00277445	0.000611059	0.00108434	0.000434343	0.000566993	0.00384776	0.00645639
0.0015947	0.00356444	0.000628618	0.0011378	0.000472372	0.000615282	0.00400584	0.00685929
0.00159293	0.00393474	0.000634266	0.0011617	0.000496527	0.000643444	0.00396749	0.0070182
0.00172456	0.00402729	0.000640511	0.00113894	0.000503456	0.000660302	0.00393559	0.00743559
0.00174706	0.00405464	0.000631347	0.00110734	0.000518456	0.000651287	0.00391868	0.00735991
0.00191684	0.00408487	0.000637513	0.00109762	0.00052336	0.000654719	0.00397416	0.00725535
0.00201986	0.0040712	0.000631156	0.00105771	0.000506645	0.000644629	0.00394302	0.0070225
0.00194203	0.00412274	0.000648804	0.000999659	0.000523277	0.000653713	0.0036243	0.00714245
0.0019873	0.00441523	0.000640034	0.0010055	0.000519293	0.000653433	0.00363016	0.00714827
0.00199453	0.00452678	0.000649317	0.000996376	0.000514627	0.000638705	0.00353735	0.00728701
0.00198131	0.00463895	0.000642108	0.000976469	0.000567375	0.00064605	0.0034078	0.0070484
0.00200444	0.00471442	0.000629494	0.000980324	0.00058973	0.000629677	0.00336082	0.00671539
0.00194776	0.00471578	0.00062638	0.0010262	0.000578319	0.000632065	0.00333162	0.00636149
0.00171255	0.00467961	0.000626278	0.00104024	0.000576194	0.00064747	0.00322138	0.00635972
0.00150103	0.00383184	0.000629122	0.00106461	0.000565289	0.000653501	0.00312725	0.00604537
0.00144809	0.0035448	0.000634459	0.00105537	0.000564364	0.000649971	0.00310519	0.00590793
0.00144134	0.00335301	0.000645267	0.00102892	0.000568652	0.000659517	0.00319044	0.00550259
0.00140658	0.00328529	0.000664158	0.00104651	0.000599139	0.00065969	0.00312028	0.00512212
0.00132336	0.00328088	0.000658394	0.00100274	0.000599234	0.000691258	0.00319947	0.00596602
0.00127482	0.0030646	0.000655085	0.00100148	0.000602264	0.000674999	0.00339707	0.0058566
0.00137091	0.00235579	0.000654564	0.000997229	0.000605519	0.000646054	0.0032213	0.00569952
0.00156725	0.00306269	0.000641818	0.00102243	0.000595199	0.000638362	0.00332427	0.0057803
0.00145082	0.00296558	0.000650911	0.00104908	0.000598489	0.000638125	0.0035107	0.00555099
0.00146004	0.00292508	0.000648777	0.00104591	0.000587452	0.00064878	0.00353046	0.0057074
0.00122953	0.00289565	0.000647505	0.00109579	0.000596419	0.000644069	0.00348947	0.00554722
0.00114895	0.00289722	0.000642049	0.00112404	0.000612646	0.000639487	0.00364545	0.00576418
0.00110114	0.00289127	0.000643092	0.00111399	0.000613287	0.00064727	0.00361763	0.00562472
0.00102818	0.0029248	0.000647334	0.00111486	0.000623231	0.000643776	0.00351478	0.00542483
0.00109416	0.0029049	0.000659777	0.00115103	0.000622453	0.000646136	0.00361073	0.00567379
0.00113267	0.0028252	0.000659159	0.00121329	0.000582411	0.000631657	0.00377398	0.00633605
0.00112598	0.00284634	0.00067292	0.0012017	0.000579694	0.000643599	0.0038242	0.00636756
0.00131612	0.0028764	0.000698099	0.00114209	0.000583151	0.000636871	0.0038732	0.00649188
0.0015165	0.00289829	0.000693809	0.00111052	0.000569577	0.000626354	0.0038858	0.00636078
0.00153354	0.0028748	0.000700182	0.00109328	0.000561875	0.00061766	0.00393407	0.00631742
0.00153109	0.00286068	0.000698849	0.00109802	0.000564963	0.000635917	0.00400016	0.00632467
0.00152822	0.00286612	0.000702445	0.00106269	0.000563067	0.000627191	0.00370806	0.00675905
0.00152304	0.00287529	0.000689813	0.00114968	0.000538022	0.000626587	0.00372758	0.00688318
0.00152483	0.00279379	0.000684789	0.00118605	0.000543624	0.000597272	0.00366888	0.00618464
0.00152001	0.00326292	0.000683994	0.00119771	0.000543286	0.000603953	0.00352863	0.00614077
0.00134646	0.00329603	0.000695229	0.00119534	0.000524635	0.0006001	0.00344469	0.00662958
0.00126918	0.00269632	0.000686743	0.00118018	0.000551402	0.000592341	0.00328167	0.00665866
0.00132867	0.00268919	0.000668943	0.00120122	0.000564005	0.000597428	0.00322414	0.00684331
0.00133092	0.00272421	0.000685751	0.00121708	0.000564314	0.000616343	0.00342518	0.00733898
0.00152399	0.00270598	0.000685436	0.00118089	0.000554571	0.000627859	0.00336725	0.00745003
0.00161275	0.00269271	0.000700174	0.00123599	0.000551664	0.000632908	0.00337485	0.00712753
0.00163169	0.00253638	0.000688279	0.00123276	0.000538095	0.000624472	0.00336808	0.0071491
0.0015931	0.0022025	0.000696196	0.00122018	0.00053838	0.00062521	0.00331838	0.00747146
0.00153135	0.00218102	0.000705837	0.00118008	0.000544164	0.00060947	0.00328511	0.00740713
0.00148634	0.0021295	0.000730457	0.00118276	0.000532515	0.00061344	0.00347543	0.00675116
0.00147075	0.00206816	0.000718871	0.00120748	0.000545553	0.000611706	0.00345222	0.00683712
0.00126362	0.00205022	0.000700319	0.00125011	0.000545751	0.000622683	0.00357697	0.00688791
0.00108294	0.00203305	0.0006924	0.0013317	0.00055818	0.000615683	0.00385823	0.00729123
0.00107417	0.00203364	0.000686891	0.00139843	0.000565497	0.000627431	0.00409044	0.00761442
0.00106757	0.00202176	0.000695778	0.00141339	0.000568652	0.000625852	0.00411786	0.00766295
0.00106273	0.0020265	0.000688365	0.00139236	0.000558254	0.000615277	0.00422759	0.00737344
0.00116815	0.00201828	0.000700259	0.00130112	0.000557324	0.00061914	0.00415229	0.00732399
0.00120342	0.00202841	0.000682934	0.00126789	0.000553612	0.000616194	0.00405708	0.00736198
0.00120054	0.00119354	0.000686365	0.00126728	0.00055066	0.00062864	0.00407942	0.00711401
0.00118028	0.00093455	0.000670573	0.00127805	0.000546555	0.000628974	0.00424792	0.00669122
0.0012198	0.000811559	0.000674321	0.00126261	0.000521853	0.000626203	0.00416552	0.00644198
0.00141319	0.000777778	0.000689889	0.00123925	0.00051046	0.000602111	0.00417185	0.0062875
0.00148506	0.000740687	0.000682574	0.00134125	0.000519143	0.000604237	0.00440584	0.00589917
0.00130971	0.000749704	0.000677358	0.00132135	0.000535233	0.000614053	0.004471	0.00595383
0.00128772	0.000764062	0.000686324	0.00126836	0.000534434	0.000606225	0.00431844	0.00613191
0.0012813	0.000769421	0.000670574	0.00134425	0.000544319	0.000615508	0.00461994	0.00594163
0.00127723	0.000759689	0.000660718	0.00143006	0.000549182	0.000617154	0.00477897	0.00546528
0.00129848	0.000752121	0.00064426	0.00143955	0.000544762	0.000624229	0.00453839	0.00548714
0.00128971	0.000764471	0.000617373	0.00139848	0.000542277	0.000619711	0.00433926	0.00528471
0.00131531	0.000770087	0.000628708	0.00139434	0.000546032	0.000621465	0.00435493	0.00514962
0.00141958	0.000753616	0.000616011	0.00135215	0.000549581	0.000617082	0.00429148	0.00518954
0.00141977	0.00075991	0.000619951	0.00128416	0.000559805	0.000624692	0.00404092	0.0048989
0.00150366	0.000998963	0.000625613	0.00130853	0.000557112	0.000609866	0.00390417	0.0047616
0.00153515	0.00123018	0.000621194	0.00136174	0.000557024	0.000596745	0.00396907	0.0048243
0.00158778	0.00125913	0.000633077	0.00141245	0.000582737	0.000594668	0.00398138	0.00496822
0.0017451	0.00125225	0.000636158	0.00140971	0.000584342	0.000597495	0.00407109	0.00519098
0.00181002	0.00127252	0.000648001	0.00144458	0.000583092	0.000596017	0.00438999	0.00539642
0.00187629	0.00127767	0.000646126	0.00148228	0.000595663	0.00057525	0.00452245	0.00558529
0.0019341	0.00120842	0.000650834	0.00145927	0.000596513	0.000576193	0.00449076	0.00556878
0.00185491	0.00118452	0.000639546	0.00147334	0.000595618	0.000584691	0.00448876	0.00560493
0.00168141	0.0012048	0.000624658	0.0014404	0.000605436	0.000587574	0.00431966	0.00564642
0.00167986	0.00122236	0.000628688	0.00140441	0.00060268	0.000580706	0.00391013	0.00571272
0.00161347	0.00121637	0.000617436	0.00137203	0.000597227	0.000569705	0.0038775	0.00601764
0.00159435	0.00120855	0.000625149	0.00138393	0.000591254	0.000578084	0.00398258	0.00604727
0.00160081	0.00122243	0.000642679	0.00139011	0.000585843	0.000574058	0.00403475	0.00606234
0.00159808	0.00135517	0.00067165	0.0013445	0.000596914	0.000585089	0.00420661	0.00621251
0.0015875	0.0016333	0.000682629	0.00133749	0.000582771	0.000579158	0.00428871	0.00639533
0.00163888	0.00165608	0.000683223	0.00135401	0.000585319	0.000568574	0.00432281	0.00691299
0.00167008	0.00164774	0.000682625	0.00135556	0.000587532	0.000563452	0.00424979	0.00701178
0.00174848	0.00164561	0.00067687	0.00135959	0.000591709	0.000546411	0.00433741	0.0068935
0.00186005	0.00162733	0.000679712	0.00142656	0.000583088	0.000549092	0.00482304	0.00676704
0.00178968	0.00136957	0.000666665	0.00135161	0.00059024	0.000534803	0.00479588	0.00664209
0.00176518	0.0011612	0.000662951	0.00138257	0.000588394	0.000549704	0.00466466	0.00646706
0.00385159	0.00457923	0.00116872	0.001926	0.000769227	0.00105574	0.00250236	0.00151942
0.00373195	0.00635969	0.000939519	0.00193899	0.000763828	0.00109293	0.00251767	0.0018783
0.00366186	0.00732125	0.000886522	0.0019467	0.00070121	0.00114052	0.00253065	0.00206383
0.00365967	0.00820145	0.000731134	0.00194382	0.000562374	0.00115376	0.00250111	0.00212923
0.0034538	0.00832251	0.000723556	0.00196795	0.000546963	0.00117171	0.00269202	0.00237738
0.00313254	0.00831482	0.000719339	0.00197803	0.00053676	0.00119205	0.00290675	0.00256859
0.00325805	0.00857545	0.00070486	0.00202494	0.000546743	0.00118723	0.00310219	0.00259041
0.00325207	0.00847473	0.000699566	0.00204459	0.000534306	0.00118672	0.00328316	0.00277066
0.00288378	0.00843521	0.000698092	0.00205464	0.000545311	0.00116745	0.00340748	0.00282014
0.00258115	0.00930695	0.000700483	0.0019504	0.000544674	0.00115692	0.00347379	0.00282139
0.00244882	0.00952443	0.000702525	0.00168289	0.000550058	0.00126155	0.00287819	0.00276791
0.00242776	0.00886624	0.000717146	0.00137217	0.000576905	0.00127164	0.00255285	0.00266207
0.00244448	0.00925406	0.000708141	0.0012282	0.000563717	0.00114265	0.00249436	0.00255101
0.00252482	0.00973724	0.000700218	0.0010582	0.000555982	0.00110175	0.00264678	0.00251365
0.00256505	0.0100827	0.000674701	0.000965213	0.00056163	0.00110286	0.00266254	0.00247083
0.00269735	0.01115	0.000659206	0.000930825	0.0005614	0.00113443	0.00276489	0.00246575
0.00269967	0.0113222	0.000668186	0.000990177	0.000576824	0.00111651	0.00285316	0.00242625
0.00272401	0.0116309	0.000662792	0.000977692	0.000578733	0.00112564	0.00272552	0.0023849
0.00271203	0.0117457	0.000664537	0.00093837	0.000592952	0.00110837	0.00267673	0.00235911
0.00270792	0.0119369	0.000683974	0.000898791	0.000583575	0.00107688	0.00257875	0.00233088
0.00282711	0.0118694	0.000676204	0.000902973	0.000588736	0.00103311	0.0025524	0.00195294
0.00311745	0.0112055	0.000680272	0.000982092	0.000577675	0.000996607	0.00259471	0.00176123
0.00316456	0.0104914	0.000675378	0.00101661	0.000566855	0.00100509	0.00263927	0.00176766
0.00331259	0.0105632	0.000682374	0.00105644	0.000568504	0.00100739	0.00244699	0.00155315
0.00335597	0.0106167	0.000680949	0.00111857	0.000569961	0.000984972	0.00226625	0.00142111
0.00315835	0.0107835	0.000690562	0.00110501	0.000554426	0.000963645	0.00208996	0.0014985
0.00268525	0.0109627	0.000693458	0.00109278	0.00056851	0.000964226	0.00197721	0.00183578
0.00224278	0.0112184	0.0006686	0.00105417	0.000566122	0.000951987	0.00187055	0.00202086
0.00220871	0.0109413	0.000658742	0.00103065	0.00057018	0.000954825	0.00178885	0.00224799
0.0022875	0.0119132	0.00066021	0.00103436	0.000577451	0.000856623	0.00164339	0.00238082
0.00253343	0.0124691	0.000670889	0.00101989	0.00055445	0.000855268	0.00153091	0.00251232
0.00279488	0.011704	0.000666319	0.001015	0.000567628	0.000817975	0.0014714	0.00254225
0.00281836	0.0112187	0.000658815	0.00102557	0.000576391	0.000810497	0.00125802	0.00253017
0.00280563	0.0111741	0.000664951	0.00101336	0.000568783	0.000803677	0.00121642	0.00247933
0.00271822	0.0103406	0.000683442	0.000988719	0.000589576	0.000792567	0.00110885	0.00227821
0.00278778	0.0109935	0.000680314	0.00093543	0.000599939	0.000817229	0.00099888	0.00223339
0.0026037	0.0108243	0.000684545	0.000926296	0.000608412	0.000832017	0.00100467	0.00222252
0.00234797	0.0103916	0.000662236	0.000896618	0.000603473	0.00084689	0.0010463	0.00225215
0.00230479	0.00988737	0.000661177	0.000880027	0.000607037	0.000957406	0.00122966	0.00228663
0.00246277	0.00831625	0.000693388	0.000920543	0.000655976	0.00104617	0.00145574	0.00238001
0.00247662	0.00837435	0.000752177	0.000933624	0.000766332	0.00113177	0.0016653	0.0024367
0.00289645	0.0102616	0.000800239	0.000956136	0.000787959	0.00127339	0.00180815	0.00237803
0.00293532	0.010762	0.00080436	0.000892748	0.000843179	0.00128848	0.00202071	0.00233552
0.00289106	0.0121001	0.00082435	0.000833308	0.000853134	0.00130848	0.00202311	0.00228992
0.00327381	0.0129153	0.000864322	0.000799834	0.000868083	0.00143967	0.00202956	0.00217762
0.00423504	0.014447	0.000899729	0.000789924	0.000882979	0.00158649	0.00205504	0.00169612
0.00470157	0.0135736	0.000948697	0.000789377	0.000909027	0.00159647	0.00230661	0.00148933
0.00483334	0.0137866	0.00098961	0.000799466	0.000904906	0.00160549	0.00240583	0.00127275
0.00504334	0.0146685	0.000998618	0.000803522	0.000936593	0.00164584	0.00244966	0.00114653
0.00540931	0.0152169	0.000982397	0.000807888	0.000942553	0.00163885	0.00258094	0.00103718
0.0053321	0.015422	0.000982456	0.000810563	0.000934957	0.00165995	0.00263384	0.00102245
0.00537951	0.015485	0.00100321	0.000807911	0.000948704	0.00164003	0.00271521	0.00105913
0.00539072	0.0162008	0.0010065	0.000820744	0.000949518	0.00166197	0.00272982	0.00111434
0.0053283	0.0174736	0.000990105	0.000829156	0.000921748	0.00170022	0.00269084	0.00119626
0.0052266	0.0182667	0.000982831	0.000798971	0.000917995	0.00182468	0.00268719	0.0012902
0.00541154	0.0197615	0.00096575	0.000797323	0.00090999	0.00193622	0.00270346	0.00134393
0.00569476	0.0202952	0.000982132	0.000803099	0.000913346	0.00193772	0.00267147	0.00142075
0.00619115	0.0205997	0.000989414	0.000803592	0.000899596	0.00186068	0.00273043	0.00142191
0.00620381	0.0206924	0.000957675	0.000746859	0.00083603	0.0017782	0.00275529	0.00133714
0.00716533	0.021412	0.000885666	0.000647754	0.000727501	0.00172266	0.00255714	0.0012782
0.00699329	0.020067	0.000829888	0.000583179	0.000712038	0.00155833	0.00236949	0.00127428
0.00697311	0.0204691	0.000811714	0.000581884	0.000653717	0.00152178	0.00214334	0.00129108
0.00702712	0.020492	0.000795183	0.000576381	0.000663426	0.0015222	0.00210953	0.00126665
0.00665406	0.0199913	0.000757886	0.00057112	0.000651934	0.00142019	0.00209311	0.00129286
0.00586357	0.0203155	0.000719189	0.000561985	0.000645388	0.00127001	0.00197152	0.00137283
0.00588009	0.0205055	0.000675481	0.000573475	0.000630574	0.0013007	0.00166373	0.00141974
0.00639361	0.020393	0.000639957	0.000556971	0.000647933	0.00132052	0.00156457	0.00141202
0.00696942	0.0202645	0.000630425	0.00056073	0.000642628	0.00145466	0.00154647	0.00142135
0.00656084	0.0197996	0.000635837	0.000542075	0.000641567	0.00150436	0.00140719	0.0014375
0.00649118	0.0201592	0.000639399	0.00053891	0.000664862	0.00152817	0.00135803	0.00142101
0.0063658	0.0201934	0.000660277	0.000531001	0.000694559	0.0015352	0.0012565	0.00139737
0.00630394	0.0227713	0.000697377	0.00053537	0.00071739	0.00152232	0.00119262	0.00136134
0.00630338	0.0227398	0.000713065	0.000531473	0.000725569	0.00148972	0.00119453	0.00129325
0.00628209	0.0220079	0.00074268	0.000540769	0.00076179	0.00138426	0.00119222	0.00129022
0.00624045	0.0210035	0.000768974	0.000552439	0.000788568	0.00123817	0.00116937	0.00124994
0.00589666	0.0204678	0.00080932	0.000557472	0.000803809	0.00122431	0.00118724	0.00115512
0.00539951	0.0206874	0.000843747	0.000563599	0.000838532	0.00120791	0.00100391	0.00112339
0.00512329	0.0209869	0.000853489	0.000578565	0.00085093	0.00120254	0.000815315	0.00112652
0.00386731	0.0206755	0.000868068	0.000600177	0.000857178	0.0011738	0.000825056	0.00113304
0.00358001	0.0200874	0.00087977	0.000682342	0.000881455	0.00118462	0.000959801	0.00110879
0.0034137	0.0189817	0.000913512	0.000751933	0.000902674	0.00117732	0.00109642	0.00115475
0.00335117	0.0176717	0.000946402	0.000757304	0.000900919	0.00117627	0.0011611	0.00116138
0.00333181	0.0175113	0.000976451	0.00075442	0.000917618	0.00114996	0.00117349	0.00111084
0.00316529	0.0156229	0.00099522	0.000752094	0.000901672	0.0011422	0.00117301	0.00100619
0.00267056	0.0154422	0.000990023	0.000734705	0.000897017	0.00109083	0.00118496	0.000936505
0.00202357	0.0146869	0.000976391	0.000751431	0.000884744	0.00105801	0.00121108	0.000925063
0.00116229	0.0126845	0.000969479	0.000741016	0.000864182	0.000872868	0.00118989	0.000900875
0.000971242	0.0119453	0.000962647	0.000759383	0.000865591	0.000808316	0.00121269	0.000885496
0.000823191	0.011639	0.00095517	0.000759725	0.000858928	0.000752159	0.00121166	0.000887946
0.000798096	0.0116704	0.000926783	0.000755541	0.000800662	0.00074807	0.0012295	0.000926873
0.000820741	0.0081849	0.000874577	0.000746286	0.000792768	0.000732662	0.00130907	0.000924016
0.000835301	0.00678515	0.000865852	0.000750094	0.000801811	0.000725601	0.00131439	0.000920142
0.000838356	0.00575129	0.000838641	0.000739702	0.000761232	0.000709211	0.00130648	0.000836399
0.000675027	0.00555069	0.000834897	0.000724408	0.00080961	0.000710646	0.00130041	0.00081718
0.000642134	0.00607648	0.000800336	0.000722218	0.000830304	0.000732001	0.00127085	0.000818182
0.00062283	0.00587846	0.000754638	0.000712518	0.000795457	0.000728219	0.00124306	0.000827021
0.000606005	0.0064111	0.000757573	0.000696142	0.000804192	0.000755308	0.00118901	0.00086132
0.000617239	0.00584503	0.000754879	0.000662074	0.00082884	0.000744993	0.00111977	0.000876874
0.000748587	0.00584289	0.000771534	0.000576487	0.000801213	0.000735425	0.000975469	0.000909461
0.000826235	0.00585321	0.000779837	0.000509787	0.000810931	0.000785961	0.000821884	0.000892229
0.000754204	0.00137689	0.000496148	0.000616886	0.000257493	0.000317549	0.00402418	0.00349704
0.000868058	0.00131156	0.000511997	0.000689728	0.000292824	0.000362362	0.00392374	0.00400066
0.00120158	0.00153846	0.000543399	0.000725111	0.000330178	0.000398592	0.0039102	0.00463116
0.00137811	0.00228743	0.000551471	0.000794052	0.000367556	0.000442322	0.00378838	0.00494563
0.00139869	0.00250979	0.000560166	0.00089265	0.000391409	0.000475904	0.00393585	0.00547901
0.0014866	0.0025235	0.000570418	0.00103115	0.000416771	0.000515886	0.00398474	0.00593747
0.00158252	0.00276251	0.000611827	0.001084	0.000433307	0.000563648	0.00384783	0.00645563
0.00159321	0.0037567	0.000629853	0.00114844	0.00048094	0.000623962	0.00397884	0.00695225
0.00167161	0.00403704	0.000638368	0.00115914	0.000505185	0.000653331	0.00394059	0.00733892
0.00174832	0.00405836	0.00063241	0.00111323	0.000517655	0.000654138	0.00390051	0.00737897
0.00197226	0.00407933	0.000637206	0.00108924	0.000521328	0.000652656	0.00395877	0.00714896
0.00200297	0.0040711	0.000635919	0.00101169	0.000511896	0.000645694	0.00369053	0.00705611
0.00197504	0.00439604	0.000637344	0.00100341	0.000518175	0.000652588	0.00362979	0.00712575
0.0019891	0.00453028	0.000646122	0.000987649	0.000517107	0.000637802	0.00351597	0.00720419
0.0020002	0.00469905	0.000630369	0.000974208	0.000583675	0.000635324	0.00337578	0.00675514
0.00197025	0.00471286	0.000625403	0.00101936	0.000579987	0.000629627	0.00333729	0.00645165
0.0016808	0.00457842	0.000627127	0.00104988	0.000574421	0.000649841	0.00321932	0.00631438
0.00146353	0.00372169	0.000623009	0.0010714	0.000564432	0.000644968	0.00313389	0.0060341
0.0014393	0.00338701	0.000645854	0.00100995	0.000566204	0.000656628	0.00309845	0.00554503
0.00138546	0.00327609	0.00066089	0.00102678	0.000601366	0.000658669	0.00314356	0.00512351
0.00129625	0.00321141	0.000647757	0.000991769	0.000603291	0.000677964	0.00336393	0.0060206
0.00133316	0.00249153	0.000654119	0.000987867	0.000608995	0.000646751	0.00322305	0.0057557
0.0015454	0.00306984	0.000641125	0.00102391	0.000595312	0.000643174	0.00335084	0.00576181
0.0014537	0.00294848	0.000651425	0.00104636	0.000590474	0.000647894	0.00352526	0.00567117
0.00130353	0.00288692	0.000649671	0.00106387	0.000594139	0.000639101	0.00349476	0.00556019
0.00114581	0.00289834	0.00063609	0.00112872	0.00061305	0.000640257	0.00364175	0.00580105
0.00107059	0.00291836	0.000643965	0.00112226	0.000621536	0.000651193	0.00355622	0.00557912
0.00108577	0.00291418	0.00065428	0.00111391	0.000624431	0.000649646	0.00356155	0.0054202
0.00114422	0.00282198	0.000657635	0.00121354	0.000580282	0.000638171	0.00377785	0.00638479
0.00118092	0.00285916	0.000673172	0.00118285	0.000582879	0.000639886	0.00384965	0.0063037
0.00145362	0.00289318	0.000700217	0.00112428	0.000574812	0.00063475	0.00387799	0.00640103
0.00153366	0.00287456	0.000700938	0.00108916	0.0005624	0.000618989	0.00392908	0.00632173
0.00152802	0.00286304	0.000699605	0.00111446	0.000565069	0.000635114	0.00392565	0.00647261
0.00153204	0.00287329	0.000695614	0.00112235	0.000551353	0.000636457	0.00374511	0.00675914
0.00152444	0.00279211	0.000685208	0.00118763	0.000543966	0.000597687	0.00366722	0.00618613
0.0014988	0.00359161	0.000683315	0.00120047	0.000537466	0.000600999	0.00350377	0.00632599
0.00124771	0.00282122	0.000691565	0.00117162	0.0005328	0.0005929	0.00334381	0.00649115
0.00132775	0.0026896	0.000669371	0.00119995	0.000563836	0.00059537	0.00322061	0.00684385
0.00132911	0.00271966	0.000684506	0.00119511	0.000559068	0.000617261	0.00350643	0.00740529
0.00158548	0.00269697	0.000692033	0.00122221	0.000543273	0.000626975	0.00331999	0.0072674
0.001631	0.00255772	0.00068517	0.00123349	0.000538247	0.000625928	0.00336287	0.00713518
0.00156615	0.0021823	0.0006917	0.00123265	0.000537729	0.000622728	0.00331879	0.00762188
0.00151794	0.00215208	0.000724165	0.00117067	0.000531672	0.000628993	0.00336192	0.00685869
0.00146322	0.00207338	0.000720466	0.00120832	0.000545725	0.000614727	0.0034532	0.00681433
0.00120304	0.00204829	0.000691933	0.00126612	0.000548275	0.000617813	0.00361123	0.0069289
0.00107172	0.00202932	0.000694987	0.00137063	0.000564967	0.000616875	0.00402106	0.00756814
0.00106576	0.00202202	0.000698998	0.00140698	0.000571201	0.000625233	0.0041433	0.00771717
0.00108619	0.0020266	0.000687229	0.0013569	0.000554476	0.000612123	0.00420986	0.00738232
0.00119351	0.00202372	0.000685707	0.00128006	0.000551493	0.000627703	0.0040732	0.0073953
0.00119861	0.00137684	0.000685255	0.00126148	0.000551302	0.000622889	0.00405717	0.00722058
0.0011704	0.000883086	0.000667237	0.00128215	0.000545581	0.000631072	0.00425463	0.00668643
0.00137555	0.000798694	0.000680509	0.00124075	0.000515295	0.000629692	0.00413045	0.00639273
0.0014752	0.000738743	0.0006787	0.00134282	0.000520033	0.000605502	0.00443585	0.00591851
0.00130321	0.000751114	0.000680058	0.00130633	0.000536692	0.000614783	0.00443307	0.00599352
0.00128849	0.000765885	0.000684546	0.00129563	0.000537099	0.000608769	0.00439515	0.00611024
0.00127375	0.000757147	0.000663731	0.00142659	0.000548314	0.000616853	0.00477418	0.00559682
0.00129848	0.00074931	0.00063654	0.00142695	0.000546432	0.000617468	0.00446047	0.00541214
0.00128788	0.0007586	0.000626539	0.00139575	0.000547438	0.000612385	0.00433302	0.00516924
0.00140477	0.000746353	0.000611438	0.00136183	0.000550568	0.000608522	0.00428003	0.00521317
0.00142409	0.000758612	0.000618609	0.00129012	0.00055435	0.00062655	0.00401591	0.00486426
0.00152492	0.00111431	0.000624042	0.00134528	0.000559928	0.000611912	0.00390449	0.00480996
0.00155352	0.0012545	0.000627794	0.0014182	0.000572889	0.000596202	0.00401786	0.0048731
0.00175221	0.00125125	0.000637049	0.00141691	0.000585762	0.000596041	0.00409465	0.00513049
0.00185833	0.00126159	0.000643729	0.00148041	0.000582099	0.000583182	0.004541	0.00557498
0.0019165	0.00122589	0.000658598	0.00145328	0.000597715	0.000578484	0.00451371	0.00558382
0.0018263	0.00118274	0.000641724	0.00147533	0.000596198	0.000587264	0.0044811	0.00562675
0.001671	0.00122693	0.000632072	0.00141617	0.000606277	0.00057728	0.00398622	0.00554255
0.00161788	0.00122492	0.000619167	0.00138512	0.000591893	0.000576384	0.00387724	0.00599031
0.00159448	0.001209	0.000625833	0.00138603	0.000591899	0.000577827	0.00398432	0.00605343
0.00160595	0.00123316	0.000645892	0.00138186	0.000594529	0.000578883	0.00408201	0.00608375
0.00158886	0.00156973	0.000667519	0.00133036	0.000585015	0.00058419	0.00425113	0.00627275
0.00163899	0.00165605	0.00068312	0.001354	0.000585326	0.00056855	0.00432295	0.00691434
0.00166184	0.0016552	0.000683034	0.00135394	0.000589938	0.000559091	0.00418719	0.00698139
0.00184799	0.00163623	0.000689415	0.00141219	0.000574939	0.000547036	0.00472355	0.00678362
0.0017913	0.0013737	0.000666307	0.00135302	0.000590604	0.000534649	0.00480152	0.00664828
0.00176527	0.00115258	0.000662193	0.0013409	0.000588661	0.000563766	0.00462658	0.00646012
0.00165053	0.00116203	0.000665924	0.00131609	0.0005838	0.0005763	0.00468605	0.0059635
0.00154268	0.00114474	0.000653491	0.00132719	0.00058693	0.000578768	0.00454307	0.00560245
0.00147523	0.00112733	0.000663465	0.00139281	0.00059129	0.000581077	0.00445625	0.00572519
0.00137255	0.00111495	0.000678325	0.00137773	0.000596271	0.000578521	0.00454969	0.00618136
0.00130992	0.00111403	0.000709017	0.00145181	0.000604622	0.000571157	0.00462385	0.00609899
0.00129817	0.00114386	0.000706034	0.0014289	0.000608388	0.000555368	0.00455257	0.00563422
0.00128316	0.00112482	0.000714286	0.00142864	0.000586813	0.00057702	0.00459143	0.00572493
0.00128349	0.00120538	0.000689475	0.0013327	0.000583423	0.000575014	0.00415922	0.00589279
0.00127409	0.00100414	0.000688863	0.00130135	0.000570921	0.000582515	0.00403714	0.00589878
0.00125818	0.000891233	0.000677906	0.00127771	0.000574125	0.000597612	0.00409179	0.00523174
0.00122518	0.000885931	0.000684819	0.00126971	0.000562314	0.000604303	0.00419668	0.00480265
0.00119551	0.000873413	0.000665408	0.00127684	0.000549547	0.000604964	0.00398212	0.00483051
0.00120301	0.000868636	0.000672313	0.00120439	0.000543914	0.000608713	0.00363447	0.00475947
0.00123658	0.000907846	0.000687395	0.0011783	0.00052979	0.000609045	0.00361988	0.00481365
0.00139669	0.00133207	0.000676152	0.00117822	0.000520068	0.000591614	0.0034215	0.0051522
0.00134973	0.00156473	0.000689627	0.0011519	0.00052977	0.000597732	0.00327002	0.00512391
0.00138333	0.00156256	0.000674153	0.00102052	0.000521003	0.000601168	0.00306917	0.00494285
0.00145074	0.00154592	0.000679775	0.00109659	0.000522393	0.000598033	0.00324369	0.00458537
0.00141524	0.00153553	0.000652818	0.00101081	0.000493625	0.000596003	0.00319408	0.00449637
0.00149541	0.00149496	0.000649941	0.00102558	0.000469775	0.000601329	0.00328741	0.00442059
0.00167823	0.00147885	0.000662181	0.00100397	0.000478193	0.0005821	0.00340165	0.00415041
0.00172563	0.00145118	0.000650628	0.00100765	0.000476526	0.000575139	0.00361268	0.00392366
0.00172983	0.00130881	0.000643843	0.00102095	0.000475373	0.000577143	0.00355886	0.00377774
0.00174172	0.00130305	0.000639616	0.00104477	0.000474048	0.000576363	0.00353273	0.00382655
0.00272294	0.0112778	0.000733503	0.00226408	0.000612642	0.00167041	0.00655477	0.00486821
0.00277416	0.0116766	0.000727386	0.00230092	0.000602678	0.00211548	0.00684588	0.00522411
0.00249308	0.0118039	0.000721361	0.00225276	0.000617396	0.0027025	0.00703773	0.00537269
0.00228314	0.0118296	0.000708014	0.00215508	0.000607224	0.00301192	0.00691973	0.00560104
0.00234989	0.0118878	0.000686483	0.00208442	0.000608826	0.00318512	0.00680363	0.00560157
0.00259635	0.0126721	0.000695012	0.00199954	0.000636348	0.00327948	0.00660578	0.00571081
0.00283165	0.0130805	0.000697625	0.00201677	0.000665262	0.00367747	0.00654902	0.00596414
0.00270433	0.0122833	0.000688073	0.00211467	0.000663503	0.00371601	0.00655974	0.00594844
0.00248134	0.0122357	0.000674918	0.00209415	0.000654545	0.00383856	0.0061648	0.00581443
0.00258131	0.0133756	0.000679917	0.00192469	0.000635229	0.00387642	0.00563013	0.00577732
0.00290854	0.0137045	0.000672434	0.0017576	0.000628723	0.00379757	0.00548032	0.00560696
0.00297	0.0136881	0.000674728	0.00168262	0.000633393	0.003607	0.00526958	0.00540677
0.00297082	0.0140059	0.000680459	0.00167048	0.000644286	0.0038744	0.00510521	0.00539355
0.00298874	0.0146599	0.000685469	0.00167713	0.000642006	0.00405945	0.00507478	0.00539977
0.00279869	0.0159004	0.00068347	0.00164043	0.000634588	0.00423939	0.0050553	0.0052113
0.00262843	0.0161552	0.000676312	0.00159021	0.000634094	0.00460358	0.00504025	0.00473006
0.00290635	0.0164143	0.000685458	0.00157537	0.00062112	0.00475355	0.00502837	0.00449658
0.00353613	0.0160612	0.000674987	0.00155313	0.000618421	0.00487003	0.00495138	0.00442193
0.00463083	0.0155391	0.000686579	0.00150417	0.000626024	0.00495975	0.00466547	0.00427871
0.00498209	0.0154531	0.000679997	0.00141434	0.00062591	0.00498801	0.00399686	0.0038439
0.00501046	0.0153601	0.000672743	0.00138688	0.000612059	0.00504449	0.00356541	0.00348467
0.00505497	0.015754	0.000689583	0.00131484	0.000615004	0.00523464	0.00348316	0.00362163
0.00517457	0.0178647	0.000692732	0.00131515	0.000610835	0.00575598	0.00338851	0.00354017
0.00519003	0.0186091	0.000675304	0.00131395	0.000620144	0.00596281	0.00335205	0.00343398
0.00521836	0.0173828	0.000697155	0.00125482	0.000626163	0.0059662	0.00282804	0.00330853
0.00646998	0.0172376	0.000699659	0.00119424	0.000627072	0.00576302	0.00251993	0.00302546
0.00663289	0.0173292	0.000710173	0.00114779	0.000632381	0.00529697	0.00221477	0.00257204
0.00683726	0.0167933	0.000709452	0.00108151	0.000622577	0.00478902	0.00178412	0.00234678
0.00704651	0.0166083	0.000705174	0.00102754	0.000625729	0.00447373	0.00160705	0.00214185
0.00700385	0.0164754	0.000711238	0.00101866	0.000623158	0.00439902	0.00156909	0.00212555
0.00702489	0.0186673	0.000718331	0.000985728	0.000596746	0.00438584	0.00147019	0.00203496
0.00725872	0.0200618	0.000730098	0.000954826	0.000600789	0.00433386	0.00111101	0.00172596
0.00728655	0.0206965	0.000742766	0.000863863	0.000602668	0.00434938	0.00093744	0.00157473
0.00727086	0.0198273	0.000751557	0.000830209	0.00059629	0.00435371	0.000913876	0.00152641
0.00701401	0.0219334	0.00075166	0.000809342	0.000596318	0.00431479	0.000850906	0.00137768
0.00672462	0.022661	0.000772306	0.000774961	0.000598014	0.00442259	0.00071308	0.00135981
0.00685441	0.0228878	0.000779228	0.000756185	0.00058598	0.004285	0.000638682	0.00143134
0.00708904	0.0229718	0.000768003	0.000721411	0.000585892	0.00404661	0.000630228	0.00150116
0.00726134	0.0230739	0.000764925	0.000695353	0.000578195	0.00382806	0.000635748	0.00152054
0.00786478	0.0232524	0.000764193	0.000695044	0.000587172	0.00374422	0.000633198	0.00153112
0.00881213	0.0244256	0.000763943	0.000689825	0.000594153	0.00339916	0.000632954	0.00153658
0.00887286	0.0259533	0.000768273	0.000699572	0.000590585	0.00324834	0.000637303	0.00152866
0.00832471	0.0261362	0.000757821	0.000705367	0.000594893	0.00320637	0.000636466	0.00152243
0.00740542	0.0259732	0.000798982	0.000709059	0.000597634	0.00315175	0.000630362	0.00152258
0.00695881	0.0270797	0.000793777	0.00065954	0.00058508	0.00313279	0.000612985	0.0015765
0.00713481	0.0273997	0.000803571	0.000651766	0.000586403	0.00314141	0.000619504	0.00151087
0.00775606	0.0267578	0.000790841	0.000644905	0.00059217	0.00287789	0.000630751	0.00130987
0.00811146	0.0259019	0.000787468	0.000638083	0.000603	0.00239266	0.000614841	0.00127304
0.00950375	0.0272017	0.000793657	0.000629711	0.00061029	0.00225519	0.000657796	0.0013833
0.00970355	0.0268584	0.000795207	0.000623562	0.0006266	0.00224391	0.00066349	0.00144049
0.00854343	0.0262926	0.000795664	0.000620192	0.000635808	0.00224461	0.000651558	0.00143411
0.00820863	0.0262378	0.000804153	0.000623672	0.000628648	0.00222242	0.000653547	0.00144618
0.00779465	0.0266529	0.000842064	0.00062336	0.000651037	0.00221094	0.000657816	0.00143307
0.00772991	0.0269891	0.000876061	0.000619724	0.000686028	0.0021889	0.000648489	0.00146141
0.00771968	0.0273481	0.000884899	0.000629344	0.000678246	0.00216994	0.000641193	0.00154442
0.00752695	0.0246305	0.000877524	0.000598268	0.000667316	0.00183877	0.0006632	0.0014898
0.00721247	0.023728	0.000873274	0.000596486	0.000664084	0.00165889	0.000658726	0.00146423
0.00781987	0.0233716	0.000867535	0.000596209	0.000694853	0.0015295	0.000664109	0.0014634
0.00810496	0.022719	0.000863719	0.000608432	0.000724552	0.00142901	0.000661913	0.001517
0.00815886	0.0200025	0.000847224	0.00062095	0.000725612	0.00139388	0.000666249	0.00151497
0.00811899	0.0191441	0.000837432	0.000620942	0.000740661	0.00122417	0.000663194	0.00149046
0.00793631	0.0196805	0.000841093	0.000614926	0.000757672	0.00116645	0.000683233	0.00139149
0.00770051	0.0200213	0.000831525	0.000618579	0.000770884	0.00108099	0.00068468	0.00135693
0.00750126	0.0195514	0.000833924	0.000624016	0.000793955	0.00105072	0.000686212	0.00141555
0.00674127	0.0191287	0.000838529	0.0006196	0.000799887	0.00102191	0.000696701	0.00144251
0.00592077	0.0171241	0.000848956	0.000617613	0.000788813	0.00100576	0.000698439	0.00147776
0.00559451	0.0159612	0.000837044	0.000599085	0.000786631	0.000941125	0.000694936	0.00151144
0.00539288	0.0157866	0.000821107	0.000593084	0.000784765	0.000927847	0.00070325	0.00156488
0.0053208	0.0139637	0.000783693	0.000576379	0.000793223	0.000908279	0.000706664	0.00154542
0.00531473	0.0125432	0.000783263	0.000579831	0.000805406	0.000918	0.000707974	0.00148972
0.00499955	0.0120943	0.000780536	0.000587739	0.000837629	0.000849692	0.000710105	0.00147316
0.00437947	0.0113619	0.000794144	0.000638035	0.000847862	0.00084953	0.000690788	0.00148506
0.00360098	0.00988646	0.000803046	0.000649619	0.000841107	0.000831615	0.000699569	0.00142722
0.00252473	0.00856455	0.000816235	0.000655807	0.000822919	0.000826752	0.0006627	0.00132149
0.00220736	0.00829696	0.000786655	0.000678027	0.000822448	0.000816726	0.00067583	0.00127357
0.00206909	0.00804176	0.000793086	0.000721574	0.00081583	0.000797709	0.000689682	0.0013272
0.00206174	0.00780039	0.000788292	0.000724786	0.000831534	0.000787685	0.000701655	0.00131937
0.0019955	0.00726671	0.000760966	0.000736366	0.000825898	0.000813489	0.000693122	0.00135213
0.0018801	0.0071729	0.000757287	0.000750605	0.000786604	0.000822685	0.000698261	0.00125986
0.00172519	0.00679032	0.000738072	0.00076283	0.000799017	0.000795822	0.000713788	0.00120309
0.00167177	0.00641267	0.000719874	0.000761192	0.000800342	0.000831321	0.000733117	0.00119978
0.00143982	0.0058588	0.00072653	0.000767931	0.000787174	0.000839299	0.000721606	0.00119563
0.000944767	0.00564471	0.000719813	0.000766082	0.000744359	0.000850933	0.000724287	0.00118356
0.000648758	0.0057291	0.000745883	0.000767893	0.000737173	0.000829873	0.000723507	0.00112664
0.000596314	0.00580216	0.00074261	0.000763377	0.000736769	0.00083505	0.000738231	0.00113798
0.000585305	0.00559228	0.000736653	0.000756842	0.000730192	0.00089551	0.000748492	0.00112899
0.000577102	0.00446102	0.000734627	0.000748338	0.000708015	0.000949299	0.000734485	0.00115045
0.00057138	0.00379147	0.000742578	0.000748377	0.000683397	0.000948288	0.000731064	0.0011536
0.000566028	0.0028762	0.000742725	0.000744199	0.000663145	0.000930956	0.000717758	0.00106139
0.000558671	0.00220584	0.000746402	0.000772664	0.000664398	0.000993966	0.00070251	0.00104585
0.000568367	0.0020447	0.000738929	0.000800886	0.000657526	0.00101898	0.000707328	0.00103567
0.000565537	0.00203064	0.000748586	0.000815096	0.000647744	0.00102547	0.000699232	0.00114928
0.000568522	0.00201446	0.000761791	0.000832686	0.000638714	0.00103546	0.000711659	0.00122725
0.000551471	0.00200812	0.000755601	0.000841367	0.000627684	0.00102477	0.00073004	0.00131039
0.000542904	0.00201576	0.000764077	0.000837506	0.000616824	0.00103417	0.00072659	0.00155428
0.000551298	0.00196202	0.000766039	0.000802383	0.000604916	0.00103187	0.00072158	0.00182771
0.000546638	0.00193978	0.000757085	0.000797409	0.000586209	0.00107093	0.000725535	0.00190772
0.000531468	0.00194924	0.000753018	0.000765255	0.000606371	0.00108914	0.000731553	0.00210169
0.000515872	0.00189689	0.000743591	0.000769786	0.000601988	0.00108564	0.000749053	0.00217762
0.000525704	0.0019579	0.000744799	0.000758852	0.000598393	0.00109758	0.000728463	0.00218882
0.000754204	0.00137689	0.000496148	0.000616886	0.000257493	0.000317549	0.00402418	0.00349704
0.000880722	0.00130618	0.000514053	0.000697519	0.000294759	0.000362828	0.00391948	0.00400584
0.00124825	0.0016558	0.000541879	0.00072795	0.000338118	0.000401675	0.00389545	0.00465422
0.00138691	0.00238342	0.000551643	0.000809147	0.000369213	0.000447956	0.00378844	0.00502823
0.00140008	0.00251737	0.000559692	0.000910281	0.000392563	0.000487292	0.00398524	0.00567354
0.00150871	0.00251298	0.000580448	0.00104804	0.000419808	0.000524339	0.00393974	0.005954
0.00159282	0.00293852	0.000611604	0.00110112	0.00044898	0.000573947	0.00391983	0.00666123
0.00159634	0.00391407	0.000634659	0.00115996	0.000495328	0.000637038	0.00396507	0.00699239
0.00173938	0.00405746	0.00064463	0.00113593	0.000509992	0.000661107	0.0039343	0.00744339
0.00176741	0.00407283	0.000630973	0.00109528	0.000519293	0.000644707	0.00401057	0.00726843
0.00202007	0.00407137	0.000631158	0.00105793	0.00050663	0.000644511	0.00394089	0.00702236
0.00194219	0.00426552	0.000646434	0.00100306	0.000515908	0.000647422	0.00360979	0.00713231
0.00199614	0.00451217	0.000651939	0.0010109	0.000518418	0.00064781	0.00357983	0.00720736
0.00198303	0.00465797	0.000637518	0.000968793	0.000578099	0.000636224	0.00337442	0.00684016
0.00201139	0.00470426	0.000632336	0.00100824	0.000582943	0.0006273	0.00332688	0.00660202
0.00171182	0.00467688	0.000626389	0.00104103	0.000576247	0.000647929	0.00322132	0.00636156
0.00146474	0.00371737	0.000625403	0.00107187	0.000567373	0.000648343	0.00313518	0.00602364
0.00143885	0.00339273	0.000646786	0.00101108	0.000566335	0.00065523	0.00308281	0.00555972
0.00137861	0.00327147	0.000658415	0.00101621	0.000600774	0.00065896	0.00314828	0.00511715
0.00129432	0.00314445	0.000651697	0.000993853	0.000603595	0.000677621	0.00341352	0.00597375
0.00137346	0.0023545	0.000654706	0.000998005	0.00060547	0.000646164	0.00322101	0.00569654
0.00150675	0.00302392	0.000659152	0.00102158	0.000600153	0.000637688	0.00337996	0.00560762
0.00145795	0.00293422	0.000653489	0.00104895	0.000587299	0.000651977	0.00353713	0.00571476
0.00121319	0.00289764	0.000644884	0.00111208	0.000600659	0.000644863	0.00353747	0.00554611
0.00112077	0.00290403	0.00064496	0.00112922	0.00061013	0.000636715	0.00359436	0.00572022
0.00103211	0.00292463	0.000647005	0.00111551	0.000623082	0.000643216	0.00351386	0.00542358
0.00110957	0.00284131	0.000658627	0.0012086	0.000604182	0.00063721	0.00378429	0.00608115
0.00114136	0.00285104	0.00067512	0.00119885	0.000579252	0.000644276	0.00379222	0.0063814
0.00134538	0.00288437	0.000705571	0.00114411	0.00057949	0.000635029	0.00387718	0.0065828
0.00153156	0.00288403	0.000699472	0.0010892	0.000565229	0.000620663	0.00386986	0.00632143
0.00153144	0.0028615	0.000697734	0.00109805	0.00056347	0.000635726	0.00399955	0.0063233
0.00152723	0.00286729	0.000697282	0.00110708	0.000558718	0.000643261	0.00373722	0.00673704
0.00152659	0.00282621	0.000690089	0.00117762	0.000549559	0.000594332	0.00372358	0.00628919
0.00150597	0.00355728	0.000688412	0.00119465	0.000540264	0.000600233	0.00351278	0.00628158
0.00125131	0.00285247	0.000693705	0.001169	0.000526718	0.000593358	0.00334315	0.00649201
0.00132971	0.00268841	0.000668143	0.00120265	0.000563892	0.000599744	0.00322811	0.0068427
0.00135395	0.00271754	0.000683401	0.00119671	0.000557227	0.000619034	0.00349608	0.00742471
0.00159535	0.00269468	0.000696624	0.00122854	0.000549484	0.000632881	0.00332777	0.00720358
0.00163069	0.00237828	0.000698294	0.00122662	0.000540172	0.000620182	0.00336769	0.00724951
0.00153593	0.00218964	0.000694609	0.00122693	0.000537605	0.000610673	0.0033191	0.00757798
0.00148468	0.0021263	0.000730931	0.00118638	0.000532408	0.00061322	0.00348439	0.00673606
0.00137591	0.00207186	0.00071284	0.00120507	0.000538811	0.00061894	0.00352783	0.00688276
0.00108579	0.00203361	0.000692006	0.00130858	0.000559828	0.000618302	0.00378411	0.00722951
0.0010691	0.00203424	0.000682458	0.0014253	0.000569944	0.000627693	0.00407951	0.00769457
0.00106462	0.00202012	0.000688093	0.00140532	0.000563923	0.000625779	0.00419789	0.00739991
0.00116964	0.00201818	0.000700996	0.00129789	0.000556994	0.000618939	0.00415069	0.00732092
0.00120504	0.00182411	0.000686288	0.00126204	0.000552932	0.000621406	0.00402678	0.00732142
0.00118805	0.000970654	0.000668256	0.00126784	0.000545306	0.000632475	0.00423119	0.00675356
0.00125635	0.000818246	0.000677057	0.0012448	0.000514279	0.000625322	0.00416629	0.00639922
0.0014793	0.00073127	0.00067942	0.00131537	0.000514587	0.000609762	0.0044635	0.00604738
0.00130656	0.000750613	0.000677796	0.00131844	0.000535016	0.00061444	0.00446668	0.00596421
0.00128736	0.000768306	0.000685768	0.00128599	0.000538394	0.000610262	0.00439524	0.00612696
0.00127375	0.000756501	0.00066361	0.00142747	0.000548303	0.000616656	0.00477403	0.0055892
0.0012983	0.000747914	0.000633817	0.0014197	0.00054904	0.000619456	0.0044221	0.00537599
0.00129692	0.000763115	0.000629467	0.00139805	0.000546307	0.000616154	0.00434226	0.00512797
0.00142238	0.000752928	0.000616961	0.00134988	0.000548417	0.000617962	0.00429001	0.00517218
0.00145738	0.00079137	0.00061953	0.00131596	0.00055749	0.000624501	0.00390627	0.00481139
0.00153025	0.00121849	0.00062068	0.00135139	0.000555934	0.000598723	0.00396232	0.00481431
0.00164541	0.00125846	0.000634091	0.00140075	0.000582096	0.00059951	0.00400015	0.005053
0.0017711	0.00126779	0.000647364	0.00143537	0.000586519	0.00059609	0.00424949	0.00520069
0.00187798	0.00127723	0.000647135	0.00148119	0.000596883	0.000574518	0.00452566	0.00558971
0.00197931	0.00119214	0.000642885	0.00146801	0.000591131	0.000577816	0.00447676	0.00562113
0.00169539	0.00120521	0.000624031	0.00146144	0.000603371	0.000591762	0.00435557	0.00565753
0.00166403	0.00122044	0.000624964	0.00140937	0.000597499	0.000573039	0.00393291	0.00587124
0.00160227	0.00121556	0.000617407	0.00137369	0.000596166	0.000569178	0.00389581	0.00602431
0.00160143	0.00122196	0.00064392	0.00138578	0.000586463	0.00057558	0.00405402	0.00605931
0.00159048	0.0015515	0.000671082	0.00133183	0.000588524	0.000589673	0.00423251	0.00612361
0.00162742	0.0016565	0.000689134	0.001348	0.000583624	0.000574989	0.00433478	0.00677353
0.00166029	0.00165331	0.000680438	0.00135725	0.000586815	0.000559678	0.00418572	0.00699227
0.00184666	0.00163605	0.000689493	0.00140854	0.000575534	0.000547481	0.00472577	0.00678389
0.00178737	0.00136368	0.000667175	0.00135255	0.00058932	0.000535324	0.00478764	0.00663061
0.00176926	0.00115506	0.000658593	0.00132564	0.000593274	0.000566841	0.00465942	0.00646172
0.00163907	0.00117455	0.00065959	0.00131193	0.000584257	0.000569016	0.0046837	0.00590649
0.00151263	0.00115219	0.000666459	0.00135158	0.000586897	0.000584015	0.00448498	0.00560741
0.00144516	0.00112873	0.000668835	0.00138788	0.000592427	0.000583412	0.00440833	0.00576276
0.00136119	0.00112312	0.000675377	0.00143474	0.000602729	0.000572125	0.00451922	0.00624988
0.0013046	0.00112384	0.000707852	0.00143194	0.00060222	0.000573042	0.00463548	0.00603929
0.00129927	0.00113998	0.000710071	0.00142703	0.000600656	0.000557085	0.00462893	0.00558891
0.00128099	0.00116671	0.000684547	0.00136057	0.000585442	0.000575921	0.0044451	0.00586845
0.00128316	0.00118488	0.000687422	0.00129833	0.00057233	0.00056671	0.00407193	0.0060229
0.00126605	0.000894737	0.000682173	0.0012963	0.000573445	0.000601816	0.00405381	0.00545961
0.00113603	0.000885337	0.000687879	0.00126455	0.000565808	0.000602511	0.00412527	0.00484347
0.00121214	0.000870807	0.000670309	0.00127114	0.000557824	0.00060031	0.00414455	0.00474038
0.00119543	0.000881044	0.000679484	0.00120518	0.000536993	0.00060277	0.00356404	0.00475914
0.00121138	0.000887734	0.000684048	0.00118152	0.000526866	0.000610316	0.00358107	0.00480941
0.00141954	0.00125351	0.000683716	0.00117439	0.000520414	0.000589517	0.00344234	0.00511971
0.00134871	0.00156364	0.000688958	0.00115307	0.000529994	0.00059831	0.00326696	0.00512627
0.00138581	0.00156289	0.000674055	0.00102554	0.000521961	0.000600621	0.00307613	0.00492928
0.00145129	0.00154726	0.000679767	0.001101	0.000521838	0.000597014	0.00323048	0.0045924
0.00140748	0.00153429	0.000643672	0.000990708	0.000491258	0.000596976	0.00322779	0.00448045
0.00150392	0.00147966	0.000653221	0.000999084	0.000470678	0.000610194	0.00327122	0.00442212
0.00172338	0.00148554	0.000655295	0.00101096	0.000479902	0.000581801	0.00349021	0.00402721
0.00173071	0.00138436	0.000654868	0.000988259	0.000476863	0.000584837	0.0036728	0.00386819
0.00173073	0.00129373	0.00064191	0.0010223	0.00047956	0.000579796	0.00353952	0.00377005
0.00175177	0.00130492	0.00064092	0.00107179	0.000475157	0.000579854	0.00353684	0.00387386
0.00161573	0.00142886	0.000640942	0.00105575	0.000495434	0.000564407	0.00350965	0.00404667
0.00147639	0.00147733	0.000642603	0.00104445	0.000487914	0.000558057	0.0035805	0.00356406
0.00168388	0.00149569	0.000644328	0.00100778	0.000482956	0.000562117	0.00359715	0.00357286
0.00161268	0.00183026	0.000645255	0.000973378	0.000494716	0.00057622	0.00351235	0.00430845
0.00160596	0.00140992	0.000668099	0.000987425	0.000485276	0.000573529	0.00374285	0.00433445
0.00385775	0.0119799	0.00070747	0.0020413	0.000582992	0.0014519	0.00371184	0.00327023
0.00380666	0.0114959	0.000697455	0.00206677	0.000580987	0.0014791	0.00371646	0.00329035
0.00378308	0.011212	0.000689538	0.00213783	0.00059367	0.00151309	0.00377292	0.0032864
0.00321007	0.0112453	0.000697504	0.00222642	0.000590328	0.00157726	0.00378338	0.00341045
0.00317249	0.0108755	0.00069671	0.0022793	0.000596883	0.00169063	0.00375785	0.00347768
0.00317333	0.01036	0.000707549	0.00229662	0.000600886	0.00201095	0.00388412	0.00357326
0.00267544	0.00964121	0.000703443	0.00228202	0.000608036	0.00216531	0.00380482	0.00367242
0.00243939	0.00896212	0.000705529	0.00214663	0.000615977	0.00223025	0.00374912	0.00372178
0.00222348	0.00902191	0.000708956	0.0021	0.000616643	0.00229841	0.00354113	0.00372197
0.00221324	0.0098855	0.000695742	0.00200403	0.000616819	0.00241165	0.00351683	0.00374252
0.00286973	0.0103026	0.000693481	0.00200267	0.000615989	0.0025473	0.00356542	0.0037525
0.00380794	0.0101729	0.000686754	0.00197419	0.000636673	0.00280418	0.00369972	0.00372792
0.0040883	0.0101864	0.000684563	0.00182177	0.000631348	0.00303823	0.00377561	0.00378635
0.00422749	0.0105483	0.000681044	0.00176881	0.000633968	0.00323737	0.00372825	0.00395966
0.00440833	0.0110173	0.000681744	0.00178578	0.000645467	0.00365611	0.00366947	0.00387286
0.00442748	0.0109748	0.000678303	0.0018041	0.000658489	0.00375459	0.00364197	0.0038254
0.00445076	0.0111046	0.000667348	0.00180202	0.000641196	0.00391634	0.00370114	0.00388111
0.00445668	0.010977	0.000677533	0.00182789	0.000637512	0.00391624	0.0037673	0.00389203
0.00447619	0.0114982	0.000675857	0.00181167	0.000639307	0.00395584	0.00370467	0.00390615
0.00446629	0.0135152	0.000677946	0.00173406	0.000634926	0.00397674	0.00351861	0.00388574
0.00452629	0.0148019	0.000675463	0.00163361	0.000657069	0.00429704	0.00343183	0.00384629
0.00460223	0.0158297	0.000669115	0.00160127	0.000658317	0.00460048	0.0033468	0.00386993
0.00458881	0.0167146	0.000665836	0.00161081	0.000673762	0.00492015	0.00329482	0.0038849
0.00590844	0.0194665	0.000681372	0.00163941	0.000676134	0.00504023	0.00326334	0.00389835
0.00636276	0.0212875	0.000695347	0.00167085	0.000674039	0.00533823	0.00320424	0.00391395
0.00692704	0.0216744	0.000682344	0.00171129	0.000680677	0.00555496	0.00313231	0.00385948
0.00878563	0.0219664	0.000671653	0.00172994	0.000705173	0.0060662	0.00306845	0.0038519
0.00962366	0.0235072	0.000668053	0.00176653	0.000713829	0.00673198	0.00310072	0.00365555
0.0103124	0.0232333	0.000675796	0.00181596	0.000737203	0.00688192	0.00306543	0.00351766
0.0104804	0.0226529	0.000670986	0.00184402	0.00075487	0.00713452	0.00302135	0.00338379
0.010569	0.0221548	0.000661856	0.00180139	0.00076614	0.00730571	0.00301746	0.00336584
0.0106055	0.0224509	0.000676852	0.00175131	0.000755409	0.00703999	0.00290813	0.0031493
0.0106816	0.0238816	0.000681423	0.00172026	0.000761603	0.00686183	0.00273411	0.00294055
0.0107303	0.0242117	0.000684915	0.00168015	0.000771948	0.00705745	0.00265683	0.00277375
0.0108017	0.025674	0.000685343	0.00163834	0.000784072	0.0071636	0.00258703	0.00271745
0.011726	0.0264722	0.000691345	0.00157252	0.000777858	0.0071918	0.00248903	0.00264371
0.0125756	0.0271588	0.000686155	0.00148993	0.000787492	0.00716466	0.00238042	0.00256336
0.0138511	0.0277442	0.000694819	0.00138714	0.00079872	0.00710729	0.00235368	0.00255869
0.0139943	0.0280425	0.000672738	0.00135374	0.000815416	0.0068357	0.00207691	0.00246556
0.0139675	0.0281991	0.000679131	0.00128923	0.000808926	0.00673911	0.00175572	0.00237384
0.0138189	0.0286192	0.000670949	0.00124544	0.000808349	0.00679894	0.0016228	0.00232728
0.0139265	0.0287151	0.000669326	0.00121325	0.000802476	0.00687929	0.00160976	0.0023119
0.0139488	0.0288006	0.000674124	0.00121392	0.000797403	0.00681456	0.00154086	0.00229356
0.0133367	0.0288407	0.000679093	0.0011673	0.000786136	0.00670858	0.00142679	0.00230405
0.0123445	0.029544	0.000679608	0.00110182	0.000772843	0.00654105	0.00122614	0.0023443
0.0121625	0.0299215	0.000681373	0.00108158	0.000769957	0.0063659	0.00108157	0.00225333
0.0121989	0.0301422	0.000681174	0.00105435	0.000780582	0.00628038	0.00101135	0.0020092
0.0120796	0.0313729	0.000697065	0.00102044	0.000780173	0.00591112	0.000993048	0.00194451
0.0130807	0.033273	0.000717674	0.00101656	0.000775535	0.00588082	0.000934319	0.00193322
0.0135467	0.0340248	0.000727096	0.00102096	0.000794951	0.00572979	0.000824728	0.00184827
0.0136961	0.0347144	0.00075245	0.000989158	0.000809923	0.00575536	0.000733473	0.00177296
0.013964	0.0342927	0.000788679	0.000968664	0.000824243	0.00572777	0.000742866	0.00164247
0.013993	0.0324278	0.000822498	0.000979485	0.000818135	0.00570116	0.000728474	0.00151053
0.014506	0.0320173	0.000832283	0.00099761	0.00079906	0.00538451	0.000728163	0.00151973
0.0155317	0.0323792	0.00083417	0.000997761	0.000811971	0.00514384	0.000736199	0.00152317
0.0165822	0.0321799	0.00083939	0.000953233	0.000809361	0.00482176	0.000723357	0.00150781
0.0155786	0.0294374	0.000837231	0.000919199	0.000802839	0.00472282	0.000730978	0.00150911
0.0151644	0.0283111	0.000832772	0.000885919	0.000811054	0.00443774	0.000718534	0.00150679
0.0145945	0.028858	0.000863553	0.00083422	0.000808342	0.00421533	0.000720412	0.00144076
0.0128604	0.0284909	0.000872168	0.000828053	0.000792738	0.0038096	0.000740115	0.00129277
0.0119362	0.0276623	0.000866675	0.000793622	0.000815422	0.00311789	0.000682259	0.00126583
0.0111908	0.0279874	0.000856323	0.00074994	0.000802057	0.00304446	0.000668649	0.00120325
0.0110522	0.0280537	0.00086539	0.000735156	0.000768201	0.002809	0.000652248	0.00119738
0.0110708	0.0283771	0.000891141	0.000731892	0.000767881	0.00261293	0.000626631	0.00119227
0.0112689	0.0280641	0.000886821	0.000759019	0.000791349	0.00255046	0.000632336	0.00117564
0.011302	0.0266918	0.000936292	0.000785733	0.000798329	0.002509	0.000626218	0.00118077
0.0114821	0.0264512	0.000948935	0.000827422	0.000790286	0.00235072	0.000646114	0.00117707
0.0118823	0.0252259	0.000949697	0.000880767	0.000783314	0.0022456	0.000658648	0.00117754
0.0112021	0.024425	0.00095389	0.000948073	0.000795125	0.00219523	0.000679701	0.00119117
0.0103484	0.0237309	0.000951738	0.000984773	0.000853361	0.00216284	0.00067208	0.00118537
0.00895557	0.0230973	0.000979362	0.00101978	0.000850612	0.00211569	0.000688145	0.00112132
0.00832886	0.0226943	0.00102718	0.00102242	0.000845287	0.00209849	0.000688613	0.00113295
0.00811105	0.0224662	0.0010313	0.00104307	0.000841413	0.00205071	0.000698365	0.00117796
0.00798517	0.022047	0.00103112	0.00105541	0.000843796	0.00193748	0.000703991	0.00116546
0.00786403	0.021662	0.00104819	0.00105721	0.000843937	0.00182146	0.000718082	0.00118406
0.00780005	0.0206489	0.00105658	0.00109251	0.00085635	0.00181583	0.000755504	0.00121465
0.00777857	0.0199528	0.00107191	0.00112089	0.000858364	0.00182161	0.000759197	0.00122736
0.00776468	0.0190035	0.00107022	0.00116084	0.000858952	0.00176397	0.000777944	0.00123761
0.0076475	0.0182698	0.00107374	0.00125234	0.000861971	0.00166598	0.000797164	0.0012327
0.00747123	0.0173714	0.00106789	0.00126238	0.000863301	0.00155683	0.000799045	0.00124668
0.0074174	0.0156464	0.00107472	0.00126959	0.00086306	0.0015354	0.000828349	0.00129245
0.00642089	0.0135725	0.00106611	0.00127496	0.000872301	0.00144838	0.000843919	0.00127581
0.00587191	0.0127586	0.00107576	0.00128001	0.000852973	0.00142615	0.00084385	0.00126028
0.00573855	0.0120507	0.00105272	0.00128809	0.000835177	0.00139046	0.00084533	0.0012647
0.00546381	0.0119816	0.0010158	0.00131542	0.000816445	0.00136864	0.000840391	0.00124424
0.00547744	0.0118676	0.000995292	0.00136949	0.000817735	0.00135044	0.000846142	0.0013105
0.00493746	0.0110669	0.000978738	0.00139524	0.000838762	0.00133832	0.000862291	0.0014298
0.0038793	0.00971168	0.00101094	0.00140797	0.00095902	0.0012673	0.000870191	0.00156859
0.00279293	0.00910057	0.00106062	0.0014339	0.00100646	0.00126327	0.000899382	0.0016837
0.00236242	0.00904636	0.00105688	0.00142723	0.00104125	0.00126102	0.000909218	0.0020791
0.00221295	0.00851891	0.0010661	0.00143754	0.00103718	0.00126351	0.000906581	0.00221435
0.00220229	0.00742096	0.00105723	0.00147337	0.00102	0.00126824	0.000911244	0.00263007
0.00218885	0.00699973	0.00104713	0.00152031	0.00101107	0.00124808	0.000896819	0.00324687
0.00219984	0.0060171	0.00106841	0.00154073	0.000982181	0.00121343	0.000938691	0.0033414
0.00221431	0.00442162	0.00108378	0.0015541	0.000974697	0.00111908	0.000960888	0.00358427
0.00218196	0.0038238	0.00107719	0.00160953	0.00100161	0.00105814	0.000972505	0.00364848
0.00207043	0.00340529	0.00107697	0.00162148	0.00103937	0.0010364	0.000992203	0.00368369
0.00181881	0.00323578	0.00107177	0.00162498	0.00101961	0.00103225	0.00100209	0.00371914
0.00171229	0.00301827	0.00102152	0.00160938	0.00101006	0.000996916	0.00100892	0.00370149
0.00149923	0.00290988	0.00101136	0.00156336	0.00100766	0.000954301	0.000995046	0.00367768
0.000754204	0.00137689	0.000496148	0.000616886	0.000257493	0.000317549	0.00402418	0.00349704
0.000865567	0.00131729	0.000509402	0.000676764	0.000285093	0.000360574	0.00392008	0.00397107
0.00114201	0.00139851	0.000537773	0.000721724	0.000313967	0.000389843	0.00387283	0.0044232
0.0013602	0.00221659	0.000545537	0.000771714	0.000355366	0.00042904	0.00384811	0.00485131
0.00140036	0.00243942	0.000552209	0.000854845	0.000381626	0.000463291	0.00387316	0.00526734
0.00142318	0.00253543	0.000556677	0.000957166	0.000401645	0.000495638	0.00399567	0.00582265
0.00152847	0.00251112	0.00058382	0.00104991	0.000420233	0.000527821	0.00392694	0.00596683
0.00159329	0.00286081	0.000609636	0.00109683	0.00044646	0.000572532	0.0038765	0.00665977
0.00159548	0.00390859	0.000639355	0.00114875	0.000492797	0.000635427	0.00397522	0.00698214
0.00169644	0.00404029	0.000642218	0.00115921	0.00050546	0.000658565	0.00392552	0.00741593
0.00174851	0.00405894	0.000632878	0.00111368	0.000517574	0.000654194	0.00389808	0.00738138
0.0019524	0.00408428	0.000636333	0.00109175	0.000522603	0.000652678	0.00396851	0.00720906
0.00202952	0.00407412	0.00063478	0.00104013	0.000507866	0.000644003	0.0037809	0.00702802
0.00193896	0.0042997	0.000648242	0.00099933	0.000515152	0.000645916	0.00363182	0.00707175
0.00199408	0.00449834	0.000654067	0.00101159	0.000520402	0.000646173	0.00361578	0.00720625
0.00198465	0.0046325	0.000640569	0.000980678	0.000559046	0.000645569	0.00339429	0.0071078
0.00199988	0.00471564	0.000629904	0.00097951	0.000589043	0.000627262	0.00336178	0.00672417
0.00194159	0.00471127	0.000623683	0.00101301	0.00057485	0.00064136	0.00329706	0.00631861
0.00162858	0.00443576	0.000622001	0.00105823	0.000567722	0.000647819	0.00314802	0.00612059
0.00146199	0.00370579	0.000628119	0.00106881	0.000563649	0.000649878	0.00313988	0.00602105
0.00143877	0.00339368	0.0006467	0.00101131	0.000566433	0.000654997	0.00308021	0.00556217
0.00140719	0.00328526	0.000664277	0.0010468	0.000598938	0.00065964	0.00312012	0.00512217
0.00130096	0.00324987	0.000655401	0.00100435	0.000602729	0.00068315	0.00325878	0.00599597
0.00128297	0.00274286	0.000651845	0.000989822	0.000606601	0.00067268	0.00329744	0.00581134
0.00155692	0.00281065	0.000650276	0.00102016	0.000595724	0.000643605	0.00323272	0.00574839
0.00145784	0.0030021	0.000656126	0.0010214	0.000600031	0.000636648	0.00347685	0.00552688
0.00145896	0.00292879	0.000650374	0.00104787	0.000587988	0.000649686	0.00352779	0.00570983
0.00122199	0.00290075	0.000649221	0.0011075	0.00059796	0.000645661	0.00351798	0.00554932
0.0011342	0.00290083	0.000639797	0.00113087	0.000611556	0.000639819	0.00363769	0.0058485
0.00105705	0.00292585	0.000647608	0.00112163	0.000622252	0.000649728	0.00355362	0.00557691
0.00108589	0.00291816	0.000654748	0.00111081	0.000625152	0.000649492	0.00355087	0.00541832
0.00111829	0.00283263	0.0006619	0.00121466	0.00058759	0.000623695	0.00377044	0.00627273
0.00112109	0.0028482	0.000673544	0.00119241	0.000580744	0.000641686	0.00384079	0.00634894
0.00135934	0.00288577	0.000708098	0.00114143	0.000577995	0.000637607	0.00386797	0.00656751
0.00152957	0.00288957	0.000697145	0.00109305	0.000567861	0.000627561	0.00387755	0.006324
0.00153469	0.00286743	0.000702738	0.00108451	0.000554972	0.000624328	0.00398083	0.00632538
0.00152502	0.00286121	0.000705149	0.00107872	0.000569026	0.000622317	0.00371447	0.00673509
0.00152338	0.00287557	0.000690281	0.00115715	0.00053654	0.000626092	0.00372249	0.00688594
0.0015187	0.00275532	0.000691291	0.00120298	0.000546885	0.00060452	0.00359084	0.00616383
0.00149772	0.0036172	0.000681448	0.00120805	0.000534041	0.000600159	0.00348783	0.00631123
0.00125177	0.00285655	0.000693984	0.00116866	0.000525925	0.00059347	0.00334503	0.00649367
0.001332	0.00268525	0.000673099	0.0011963	0.0005572	0.000585943	0.00317528	0.00685024
0.00133058	0.00272475	0.000685838	0.00121763	0.000564586	0.000616537	0.00342211	0.00733631
0.00157482	0.00270701	0.000691694	0.0011939	0.000549425	0.00062734	0.00331719	0.00742777
0.00161907	0.00268689	0.000689942	0.00124466	0.000550272	0.000627564	0.00342688	0.00712347
0.00164178	0.00231377	0.000696907	0.00122444	0.000535736	0.000622701	0.00332313	0.00728285
0.00153232	0.00218737	0.000692848	0.00120652	0.000541174	0.00061003	0.00334642	0.00748168
0.00148261	0.0021359	0.000729311	0.00117422	0.000532774	0.000614372	0.00344822	0.00677832
0.00144585	0.00206158	0.000717971	0.00120298	0.00054341	0.000610663	0.00345597	0.00685245
0.00117771	0.00204404	0.000689766	0.00127426	0.000550351	0.00061644	0.00362696	0.00695675
0.00107223	0.00202964	0.00069227	0.00136156	0.000564371	0.000617952	0.00399972	0.00755467
0.00106732	0.00202517	0.000700675	0.00141038	0.000566695	0.000615368	0.0041438	0.00772067
0.00106117	0.00202102	0.000688642	0.00139394	0.000558869	0.0006154	0.0041996	0.00737146
0.00117571	0.00201742	0.00070084	0.00129027	0.000554304	0.000618297	0.00414641	0.00731289
0.00120978	0.0019385	0.000686722	0.00125649	0.000553858	0.000615086	0.00403577	0.0073685
0.00118626	0.000973275	0.000676427	0.00125772	0.000545089	0.000635601	0.0041912	0.0069564
0.00116519	0.000831945	0.000674724	0.00127421	0.000526865	0.000627555	0.00422227	0.00652505
0.00139271	0.000782596	0.000686872	0.00123568	0.000504544	0.000609086	0.004128	0.0063389
0.00148823	0.000742174	0.000683887	0.00133971	0.000519696	0.00060428	0.00439681	0.00590262
0.00130064	0.000750401	0.000681032	0.00130277	0.000538014	0.000615433	0.00441605	0.00600154
0.0012873	0.000768403	0.000685999	0.00128488	0.000538573	0.000610428	0.00439525	0.00612762
0.00127499	0.000760551	0.000666022	0.00140089	0.000545403	0.00062128	0.00476985	0.00570915
0.00129855	0.000759976	0.000643657	0.00144038	0.00054765	0.000621758	0.00460737	0.00550065
0.0012902	0.000764116	0.000617138	0.00140002	0.000542476	0.000620112	0.00433781	0.00528828
0.00136225	0.000756496	0.000623016	0.00139354	0.000551113	0.000616942	0.00434385	0.00513349
0.00142963	0.000750873	0.000620742	0.00132676	0.000550161	0.000625296	0.00422593	0.00496973
0.00146238	0.0008094	0.000620558	0.00130288	0.000555848	0.000617793	0.0038472	0.00481729
0.00152906	0.00121122	0.00061774	0.00134869	0.000554114	0.000599542	0.00393907	0.00481026
0.00158793	0.00125451	0.000631573	0.0014117	0.00058011	0.000592438	0.003982	0.00495835
0.00175992	0.00125355	0.000637935	0.00142151	0.000586797	0.000594745	0.00411327	0.00511132
0.00185677	0.00126338	0.000646733	0.00147257	0.000582249	0.000586612	0.00451606	0.00559095
0.00188605	0.00123421	0.000657502	0.00146402	0.000599713	0.00057201	0.00449996	0.00557744
0.00196068	0.00119815	0.000643323	0.00146836	0.000584814	0.000581409	0.00447805	0.00559171
0.00168466	0.00120737	0.000622743	0.00145323	0.000604726	0.000589651	0.00433837	0.00564891
0.00167202	0.00122323	0.000626276	0.00140606	0.000604223	0.000581461	0.00393284	0.0057662
0.00160784	0.00121042	0.000620696	0.00136742	0.000593635	0.000565618	0.00389791	0.0060382
0.00159894	0.00122005	0.000642766	0.00141913	0.000592786	0.000572079	0.00396842	0.00609433
0.00160012	0.00126439	0.000657043	0.0013576	0.000597987	0.000583552	0.00416905	0.00612352
0.00159024	0.00160547	0.000666423	0.00133281	0.000586029	0.00058215	0.00427239	0.00635234
0.00163925	0.0016557	0.000681274	0.00135366	0.000585448	0.000568104	0.00432539	0.00693866
0.00165992	0.00165304	0.000680567	0.00135821	0.00058631	0.000559493	0.00418579	0.0069927
0.00181091	0.00163917	0.000685697	0.00136717	0.000582972	0.000540724	0.00462597	0.00686245
0.00181656	0.00150122	0.000670886	0.00140361	0.000589918	0.000543365	0.00488537	0.00667292
0.00177816	0.00118091	0.000669861	0.00137888	0.000591855	0.000544723	0.00478179	0.00651374
0.00172824	0.00114759	0.000671339	0.00132378	0.000578481	0.000572806	0.00469666	0.0062951
0.00162302	0.00115632	0.000655535	0.00130156	0.000582964	0.000572168	0.00458209	0.00591493
0.00151502	0.00115606	0.000663992	0.0013559	0.000586998	0.000581884	0.00448638	0.00557121
0.0014509	0.00112609	0.000666147	0.00139184	0.000592094	0.000581959	0.0044054	0.00571767
0.00136802	0.00112371	0.000676501	0.00138503	0.000595165	0.000576156	0.00453336	0.00620721
0.00130806	0.00111523	0.000708181	0.00145153	0.000604958	0.000571992	0.00463107	0.00609605
0.00130149	0.00112996	0.000704472	0.00142297	0.000608212	0.000555597	0.00453323	0.00567839
0.00128832	0.0011283	0.000707439	0.00142522	0.000587021	0.000577042	0.00461345	0.00567627
0.00128744	0.00117099	0.000686061	0.00134826	0.000586247	0.000571115	0.00431056	0.00587543
0.00127918	0.00117531	0.000684661	0.00130063	0.000568818	0.000569052	0.00407361	0.00598202
0.00126312	0.000905817	0.000677049	0.00129801	0.000574254	0.000597887	0.00402535	0.0055419
0.00119518	0.000880233	0.000681586	0.00127402	0.000570613	0.000600497	0.00412978	0.0049334
0.00128614	0.000872771	0.000680546	0.00127843	0.000551214	0.000601628	0.00423887	0.00465348
0.00118874	0.000872192	0.000660268	0.00124283	0.000552865	0.000605342	0.00380729	0.00481832
0.00120737	0.000861966	0.000677746	0.00120692	0.000540527	0.000613027	0.00364388	0.00475345
0.00123954	0.000909094	0.000687215	0.00117773	0.000529519	0.000609471	0.00362178	0.00481374
0.00571792	0.0130914	0.0006669	0.00134052	0.000567837	0.000777596	0.00231191	0.00154515
0.00526992	0.013083	0.000668869	0.00133133	0.000566336	0.000780623	0.0023313	0.00155993
0.00485626	0.0125229	0.000682076	0.00132487	0.000562928	0.000764649	0.00239188	0.00173057
0.00406704	0.0114842	0.000695703	0.00134803	0.000566153	0.000753391	0.00247198	0.00191807
0.00315737	0.01056	0.000698472	0.00134909	0.000551522	0.000772223	0.00239121	0.00199688
0.00279805	0.010042	0.000700562	0.00123336	0.000544483	0.000787996	0.00212818	0.00214833
0.00189911	0.00987142	0.000710855	0.00105611	0.000529841	0.000789314	0.00182316	0.00220853
0.00149933	0.0104749	0.000704067	0.00101428	0.000518733	0.000810618	0.0018144	0.00222133
0.0014491	0.0102284	0.000697628	0.000914777	0.000516461	0.000827579	0.00185175	0.00215772
0.00151744	0.00954517	0.000899444	0.00106606	0.000572566	0.000982932	0.00276358	0.00230744
0.00167961	0.00949341	0.00124565	0.00124586	0.000705974	0.00115322	0.00413426	0.0025477
0.00171909	0.0094395	0.00140651	0.00127326	0.000790695	0.00125456	0.00465231	0.00275071
0.00174847	0.0092782	0.00149633	0.00126384	0.000808195	0.0012761	0.00479145	0.00283967
0.0018872	0.00971614	0.00173741	0.00137559	0.000932751	0.00149549	0.00541662	0.00293962
0.00191779	0.0102802	0.00191913	0.00152635	0.00100527	0.00165099	0.00580569	0.00296496
0.00217162	0.0102704	0.00203721	0.00156894	0.0010797	0.00168571	0.00607476	0.00297857
0.00233114	0.0096319	0.00214526	0.00160533	0.00108341	0.00167572	0.00614203	0.00293325
0.00245417	0.0105526	0.00217327	0.00164404	0.00109698	0.00166533	0.00615621	0.00269898
0.00299064	0.0116253	0.00218647	0.00165529	0.00109365	0.00166557	0.00619078	0.00264513
0.00323005	0.012498	0.00221315	0.00164403	0.00111792	0.00169302	0.00611329	0.00264927
0.00323524	0.0132465	0.00220834	0.0016463	0.00112226	0.00173644	0.00615122	0.00255574
0.00343517	0.0135118	0.00222442	0.00163306	0.00112366	0.0017389	0.00605815	0.0023562
0.00338214	0.0135983	0.00221186	0.00160892	0.00111789	0.0017102	0.00601377	0.00231094
0.00367024	0.0156941	0.00226603	0.0016088	0.00115192	0.00171148	0.00605849	0.0022859
0.00379631	0.0170506	0.00230468	0.0016431	0.00117413	0.00171348	0.00612781	0.00220526
0.00380017	0.0162964	0.00233403	0.00160738	0.00117478	0.00175774	0.00614524	0.00217564
0.00401226	0.0160295	0.00234468	0.0016127	0.00117424	0.00176538	0.00594207	0.00216267
0.0044117	0.017375	0.00234172	0.00161171	0.00117963	0.00174967	0.00590339	0.00215582
0.00438048	0.0181917	0.00203476	0.00129284	0.00104937	0.00155231	0.00415694	0.00182025
0.00419227	0.0177504	0.00174209	0.00110497	0.000896757	0.00139583	0.00326017	0.0015123
0.00415008	0.0180911	0.00165144	0.00108008	0.000890687	0.00133942	0.00282148	0.00132153
0.00426638	0.0178564	0.00157055	0.000994981	0.000912968	0.00135142	0.00259629	0.00118445
0.00445491	0.017034	0.00132417	0.000862465	0.000806178	0.00116437	0.00195424	0.00107803
0.00460788	0.0163778	0.00117968	0.000732125	0.000779064	0.00108697	0.00157633	0.000967837
0.00422067	0.0166738	0.0011053	0.000696454	0.000728926	0.00106408	0.0013675	0.00088797
0.00415598	0.016536	0.00104378	0.000642379	0.000724364	0.00108157	0.00134156	0.000874353
0.00394868	0.0159269	0.00108103	0.000651982	0.000717855	0.00108576	0.00126929	0.000884498
0.00342861	0.0163101	0.00104831	0.000665873	0.000720789	0.00107051	0.00121572	0.000897336
0.00332338	0.0166174	0.00105321	0.000677785	0.00071529	0.00106167	0.00120855	0.000884624
0.0033721	0.0162946	0.00104952	0.000689334	0.000714002	0.00109455	0.0011897	0.000898441
0.00328739	0.0160889	0.00104422	0.000686141	0.000703223	0.00119288	0.00120214	0.000845614
0.00339498	0.0157737	0.00104721	0.000696636	0.000722051	0.0012024	0.00120029	0.000764569
0.00396278	0.013084	0.000988024	0.000680131	0.000688278	0.00122351	0.00120675	0.000715396
0.00423973	0.0122297	0.000941153	0.000652423	0.000665579	0.00127037	0.00112923	0.000714226
0.00416481	0.0129384	0.000921044	0.000651176	0.000689723	0.00124013	0.0010908	0.000704506
0.00363594	0.0130734	0.000921729	0.000655299	0.000689163	0.00132541	0.0011146	0.000751076
0.00356953	0.0126479	0.000921894	0.00067983	0.000695543	0.00143928	0.00137207	0.000843533
0.00470323	0.0134306	0.000904466	0.0007834	0.000745343	0.00162906	0.00201833	0.000871449
0.00522556	0.0136684	0.000894622	0.000787023	0.000750221	0.00170422	0.00227338	0.000898833
0.00587823	0.0144097	0.000863857	0.000794386	0.000750055	0.00175229	0.00231924	0.000971536
0.0067612	0.0154554	0.000827601	0.000795456	0.000708496	0.00174065	0.0023106	0.00102055
0.00678621	0.0168123	0.000808559	0.000789167	0.000719925	0.00174449	0.00228485	0.00108532
0.00685627	0.016342	0.000818617	0.000791415	0.000717636	0.00169141	0.00228287	0.00111552
0.00685787	0.0160618	0.000805093	0.000793397	0.000707342	0.00168061	0.00227052	0.00111832
0.00707444	0.0161962	0.000783333	0.000786758	0.000711351	0.00173046	0.00222466	0.00111029
0.00722906	0.0181304	0.000784312	0.000768831	0.000734711	0.00171465	0.00220129	0.0011047
0.00860354	0.0172933	0.00078765	0.000747263	0.000747636	0.00177064	0.00217041	0.00109518
0.00927813	0.0173563	0.000778676	0.000740842	0.000735281	0.00174485	0.0021321	0.00112309
0.00941888	0.0179847	0.000795587	0.000736623	0.000785298	0.0017066	0.00210725	0.00129622
0.00995645	0.0206404	0.000823183	0.00074926	0.000802466	0.00165189	0.00208926	0.00134872
0.0110539	0.020904	0.000826095	0.000752763	0.000811545	0.00168607	0.0021207	0.00135387
0.0116786	0.0215396	0.000852056	0.000748178	0.000834912	0.00167323	0.00208731	0.00146208
0.0118997	0.0223529	0.000855657	0.000744626	0.000843538	0.00163323	0.00209882	0.00147306
0.0120081	0.0224981	0.000844215	0.000731372	0.000828415	0.00162025	0.00206355	0.00145615
0.0120471	0.0221967	0.000856104	0.000723088	0.000843667	0.00152748	0.00203336	0.0013758
0.0115001	0.020581	0.000877545	0.000690039	0.000844819	0.00134885	0.00169271	0.00131908
0.0105287	0.0200877	0.000918431	0.000585793	0.000853555	0.00125617	0.00104512	0.00144954
0.0101121	0.0193146	0.000939359	0.000576694	0.000843995	0.00114826	0.00102363	0.00146994
0.00953518	0.0186038	0.000951495	0.000567378	0.000833537	0.0010801	0.000998851	0.00145843
0.00944125	0.0174354	0.000959491	0.000561656	0.000836757	0.00103545	0.0010179	0.0014104
0.00910388	0.0170411	0.000962388	0.0005576	0.000863811	0.00101383	0.00101847	0.00133593
0.00902337	0.0181178	0.000963522	0.000561365	0.000898506	0.00101819	0.00102418	0.00134238
0.00905021	0.0188198	0.000982853	0.000555129	0.00091218	0.00100429	0.0010261	0.00135713
0.0088898	0.0183549	0.00100728	0.000558249	0.00092868	0.00100895	0.0010382	0.00138898
0.00796307	0.0166906	0.000995019	0.000552616	0.000980851	0.00100771	0.00104982	0.00140695
0.00714619	0.0164296	0.000985964	0.0005365	0.000990374	0.000940544	0.00102838	0.0015306
0.00670051	0.0154262	0.000993873	0.000540087	0.000957827	0.000951706	0.00104381	0.00146275
0.00638998	0.0142998	0.000981435	0.000538494	0.000939869	0.000936559	0.00105304	0.00136552
0.00493898	0.0113493	0.000962827	0.00052772	0.000943362	0.000903082	0.00100378	0.00132458
0.00394713	0.0109107	0.000942243	0.000515454	0.00100593	0.000913906	0.000979512	0.00132409
0.0027444	0.0117506	0.00102175	0.000519517	0.00107916	0.000861482	0.000953274	0.00145777
0.00245553	0.0102697	0.00105557	0.000520996	0.00108335	0.000872962	0.000940052	0.00161895
0.00239334	0.0097421	0.0010524	0.000521338	0.00108319	0.000869655	0.000923879	0.0016345
0.00235846	0.00982018	0.00102225	0.000524439	0.00108906	0.00085195	0.000875469	0.00163828
0.00232562	0.0094928	0.0010071	0.000538396	0.00108762	0.000841147	0.00081042	0.0016375
0.00232948	0.00944833	0.000999229	0.000553996	0.00108487	0.000868002	0.000776907	0.00143965
0.00221075	0.00948588	0.00100156	0.000587483	0.00116548	0.000891216	0.000698217	0.00144809
0.00137911	0.00884006	0.00102343	0.000577955	0.0011959	0.000907687	0.000688664	0.00148009
0.00121426	0.00871088	0.00100098	0.000583796	0.00116897	0.000919828	0.000664838	0.00148167
0.00120796	0.00801558	0.000983498	0.000609035	0.00113504	0.000924979	0.000682871	0.0015021
0.00118207	0.00692471	0.000959505	0.000608406	0.00110467	0.000938787	0.000685476	0.00155639
0.000904786	0.00579132	0.000941206	0.000617466	0.00107547	0.000971336	0.000686039	0.00158955
0.000842188	0.00453622	0.000907018	0.000632584	0.00102205	0.000924317	0.00068306	0.00156479
0.000819842	0.00431722	0.000900437	0.000641952	0.000987751	0.000919482	0.000669725	0.0015389
0.000566664	0.00440974	0.000894955	0.000672981	0.00104739	0.000888083	0.000689658	0.00142631
0.000576089	0.00441919	0.000909336	0.000705605	0.00109201	0.000907979	0.00071918	0.00142337
0.000579256	0.00433852	0.000904315	0.000792258	0.00107098	0.000947271	0.00072951	0.00143069
0.000600919	0.00423327	0.000918705	0.000877741	0.00104714	0.000923235	0.000764348	0.00147016
0.000593183	0.00316175	0.000910062	0.00101868	0.000946535	0.000924121	0.000763847	0.00137097
0.00059923	0.0021733	0.000860498	0.00110928	0.000949479	0.000922921	0.000767874	0.00117226
0.000754204	0.00137689	0.000496148	0.000616886	0.000257493	0.000317549	0.00402418	0.00349704
0.000866425	0.00131417	0.00051021	0.000682497	0.000289045	0.000362128	0.00392481	0.00399256
0.00117206	0.00151562	0.000541271	0.000723843	0.000321547	0.000394139	0.00389187	0.00456964
0.00136798	0.00223296	0.000551317	0.000777786	0.000361571	0.000436576	0.00380573	0.00488581
0.00139795	0.00249705	0.000553973	0.000885527	0.000386278	0.000472092	0.003903	0.00543509
0.00147329	0.00252155	0.000564297	0.000988849	0.000407073	0.000511444	0.00398483	0.00588693
0.00156526	0.00261673	0.00060788	0.00107431	0.000428319	0.00054774	0.00387049	0.00619519
0.00159568	0.00335032	0.000627887	0.00113678	0.000468256	0.000605673	0.00402329	0.00682712
0.00159658	0.00395707	0.00063951	0.00116148	0.000501352	0.000652324	0.00396548	0.00711307
0.00174412	0.00405601	0.000644262	0.00112624	0.000510863	0.000662764	0.00389403	0.00738728
0.00179906	0.00408299	0.000630317	0.00110595	0.000519065	0.000645664	0.00398252	0.00726023
0.00201857	0.00407024	0.000630417	0.00105815	0.000506611	0.000645378	0.00395648	0.00702336
0.00194008	0.00417975	0.000650714	0.00100782	0.000519027	0.000649773	0.00359987	0.00718297
0.00199822	0.00449519	0.000655557	0.00101966	0.000515321	0.000647948	0.00361245	0.00724882
0.00198183	0.00462517	0.000643131	0.000980854	0.000554929	0.000644854	0.00341613	0.00709221
0.00200008	0.00471569	0.000629906	0.000979544	0.000589071	0.000627363	0.00336174	0.00672381
0.00193342	0.00470881	0.000623	0.00101151	0.000575573	0.000643785	0.00328844	0.00632757
0.00158401	0.00435779	0.000625661	0.00106959	0.000561966	0.000647988	0.00316039	0.00610953
0.00144764	0.00360907	0.000631454	0.00105698	0.000564018	0.000650564	0.00312388	0.00595972
0.00144427	0.00334659	0.0006434	0.00105381	0.000571853	0.00066121	0.00319954	0.00546951
0.00137394	0.00325978	0.000658117	0.00100039	0.000598542	0.000663745	0.00312836	0.00516
0.00129113	0.0031222	0.000649699	0.000994811	0.000604517	0.000677067	0.00342906	0.00594589
0.00136211	0.00236557	0.00065353	0.000992321	0.000606348	0.000646022	0.00322288	0.00572053
0.00152511	0.00305959	0.000646865	0.0010236	0.00059657	0.000644011	0.00336193	0.00576506
0.00145353	0.00294807	0.00065185	0.00104676	0.000589288	0.000647906	0.00352528	0.00567156
0.00132351	0.00288706	0.000650138	0.00106129	0.000595887	0.000640963	0.00348992	0.00556821
0.0011486	0.00289736	0.000641496	0.00112431	0.000612688	0.000639181	0.00364502	0.00576668
0.00108006	0.00288985	0.000642371	0.00111569	0.000622569	0.000650276	0.00360614	0.00554785
0.00107304	0.00294235	0.000651514	0.00111409	0.000622951	0.000641092	0.00348815	0.00544843
0.00110904	0.00284137	0.000661858	0.00121556	0.000590309	0.000622977	0.00378197	0.00624568
0.00112125	0.00284796	0.000673213	0.00119277	0.000580557	0.000641697	0.00384081	0.00635011
0.00137563	0.00288873	0.000707303	0.00113358	0.000578412	0.000636312	0.00386963	0.00654868
0.00153185	0.00288334	0.000699773	0.00108926	0.000564814	0.000620466	0.00387039	0.0063213
0.0015288	0.0028604	0.000702112	0.00108909	0.000565532	0.000636103	0.00400273	0.00633061
0.00152791	0.00286419	0.000703342	0.00106539	0.000561932	0.000637071	0.00372086	0.00676127
0.00152635	0.00285711	0.000683969	0.00119156	0.000542267	0.000613132	0.00373323	0.00667217
0.0015176	0.00298999	0.000685171	0.00119991	0.000551075	0.000597435	0.00354418	0.00610565
0.00136061	0.00334941	0.000693684	0.00119561	0.000524067	0.000599758	0.00344246	0.00662038
0.00129426	0.00266554	0.000676001	0.00118994	0.000555335	0.000591776	0.0032619	0.00667856
0.00132783	0.00271007	0.00067839	0.00121336	0.000569709	0.000605992	0.00332914	0.00707851
0.001433	0.00271107	0.000682729	0.00119299	0.00055761	0.000627535	0.00341498	0.00744967
0.00161617	0.00269182	0.000699183	0.00123564	0.000552274	0.000633021	0.00338996	0.00711536
0.00163265	0.00233341	0.000695155	0.00123206	0.000539129	0.000622903	0.00335432	0.00723157
0.00153771	0.00218823	0.000693934	0.00123046	0.000536465	0.000610763	0.00331813	0.0075899
0.00148944	0.00214399	0.000726882	0.00117013	0.000533675	0.000618678	0.0033964	0.00680566
0.0014487	0.0020618	0.000717889	0.00120325	0.000543609	0.000610767	0.0034552	0.00685259
0.00116855	0.00204144	0.000689442	0.00128435	0.00055213	0.000616628	0.00363693	0.00698484
0.00107199	0.00203306	0.000690004	0.001385	0.000567781	0.000619633	0.00404659	0.00759177
0.00106664	0.00202217	0.00069736	0.00140917	0.00057028	0.000626371	0.00413124	0.00770724
0.0010833	0.00202692	0.000686909	0.00136017	0.000554468	0.000612216	0.00421451	0.00738198
0.00119071	0.00202271	0.000688437	0.00127946	0.000550961	0.0006252	0.00410111	0.00741041
0.00120212	0.00162002	0.000684513	0.00126538	0.00055218	0.00062857	0.0040377	0.00729974
0.00117962	0.000929745	0.000670775	0.00127786	0.000546903	0.000629287	0.00425036	0.00668954
0.00128202	0.000813656	0.000677187	0.00124261	0.000512866	0.000624298	0.00416955	0.0063822
0.00148066	0.000734417	0.000681595	0.00129802	0.000515233	0.000608351	0.00445401	0.0061143
0.00134842	0.000748501	0.000679472	0.00132136	0.000536274	0.000606278	0.00449879	0.00589218
0.00128795	0.000766194	0.000690037	0.00126254	0.000539256	0.000606551	0.00432529	0.00612285
0.00127534	0.000766755	0.000668619	0.00139662	0.000545522	0.000609701	0.00471005	0.00588924
0.00129205	0.000758881	0.000655773	0.00144227	0.000547563	0.000620321	0.00464235	0.00550999
0.00129332	0.000760624	0.000614919	0.00141069	0.000546111	0.000620899	0.0043215	0.00530467
0.0013599	0.00075673	0.000622735	0.00139429	0.00055077	0.000616882	0.00434404	0.00513645
0.00142905	0.000754266	0.000619126	0.00132829	0.000552577	0.000626598	0.00420714	0.0049308
0.00147228	0.000840223	0.000622448	0.00129609	0.000556589	0.000612976	0.00383959	0.00485174
0.00153351	0.00122872	0.00062122	0.00136133	0.000557246	0.000597449	0.00396436	0.00482109
0.00164938	0.00125728	0.000634309	0.00140132	0.000582183	0.000599694	0.00400079	0.00506858
0.00175496	0.00126291	0.000646067	0.0014309	0.000586534	0.000594159	0.00420927	0.00513249
0.00185933	0.00127315	0.000641117	0.00148612	0.000593111	0.000585172	0.00449956	0.00559749
0.00194158	0.00120492	0.000649442	0.00146063	0.000595033	0.000574757	0.00448748	0.00556892
0.00171445	0.00119243	0.000640048	0.00146616	0.000593951	0.000584026	0.0044672	0.00555162
0.00168074	0.00122161	0.000628336	0.00137753	0.000601973	0.00057949	0.00393393	0.00558171
0.00161323	0.00122033	0.000614611	0.0013766	0.000597317	0.000570052	0.00387505	0.00599032
0.00159707	0.00121077	0.00062873	0.00139512	0.000592936	0.000581716	0.00397589	0.00606149
0.00160361	0.00123567	0.000645779	0.00138144	0.000592039	0.000575598	0.00409523	0.0061099
0.00158893	0.00156912	0.000667636	0.00133042	0.000584965	0.000584338	0.00425057	0.00626941
0.00163548	0.00165692	0.0006863	0.00135374	0.000585086	0.000570472	0.00432541	0.00686479
0.00165941	0.00165268	0.000680749	0.00135956	0.000585602	0.000559235	0.0041859	0.0069933
0.00182109	0.00163804	0.000686505	0.00137636	0.000582566	0.000541614	0.00467542	0.00682416
0.00179858	0.00141564	0.000670779	0.00138484	0.000590266	0.000539954	0.00483109	0.0066694
0.00176492	0.00116089	0.000661941	0.00138174	0.000587823	0.000549676	0.00465293	0.00646491
0.00170172	0.00115707	0.000666095	0.00131552	0.000578139	0.000573255	0.00470142	0.00606191
0.00158584	0.0011501	0.000653469	0.00130814	0.0005837	0.000574122	0.00459638	0.00578817
0.0014877	0.00113276	0.000663096	0.00139833	0.000582657	0.000577264	0.00448066	0.00562376
0.00139877	0.00113342	0.000674378	0.0013632	0.000591811	0.000590011	0.00447268	0.00605708
0.0013359	0.00111373	0.000689658	0.00143997	0.000608979	0.000574198	0.00446386	0.00616837
0.00130186	0.00112674	0.000706153	0.00142098	0.000608279	0.00057075	0.00459594	0.00593714
0.00129753	0.0011373	0.000710882	0.00142715	0.000598505	0.000560656	0.00463614	0.00555305
0.00127839	0.00115801	0.000682613	0.00136533	0.000585598	0.000575289	0.0044651	0.00586871
0.00128345	0.0012489	0.000694466	0.00130478	0.000567605	0.00057163	0.00407573	0.00602538
0.00126319	0.000932579	0.000690798	0.00130053	0.000576623	0.000593628	0.00403008	0.00559363
0.00123007	0.000880184	0.000680149	0.00126616	0.000571843	0.000596234	0.00412777	0.0049485
0.00128388	0.000872438	0.000680699	0.00127789	0.000551627	0.000601846	0.00424033	0.00465982
0.00119306	0.000872599	0.000663645	0.00122648	0.00055348	0.000607959	0.00380208	0.00481472
0.00121346	0.000848189	0.00068143	0.00120123	0.000538879	0.00061462	0.00363167	0.00475449
0.00130128	0.000949713	0.000682969	0.00117278	0.000528404	0.000601927	0.00358716	0.00481552
0.0013638	0.00138728	0.000671172	0.00117016	0.00052614	0.000588914	0.00338431	0.00522065
0.00135138	0.00156325	0.000683334	0.00113868	0.000528381	0.000591608	0.00325343	0.0050657
0.0013884	0.00156258	0.000675277	0.00102855	0.000521041	0.000600287	0.00308037	0.00492103
0.00145113	0.00154553	0.000679869	0.00109715	0.000522156	0.000598104	0.00324088	0.00458498
0.00141786	0.00153671	0.000655285	0.00101265	0.000492918	0.000596528	0.00319245	0.00450628
0.00149453	0.0014935	0.000645101	0.00102868	0.000467948	0.000600463	0.00327229	0.00442711
0.0041454	0.0130902	0.000642891	0.00176242	0.000551528	0.00160587	0.00437989	0.00474561
0.00403854	0.013118	0.000638544	0.0017811	0.000548893	0.00189987	0.00436418	0.00488802
0.00443197	0.0128277	0.000630283	0.0017716	0.000550751	0.00217153	0.00433287	0.00487319
0.00437253	0.0124022	0.000625279	0.00176707	0.000557986	0.00223493	0.00430135	0.004858
0.00427566	0.0113648	0.00062979	0.00172656	0.000541843	0.002245	0.00431336	0.004774
0.00471636	0.0106188	0.000622786	0.00164314	0.000545288	0.00248361	0.00442505	0.00454659
0.00474561	0.0104116	0.000629782	0.00150044	0.000547299	0.00256389	0.00438785	0.0044889
0.00483786	0.0112113	0.000640335	0.00146938	0.000560559	0.00262151	0.00437461	0.00443821
0.00481505	0.0113089	0.000630383	0.00148447	0.000577093	0.00274749	0.00431246	0.00445256
0.00446013	0.0110075	0.000631989	0.00148839	0.000570156	0.0028334	0.0042818	0.00462283
0.00434985	0.0104259	0.000629072	0.00147365	0.000554264	0.00274073	0.00404773	0.00471271
0.00435467	0.0103728	0.000634887	0.00138829	0.000566196	0.00276213	0.00382729	0.00470708
0.00430209	0.0103819	0.000644847	0.00128579	0.000551147	0.00285235	0.00352041	0.00430441
0.00424223	0.0105732	0.000651619	0.0012421	0.000542985	0.00279986	0.0033263	0.00423028
0.00434722	0.011274	0.00065124	0.0011851	0.000547789	0.00270088	0.00324203	0.00423696
0.0043826	0.0115551	0.000656107	0.00115365	0.000558146	0.00261071	0.00314656	0.00393015
0.00457114	0.0119677	0.000634	0.00112797	0.000555235	0.0026386	0.00300813	0.0036337
0.00473486	0.0129541	0.000636923	0.00110861	0.00055527	0.00264521	0.00286565	0.00338831
0.00474784	0.0134209	0.000642255	0.00108976	0.000558074	0.00266436	0.00280187	0.00328824
0.00465345	0.0132887	0.000631479	0.00107048	0.000556109	0.00267739	0.00274493	0.00310606
0.00456569	0.0125136	0.000638579	0.000973519	0.000557833	0.00270585	0.00255144	0.00297734
0.00452062	0.013006	0.000637074	0.000889126	0.000562898	0.00269729	0.00222728	0.00286536
0.00451875	0.0131798	0.000628673	0.000866525	0.000561065	0.00267541	0.00211554	0.002658
0.00460903	0.013459	0.000623682	0.000839204	0.000570233	0.00266302	0.00209488	0.00262499
0.00475402	0.0138141	0.000642347	0.000848675	0.000567202	0.00267636	0.00207308	0.00258612
0.00482046	0.0129887	0.000629157	0.000849941	0.000561853	0.0026651	0.00191616	0.00236039
0.00485724	0.0136598	0.00063592	0.000814527	0.000556032	0.00268132	0.00169805	0.0022471
0.00487767	0.0137209	0.000635359	0.000779503	0.00055276	0.00262207	0.00150332	0.00212738
0.00478614	0.0134585	0.000649252	0.000736053	0.000564777	0.00247865	0.0014802	0.00200209
0.00446651	0.0138841	0.000658494	0.000731511	0.000566791	0.00233626	0.00146868	0.00196555
0.00443605	0.0142678	0.000653853	0.000731391	0.000575917	0.00218651	0.00145572	0.00196184
0.00445225	0.0147851	0.000657156	0.00072695	0.000583412	0.00222662	0.0013354	0.00197229
0.00367823	0.0154366	0.000683724	0.000706294	0.000573374	0.0021353	0.00119123	0.00196019
0.00333223	0.0165241	0.000682111	0.000690672	0.000584271	0.00198412	0.00103612	0.00195729
0.0031683	0.0164623	0.000680778	0.000663894	0.000573334	0.00194893	0.000877884	0.00195466
0.00435985	0.0159502	0.000691422	0.000644871	0.000561173	0.00178388	0.00078998	0.00193617
0.00480627	0.0157988	0.000697706	0.000639507	0.000563298	0.00162581	0.000708969	0.00178444
0.00490053	0.0165399	0.000695221	0.000638032	0.000563459	0.00156298	0.000621847	0.00155128
0.00493497	0.0176892	0.000689276	0.000655421	0.000564261	0.00154811	0.000580235	0.00126249
0.00494987	0.0183147	0.000688062	0.000630973	0.000578569	0.00141663	0.000578541	0.00111551
0.00493696	0.0189556	0.00067028	0.000618093	0.000588864	0.00138044	0.000618566	0.00104105
0.004806	0.0188154	0.000682747	0.000609888	0.000589646	0.00136566	0.000651742	0.00096911
0.00497238	0.0183854	0.000711652	0.000599065	0.000595044	0.00137443	0.000653586	0.000949932
0.00498797	0.0185926	0.000715422	0.000597653	0.000593854	0.00135483	0.000654684	0.000924599
0.00481699	0.0176652	0.000721253	0.000592974	0.000607406	0.00134992	0.000667338	0.000933252
0.00480709	0.0178979	0.000725185	0.000596687	0.000603692	0.00131158	0.000668984	0.000936522
0.00483326	0.0182526	0.000741429	0.000603945	0.00061817	0.0012933	0.000681088	0.000971818
0.00481175	0.0182358	0.000750339	0.000596804	0.000618335	0.00125595	0.000692928	0.0010127
0.00539089	0.0178634	0.000763453	0.000602417	0.000614542	0.0012559	0.000692581	0.00102129
0.00613878	0.0175297	0.000769578	0.000607299	0.000621547	0.00124933	0.000692715	0.00108081
0.00631336	0.0173399	0.000768254	0.000616408	0.000614834	0.00126158	0.000712352	0.00110293
0.0061829	0.0167475	0.000752277	0.000612885	0.0006071	0.00126071	0.00072247	0.00109359
0.00613012	0.0169465	0.000760417	0.000601634	0.000635163	0.00125579	0.000714223	0.00109667
0.00627028	0.0164782	0.000777486	0.000602197	0.000652069	0.00124231	0.000720914	0.00110685
0.00662108	0.0159969	0.000788348	0.000597541	0.000654561	0.00122285	0.000736465	0.00111335
0.00679157	0.0160721	0.000784946	0.000603526	0.000645975	0.00125117	0.000764595	0.00112286
0.00682109	0.0156484	0.000805881	0.000604784	0.000655504	0.0011295	0.000766441	0.00115579
0.00664785	0.0153456	0.000806927	0.000599858	0.000676515	0.00109243	0.000774891	0.00128465
0.00653587	0.0152231	0.000803311	0.000597928	0.000686329	0.00107933	0.000784106	0.00140084
0.00616318	0.0152983	0.00077624	0.00058949	0.000707154	0.00103696	0.000794917	0.00145461
0.00601508	0.0138254	0.00077732	0.000580963	0.000720777	0.00101116	0.000790596	0.00151286
0.00624187	0.012893	0.000813593	0.000579242	0.000740201	0.00094536	0.000794866	0.00153462
0.0052964	0.012525	0.00083114	0.000578712	0.000744863	0.000945619	0.000795915	0.00151086
0.00463975	0.0122895	0.000819543	0.000580557	0.000786724	0.000942922	0.000789078	0.00148316
0.00436856	0.0114171	0.000817057	0.000552928	0.000781736	0.000949473	0.00079222	0.00149391
0.00433664	0.0104018	0.000829184	0.000537806	0.000797306	0.000947585	0.000776137	0.00148303
0.00431119	0.00943145	0.000845105	0.000535988	0.000793463	0.00100618	0.000761731	0.00146944
0.00430319	0.00884772	0.00084501	0.000549597	0.000782435	0.000978771	0.000736531	0.00142077
0.00430879	0.00833071	0.000840422	0.000548053	0.000774886	0.000996191	0.000664604	0.00148788
0.00417816	0.00826646	0.000828634	0.000549962	0.000762103	0.00100398	0.000666228	0.0014984
0.00401787	0.00802878	0.000831452	0.000535794	0.000755829	0.00102089	0.000678352	0.00150185
0.00387791	0.00752701	0.000825324	0.000547348	0.000746354	0.00103108	0.000677148	0.00150549
0.00381597	0.00615185	0.000824173	0.000541341	0.000735098	0.00102646	0.000663114	0.00151265
0.00378692	0.00567492	0.000815509	0.000536605	0.000742285	0.000997583	0.000674871	0.00148554
0.00377481	0.00543483	0.00081575	0.00053709	0.000722092	0.00100627	0.000667157	0.00144687
0.00342105	0.00514664	0.00080372	0.000547033	0.00072239	0.00103271	0.000667548	0.00143233
0.00244835	0.00478313	0.000796063	0.000544151	0.000714892	0.00102392	0.000677723	0.00140288
0.00212989	0.00471883	0.000804743	0.000534202	0.000720732	0.00101997	0.000674443	0.00133579
0.00207913	0.00469799	0.000826932	0.000520811	0.000729358	0.00102494	0.000657607	0.00134833
0.0020616	0.00444567	0.000821018	0.000529782	0.000703216	0.00105116	0.000661627	0.00132198
0.00195863	0.00412412	0.000827371	0.000530307	0.000701201	0.0010744	0.000679977	0.00132464
0.00151881	0.00482099	0.000812459	0.000526149	0.000710018	0.00105053	0.000674131	0.00130794
0.00130133	0.00502044	0.000797391	0.000523987	0.000696574	0.0010153	0.000662823	0.00134276
0.00125422	0.00470765	0.000793473	0.000538777	0.00069189	0.00102259	0.00067264	0.00131379
0.00124993	0.00454579	0.000784349	0.000534923	0.000676104	0.00099362	0.000664563	0.00124391
0.00119586	0.0044723	0.000796772	0.000540046	0.000654671	0.000983738	0.000668522	0.00111976
0.00108615	0.00417235	0.000814748	0.000541346	0.000623747	0.000971667	0.000660053	0.00103721
0.00106026	0.00403201	0.000819388	0.000553296	0.000613501	0.00097069	0.000663687	0.000992012
0.000791661	0.00398082	0.000807253	0.000552572	0.000607718	0.000982276	0.000659445	0.000983849
0.000641688	0.00402044	0.000761105	0.000541275	0.000590499	0.00100761	0.000657002	0.000994546
0.000616037	0.00409481	0.000748875	0.000552906	0.000567583	0.00100667	0.000664602	0.00101278
0.000592924	0.0042267	0.000739833	0.000569353	0.000605522	0.00104222	0.000667118	0.0010123
0.000584398	0.00437992	0.000745125	0.000571717	0.000610663	0.000999668	0.000651502	0.00104362
0.00059444	0.00440994	0.000723077	0.000577125	0.000599961	0.000967132	0.000642986	0.00107144
0.000587335	0.00489835	0.000721009	0.000564706	0.000601054	0.000933328	0.000652344	0.00105289
0.000578874	0.00516643	0.00070742	0.000571726	0.000606707	0.000933668	0.000648581	0.00101903
0.000566147	0.00518724	0.000721056	0.00056858	0.000624114	0.000922237	0.000666851	0.00103094
0.000572161	0.00515358	0.000735361	0.000574173	0.000663073	0.000903002	0.000690957	0.00103908
0.00058963	0.00505767	0.000828048	0.000609937	0.000687486	0.00088694	0.000850767	0.00121091
0.000575478	0.0051939	0.000920363	0.000670587	0.000722682	0.000910194	0.00108237	0.00123253
0.000754204	0.00137689	0.000496148	0.000616886	0.000257493	0.000317549	0.00402418	0.00349704
0.00111197	0.00129673	0.000537352	0.000717657	0.000308161	0.00038549	0.00389691	0.0043327
0.00139238	0.00244012	0.000550059	0.000829368	0.000371421	0.000456063	0.00383316	0.00518908
0.00148596	0.00252335	0.000570565	0.00102972	0.000416682	0.000515527	0.00398443	0.00593534
0.0015963	0.00322913	0.000626326	0.00113372	0.000464102	0.000600976	0.00402135	0.00682124
0.00172484	0.004029	0.000640509	0.00113839	0.000503688	0.000660446	0.00393706	0.00743607
0.00197136	0.00408121	0.000637036	0.00108927	0.000521129	0.000652583	0.00396223	0.00715547
0.0019414	0.00427224	0.000646786	0.00100234	0.000515761	0.000647348	0.00361203	0.00712296
0.00197791	0.0046023	0.000646397	0.000981319	0.000545996	0.000638163	0.00346716	0.00717828
0.00198092	0.00471195	0.000626003	0.00101882	0.000579716	0.000631559	0.00333556	0.00647865
0.00149427	0.00382564	0.000629955	0.00106341	0.000564677	0.000653544	0.00312744	0.00604318
0.00144459	0.00334294	0.000645562	0.00105544	0.000575931	0.000657414	0.00320719	0.00539869
0.00129764	0.00323397	0.00064511	0.000993979	0.000602503	0.000678933	0.00334228	0.00600889
0.00156331	0.00285338	0.000650972	0.00102382	0.000597844	0.000645913	0.0032616	0.00578633
0.00145807	0.00293312	0.000652613	0.0010487	0.000587485	0.00065193	0.00352976	0.00571438
0.00114701	0.00289798	0.000639006	0.00112597	0.000612877	0.000639314	0.00364351	0.00577846
0.00104142	0.00294478	0.000648325	0.00111797	0.000620134	0.000641052	0.00351995	0.00543652
0.00115446	0.00282811	0.000677601	0.00119868	0.00057643	0.000644707	0.00374973	0.00652757
0.00143788	0.00289572	0.000704043	0.00113049	0.000576283	0.000635203	0.0038769	0.00643693
0.00152857	0.00286174	0.000700649	0.00108759	0.000562407	0.000631685	0.00399747	0.0063299
0.00152334	0.00287563	0.000690563	0.00115965	0.00053642	0.000625911	0.00372063	0.00688695
0.00149957	0.00356733	0.000684983	0.00119575	0.000540611	0.00060083	0.00351028	0.0063018
0.00131879	0.00267791	0.000676963	0.00120715	0.000561118	0.000588645	0.003253	0.00673001
0.00142386	0.00271999	0.000678673	0.00119637	0.000557495	0.0006244	0.00343093	0.00745166
0.00162552	0.00258405	0.000683882	0.00123249	0.000543953	0.000624692	0.00335668	0.00712529
0.0015292	0.00218306	0.000710608	0.00116012	0.000545076	0.000612385	0.0032642	0.00731186
0.00141291	0.00206512	0.000717675	0.00120051	0.000539518	0.000615104	0.0034831	0.00685847
0.00107276	0.00203012	0.00069135	0.00135717	0.000564125	0.00061624	0.00398519	0.00755105
0.00106124	0.00202014	0.00068659	0.00140513	0.000562783	0.000625712	0.00419619	0.00739284
0.00119971	0.00202351	0.0006885	0.00127378	0.000552961	0.000616708	0.00404273	0.0073611
0.00117752	0.000910058	0.000669511	0.00127841	0.000547328	0.000630402	0.00426059	0.00668177
0.00146399	0.000752052	0.000678731	0.00126948	0.000508857	0.000598076	0.00423066	0.00611993
0.00131235	0.000760767	0.000683453	0.00129217	0.000538457	0.000614707	0.00439095	0.00606854
0.00127546	0.000758018	0.000665891	0.00141371	0.000547473	0.00061963	0.00477948	0.00568319
0.00129306	0.000760375	0.000614776	0.0014112	0.00054646	0.000620868	0.00432042	0.00530561
0.00142613	0.000752544	0.000619222	0.0013446	0.000545401	0.000619451	0.00427536	0.00514401
