0.00124271	0.00358382	0.00117149	0.000711555	0.00106967	0.00127788	0.00766177	0.00358159
0.00152604	0.00360345	0.00116029	0.000715982	0.00120073	0.00146498	0.00747654	0.00359681
0.00163986	0.00358918	0.00111856	0.000709842	0.00121735	0.00155439	0.00741155	0.00396398
0.0016254	0.00357352	0.00106744	0.000708427	0.00120448	0.0016123	0.00695347	0.00397424
0.00163456	0.00354906	0.00108005	0.000697757	0.00120737	0.00182618	0.00680558	0.00398066
0.00162198	0.00327171	0.00111527	0.000680448	0.00120382	0.00207868	0.00659073	0.00400353
0.00162133	0.00311126	0.00106163	0.000679412	0.00124591	0.00232424	0.00672783	0.00401444
0.00163686	0.00289665	0.00108779	0.00072678	0.00131086	0.00267988	0.00786873	0.0042857
0.00167733	0.00283243	0.00113669	0.000720021	0.00134832	0.00287787	0.00793414	0.00441605
0.00170818	0.00327217	0.00109281	0.000742691	0.00134484	0.00299728	0.00777833	0.00441269
0.0017157	0.00394518	0.00106472	0.000729455	0.00135424	0.00316116	0.00753988	0.00436346
0.00176969	0.00395787	0.00104989	0.000713747	0.00135326	0.00337102	0.0075144	0.00433507
0.00176689	0.0039504	0.000965099	0.000687459	0.00133023	0.00367309	0.00718613	0.00435975
0.00174401	0.00387991	0.000847255	0.000675273	0.00132987	0.00371092	0.00661448	0.004366
0.00177971	0.0034517	0.00084655	0.00067097	0.00134674	0.00361054	0.00590385	0.00416429
0.00176925	0.00326226	0.00083093	0.000633594	0.00129682	0.00359823	0.00496202	0.00313533
0.00177213	0.00316805	0.000844776	0.000622401	0.001216	0.00369377	0.00483236	0.00288785
0.00170721	0.00320761	0.000832779	0.000627411	0.00120325	0.00376774	0.00455867	0.00311542
0.00162213	0.00380103	0.000825378	0.000639274	0.00120489	0.0042035	0.0040744	0.00321715
0.00160209	0.00379345	0.000840163	0.000624987	0.00118416	0.00430396	0.00383902	0.00322146
0.00132497	0.00396512	0.000836755	0.00063095	0.00105744	0.00415486	0.00358068	0.00319179
0.00116515	0.00420855	0.000843118	0.000630106	0.0010269	0.00421544	0.00346949	0.00313388
0.00116364	0.00432054	0.000850841	0.000617425	0.00102909	0.00425812	0.00346506	0.0031129
0.00118511	0.00437697	0.000844449	0.000629818	0.0010142	0.00447334	0.00333224	0.00316359
0.00125049	0.00444574	0.000823919	0.000626448	0.00101734	0.00464627	0.00344735	0.00315407
0.00127483	0.00447442	0.000812626	0.000620362	0.000951232	0.00435633	0.0035546	0.00305406
0.00128588	0.00462631	0.000786475	0.000560874	0.000929608	0.00409949	0.00233914	0.00287726
0.00119014	0.0049406	0.000747541	0.000539465	0.000855507	0.00409108	0.00190305	0.00254668
0.00111605	0.00512114	0.000753456	0.000564349	0.000786963	0.00423725	0.00198092	0.00249552
0.00113031	0.00421435	0.000781217	0.000580156	0.000783604	0.00407743	0.00171767	0.00249497
0.00109891	0.00408531	0.000784015	0.000559852	0.000780739	0.00391768	0.00155749	0.00233202
0.00107553	0.00411779	0.000768855	0.000555194	0.000832343	0.00380705	0.00153758	0.00228042
0.0011174	0.00444599	0.000766807	0.000554949	0.000872198	0.00371036	0.00153623	0.00220062
0.00118329	0.00494872	0.000766043	0.000539037	0.000879309	0.0038245	0.00145641	0.00198432
0.00118363	0.00508353	0.000754907	0.000556042	0.000878183	0.00374587	0.0013339	0.0018494
0.00119804	0.00578297	0.000746318	0.000562365	0.000881191	0.00374007	0.00130988	0.00178818
0.00116711	0.00632725	0.000750064	0.000574189	0.000886175	0.00376298	0.00127712	0.00168449
0.00112122	0.0059921	0.000768591	0.000571806	0.000866512	0.00355124	0.00125561	0.00140986
0.0011165	0.00579958	0.000744698	0.000556174	0.000842072	0.00321656	0.00125713	0.00134448
0.00111709	0.00577633	0.000761935	0.00057196	0.000799	0.00321217	0.00124705	0.00132716
0.00117748	0.00645888	0.000767548	0.000569175	0.000834597	0.00312484	0.00125356	0.00118371
0.00126429	0.00673273	0.000761948	0.000568886	0.000811846	0.00310174	0.00125691	0.000940166
0.0013132	0.00736325	0.000760793	0.000570542	0.000822579	0.00295156	0.00124427	0.000884496
0.00125101	0.00782132	0.000761774	0.0005633	0.000844628	0.00279594	0.0011806	0.000711634
0.00123922	0.00836613	0.000773484	0.000548772	0.000910109	0.00294072	0.000894139	0.000697581
0.00124216	0.00866404	0.000766258	0.000565555	0.000912408	0.00299672	0.000881739	0.000704004
0.00125128	0.00876787	0.000737759	0.000568987	0.000907489	0.00293031	0.000846174	0.00068936
0.00135051	0.00880902	0.000721844	0.000540567	0.000969706	0.00270102	0.000583964	0.000696244
0.00142663	0.00926254	0.000708494	0.000525712	0.000991858	0.00296603	0.000558743	0.000670206
0.001551	0.0102879	0.000693632	0.000533371	0.00104245	0.00301093	0.000554438	0.000660759
0.0016125	0.0106279	0.000694619	0.000538939	0.00112014	0.00290299	0.000546462	0.000668267
0.00163477	0.0113048	0.000707316	0.000572241	0.00106862	0.00282946	0.00056337	0.000682928
0.00156722	0.0119707	0.000710898	0.000584233	0.00105552	0.00287579	0.000561706	0.000700402
0.00155744	0.0132204	0.000706939	0.000593069	0.0010606	0.00289337	0.000568905	0.000687033
0.00162606	0.0140361	0.000715134	0.000582353	0.00112406	0.00278463	0.00057988	0.000658249
0.00164174	0.0134338	0.000704298	0.000576914	0.00116055	0.00272315	0.000571863	0.000646815
0.00163618	0.0132211	0.000692899	0.000584861	0.00118044	0.00267366	0.000577967	0.000650076
0.00164276	0.0131873	0.000703105	0.000597373	0.0011931	0.00258478	0.000571889	0.000671758
0.00163085	0.0143777	0.000700302	0.000594714	0.00121146	0.00253509	0.000575221	0.000680889
0.00160393	0.014325	0.000689281	0.00058587	0.00123433	0.00250621	0.000553276	0.000675267
0.00154805	0.0139213	0.000685933	0.000577557	0.00135719	0.00246835	0.000547148	0.000690463
0.00147088	0.013772	0.000684411	0.000580662	0.00140686	0.00229993	0.000569189	0.000668371
0.00143522	0.0138446	0.000696283	0.000578235	0.00138556	0.0021378	0.000579772	0.000663168
0.00142454	0.0134108	0.000691123	0.000577621	0.00135896	0.001819	0.000581351	0.00066021
0.00149829	0.0131651	0.000682449	0.000580213	0.00135867	0.00168113	0.000582627	0.000649942
0.00159781	0.0138432	0.000686873	0.000585978	0.00149971	0.00163068	0.000578766	0.000642615
0.00162784	0.0155663	0.000675839	0.000579006	0.0015602	0.00164674	0.000575591	0.000647177
0.00171817	0.0157905	0.000654817	0.000571635	0.0016942	0.00145431	0.000575561	0.00064698
0.00156673	0.015049	0.000632535	0.000574611	0.00177621	0.00125381	0.000583899	0.000657713
0.00138899	0.0148082	0.000625309	0.000580319	0.00175579	0.00123211	0.000593018	0.000657793
0.00134786	0.0150831	0.000636262	0.000571398	0.00175863	0.00119459	0.000605056	0.000651223
0.0013606	0.014468	0.000621854	0.000578227	0.00191692	0.00103655	0.000625397	0.000651932
0.00132913	0.0130484	0.000626182	0.000560599	0.00204214	0.000978886	0.000634769	0.000657433
0.00131655	0.0125644	0.000661809	0.000572225	0.00211061	0.000978943	0.000630422	0.000692444
0.0012909	0.01199	0.000661435	0.000618348	0.00211981	0.00099768	0.000643355	0.000730127
0.00128716	0.0125438	0.000675986	0.000619445	0.00224693	0.00096825	0.000664395	0.000725885
0.00129676	0.0132256	0.000679965	0.000617702	0.00227498	0.000986415	0.000673139	0.000725901
0.00127306	0.011827	0.000683692	0.000615773	0.00225896	0.00105517	0.00068123	0.000719454
0.00126414	0.0112472	0.00069507	0.000637468	0.00223666	0.00110356	0.00069751	0.000731902
0.00124019	0.0108584	0.000694927	0.00069127	0.00214999	0.00111133	0.000688778	0.000743372
0.00124397	0.0105797	0.000702972	0.000747337	0.00228239	0.00115625	0.000691896	0.000790325
0.00126589	0.010174	0.000677716	0.000835795	0.00227504	0.00119312	0.00070045	0.000818569
0.00127563	0.00995625	0.000693298	0.000865072	0.00236453	0.00122916	0.000697509	0.000871728
0.00124543	0.00983123	0.000728709	0.000869792	0.00241142	0.00120433	0.00071432	0.00093467
0.0010545	0.00924063	0.000728091	0.000885498	0.00232566	0.00119214	0.000716569	0.00104485
0.00104341	0.00759814	0.000755998	0.000933869	0.00220138	0.00118984	0.00071172	0.00104525
0.00081013	0.00640283	0.000801283	0.000939623	0.00216977	0.00112084	0.000718707	0.00107293
0.000780825	0.00563537	0.000858065	0.00100656	0.0021073	0.00114655	0.000723962	0.00116251
0.000774057	0.00552591	0.00107966	0.00116032	0.00198113	0.0012549	0.000716797	0.00133903
0.000748228	0.00494117	0.00118536	0.00122851	0.00195769	0.00128604	0.000703668	0.00136213
0.000738815	0.00435781	0.00121987	0.00123863	0.00185919	0.00140539	0.000710832	0.00139216
0.000703569	0.00414056	0.00123393	0.00121844	0.00165597	0.00162751	0.000730547	0.00143005
0.000685436	0.00429859	0.00123096	0.001203	0.00155677	0.00165694	0.000755931	0.00142478
0.000642039	0.00418429	0.00119434	0.00119216	0.00151386	0.00178736	0.000836932	0.00143046
0.000639921	0.003806	0.00122973	0.00119909	0.00146452	0.00182514	0.000924914	0.00154745
0.000635494	0.00289636	0.00122059	0.00124253	0.00140601	0.00180251	0.000932942	0.00169305
0.00062145	0.00274813	0.00126566	0.00125211	0.00149714	0.00172271	0.000946141	0.0017972
0.000601146	0.00276716	0.00125385	0.00126246	0.00149041	0.00166521	0.000973791	0.00182009
0.000589599	0.0027171	0.0012505	0.00125099	0.00154025	0.00165362	0.000971213	0.00183571
0.00057487	0.00267898	0.00129135	0.00119329	0.001452	0.0016084	0.000983757	0.00182326
0.000701268	0.00103935	0.000708583	0.000626056	0.000640725	0.000843616	0.000334703	0.00119524
0.000766256	0.00100395	0.000810001	0.000722284	0.000677564	0.00094961	0.000479369	0.001174
0.000794601	0.000929145	0.00100188	0.000835599	0.000717966	0.000999738	0.000575155	0.00111798
0.000948812	0.000957244	0.0011067	0.000958487	0.000778501	0.00108448	0.000661938	0.00112882
0.00100087	0.000834659	0.00113753	0.00101674	0.000846563	0.00105538	0.000650975	0.00125239
0.000817758	0.000809919	0.00108077	0.000906608	0.000980898	0.00111208	0.000696395	0.00202347
0.000880223	0.000804166	0.000965217	0.000872466	0.000983838	0.00101004	0.000694926	0.00211486
0.000801035	0.000800932	0.000969785	0.000868166	0.000986815	0.00100758	0.000663862	0.00209391
0.000792534	0.00086696	0.000876347	0.000854637	0.000995806	0.000997982	0.000648433	0.00207318
0.000636481	0.00077134	0.000960924	0.000847678	0.00111805	0.000950484	0.000653714	0.00208264
0.000779355	0.000781722	0.00100364	0.000708987	0.00108718	0.000950512	0.000663604	0.00179818
0.000790463	0.000827577	0.0010297	0.000733487	0.00103985	0.000881979	0.000588544	0.00118044
0.000745481	0.00082052	0.00106903	0.000732844	0.00107782	0.000673124	0.000564197	0.00105482
0.000795899	0.000825301	0.00109694	0.000787938	0.00129399	0.000651171	0.000556675	0.00110207
0.000772627	0.000857472	0.00113752	0.000797196	0.00126501	0.000698143	0.000565862	0.00174435
0.000904647	0.000871023	0.00128735	0.00100605	0.00131406	0.000689947	0.000564485	0.00163171
0.000758378	0.000819333	0.00123726	0.001139	0.00141926	0.000802729	0.000571644	0.00152861
0.000908191	0.000777918	0.0012888	0.00129816	0.00150294	0.000842413	0.000565691	0.00151818
0.000929388	0.000839618	0.0012871	0.00131368	0.00155358	0.000791857	0.000571669	0.00152267
0.000898452	0.000778248	0.00134589	0.00138923	0.00140184	0.000760782	0.000549915	0.00138893
0.000922037	0.000663998	0.00131426	0.00138985	0.00155773	0.000756417	0.000547679	0.000762788
0.000740964	0.000646634	0.00104375	0.00128389	0.00143425	0.000787475	0.000523079	0.000811625
0.000746096	0.000697205	0.00101948	0.00119004	0.00135258	0.000689082	0.000522672	0.000801656
0.000557918	0.000684161	0.00115994	0.00113652	0.00118728	0.000721028	0.000567221	0.000816485
0.00053511	0.000688527	0.00118299	0.00130774	0.00110399	0.000774289	0.000554096	0.00122206
0.000506573	0.000703907	0.00104843	0.00127878	0.00107734	0.000804484	0.000555799	0.00125293
0.000524113	0.000792787	0.00102815	0.00129074	0.00095661	0.000743662	0.000618679	0.00136737
0.000543259	0.000755175	0.00120441	0.00158838	0.000954029	0.000704199	0.000646893	0.00129642
0.000569	0.000738125	0.00121117	0.00172804	0.00104431	0.000686214	0.000640676	0.00128758
0.000568684	0.000753284	0.00104186	0.00174954	0.00111843	0.000719569	0.000607922	0.00129633
0.00056832	0.000706043	0.00117836	0.00185886	0.00111712	0.000668244	0.000629722	0.000966686
0.000576442	0.000666373	0.00122128	0.00191106	0.00108865	0.00070828	0.000625926	0.00094818
0.000566072	0.000607576	0.00124673	0.00182838	0.0010404	0.000750137	0.000591829	0.0008227
0.000575842	0.000663613	0.00114758	0.00156511	0.00107777	0.000745955	0.000613436	0.00084937
0.000547249	0.000656209	0.00116869	0.00164844	0.00118803	0.000767985	0.00061553	0.000870464
0.000545689	0.000646613	0.00110041	0.00181689	0.00116594	0.000687185	0.000645796	0.000799021
0.000546409	0.000692708	0.000977321	0.00166463	0.0012873	0.000755046	0.000665554	0.000828559
0.000573483	0.000716593	0.00094689	0.00194315	0.00164866	0.000674381	0.000645498	0.000870593
0.000577249	0.000758576	0.000885419	0.00189101	0.00169351	0.000629934	0.000648784	0.000869666
0.000561374	0.000783692	0.000825229	0.00187268	0.0019919	0.000663338	0.000630652	0.000806537
0.000592904	0.000823365	0.000820395	0.00166006	0.00183756	0.000669144	0.000638148	0.000791314
0.00060866	0.00089871	0.000864889	0.00191409	0.00223336	0.00060829	0.000630504	0.000794591
0.000587174	0.000889373	0.00089857	0.00200312	0.00223111	0.000573484	0.000606829	0.000794105
0.000561154	0.000913658	0.000918219	0.00170172	0.00212992	0.000577244	0.000621791	0.000793726
0.000560099	0.000939523	0.000954067	0.00170754	0.00253956	0.000604229	0.000609978	0.000885055
0.000545888	0.000881173	0.000951934	0.00160535	0.00226012	0.000582925	0.00064413	0.000956866
0.000535361	0.000839983	0.000915863	0.00157954	0.00214674	0.000570309	0.000660292	0.00094515
0.000570553	0.000864239	0.000830754	0.00104127	0.00174508	0.00060867	0.000662611	0.000918084
0.000572966	0.000851612	0.000823162	0.000888054	0.00188136	0.000610795	0.000791989	0.000892663
0.000573615	0.000815906	0.000779874	0.000745555	0.00157762	0.000600343	0.00109776	0.00087191
0.000610993	0.000908662	0.0007628	0.000782719	0.00121148	0.000581061	0.00115211	0.000866718
0.000636313	0.00127756	0.000727706	0.000693482	0.00114694	0.00103113	0.00121264	0.000829627
0.000636479	0.00154319	0.000715683	0.00068439	0.00117326	0.00189939	0.00170642	0.000850226
0.000622775	0.00281373	0.000934767	0.000757058	0.00116911	0.00280197	0.00249372	0.00106487
0.000714497	0.00341612	0.000920155	0.000730425	0.000918405	0.00316138	0.00277377	0.00112734
0.000728068	0.00365509	0.00120597	0.000868131	0.000921818	0.00365312	0.00373051	0.00178092
0.000731859	0.00478282	0.00152846	0.000913147	0.000861185	0.00469367	0.00384419	0.00191463
0.000829866	0.00458329	0.00185566	0.000953983	0.000819899	0.00444221	0.00490038	0.00210844
0.000889496	0.00454858	0.00233797	0.00112831	0.000779258	0.00360945	0.00450499	0.00221821
0.000897398	0.00432419	0.0021391	0.00109219	0.000816348	0.00323525	0.00398132	0.00240729
0.000861256	0.00386088	0.00233915	0.00124362	0.000802507	0.00287808	0.00460384	0.00241822
0.000880363	0.00357403	0.00204321	0.00111095	0.000888205	0.00235451	0.00343459	0.0016974
0.000904294	0.00234919	0.00204615	0.00113328	0.000838144	0.00142771	0.00405783	0.00183458
0.000810428	0.00241282	0.00214492	0.00126129	0.000787273	0.00161114	0.00327918	0.00275061
0.000847205	0.00254831	0.00176761	0.0012114	0.000866906	0.00177634	0.00427736	0.00449729
0.000874757	0.00171257	0.00191559	0.00145718	0.000783774	0.00187789	0.00507866	0.00464927
0.000864854	0.00225085	0.00177839	0.00141897	0.000805038	0.00216418	0.00405394	0.00487119
0.00103734	0.00255577	0.00183238	0.00143063	0.00085108	0.0025398	0.00397272	0.00505014
0.000974636	0.00255635	0.00169045	0.00136738	0.000889887	0.00239391	0.00323633	0.00533824
0.000964467	0.00220882	0.00162269	0.00141173	0.000952126	0.00205736	0.00389063	0.00435264
0.000847785	0.00193936	0.00170876	0.00131452	0.000861301	0.00163443	0.00298127	0.00257833
0.000800042	0.00160581	0.0016139	0.00127857	0.000845024	0.00134231	0.00280413	0.00319719
0.000792728	0.00104946	0.0017527	0.00138773	0.000959234	0.00174899	0.00280366	0.00309963
0.000690699	0.00087523	0.00178066	0.001499	0.000798093	0.00148071	0.00282599	0.00295075
0.000716887	0.000866385	0.00168006	0.00145789	0.000853146	0.00158356	0.00256779	0.00256012
0.000715905	0.000901551	0.00140904	0.00121877	0.00085595	0.00157023	0.00167566	0.00261122
0.000698904	0.000928993	0.00140057	0.00124791	0.000893054	0.00157449	0.00155084	0.0025588
0.000687202	0.000934965	0.00146549	0.0013615	0.000945269	0.00143553	0.000749296	0.00169156
0.000605877	0.00083087	0.00129702	0.00124006	0.000894369	0.000902192	0.000757959	0.00245026
0.000544183	0.00071389	0.0012039	0.00112562	0.000906503	0.000862784	0.0007353	0.00258893
0.000511009	0.000760987	0.00115454	0.0011275	0.00077563	0.000716869	0.000781818	0.00243043
0.000500131	0.000743558	0.00119355	0.00110395	0.000970104	0.000751934	0.000752989	0.00254702
0.00050483	0.000695349	0.00115301	0.00101778	0.000962436	0.000751154	0.0006893	0.00234648
0.000515202	0.000738185	0.00107481	0.000901398	0.000982453	0.000739635	0.000695506	0.00271018
0.000538869	0.000774541	0.00106861	0.000936027	0.00100284	0.000745069	0.000675191	0.00196585
0.000521291	0.000847311	0.00102929	0.000912096	0.00105162	0.000724379	0.000670058	0.00193901
0.000545596	0.000869821	0.00101317	0.000889904	0.0010399	0.000736251	0.000641463	0.00185411
0.00055391	0.0010209	0.000965208	0.000852169	0.000963995	0.000690954	0.000681892	0.00194079
0.000604504	0.00119369	0.000861136	0.000815283	0.00095393	0.000745791	0.000694314	0.0020821
0.000592049	0.00116002	0.000789876	0.000722812	0.00087552	0.000757629	0.00065572	0.00167183
0.000601892	0.00115454	0.000735594	0.00070624	0.000775296	0.00070869	0.000665457	0.00166632
0.000611592	0.0011403	0.000794091	0.000739509	0.000793927	0.000751236	0.000609139	0.00164974
0.000587775	0.00114352	0.000793378	0.000733651	0.000869731	0.000777891	0.000607654	0.00165897
0.000556458	0.000966566	0.000810702	0.000828718	0.000810193	0.000780562	0.000587997	0.00141191
0.000504162	0.000835474	0.00082785	0.000812628	0.000803062	0.00069547	0.000606126	0.00114048
0.000509339	0.000830522	0.000893138	0.000930588	0.000822504	0.000619021	0.000623645	0.00112506
0.00054483	0.000873682	0.000938472	0.000829474	0.000848747	0.000626661	0.000610828	0.00107501
0.000566956	0.000862427	0.000881944	0.000857908	0.000897194	0.000609237	0.000613975	0.00118855
0.000576668	0.000860256	0.000904609	0.00095064	0.00105947	0.000587663	0.000619137	0.00107374
0.000596914	0.000858125	0.000871417	0.000900628	0.00108813	0.000608307	0.000655668	0.0012137
0.00147461	0.00201104	0.00130411	0.000845273	0.00097839	0.00136307	0.00681936	0.0016174
0.0014928	0.00201817	0.00131714	0.000821782	0.000973179	0.00135736	0.00685659	0.00164344
0.00150776	0.00207291	0.00133882	0.000838408	0.000973216	0.00139435	0.00679977	0.00164682
0.00152039	0.00208882	0.00133859	0.000847563	0.000985061	0.00147789	0.00679112	0.00169982
0.0015096	0.00209136	0.00132712	0.000831632	0.00100756	0.00167223	0.00705456	0.001811
0.00162635	0.0021176	0.00129478	0.000832252	0.00110123	0.00188108	0.00736321	0.00187948
0.00181014	0.00213609	0.00123905	0.000843488	0.00115254	0.00198835	0.00782571	0.00227388
0.00189883	0.00220587	0.00111287	0.000865689	0.00117572	0.00214996	0.00785396	0.00229921
0.00202301	0.00222614	0.00109402	0.000874184	0.00120497	0.00227464	0.0081646	0.00237349
0.00195354	0.00187312	0.00111245	0.000893281	0.00124979	0.00233286	0.00766025	0.00240352
0.00190218	0.00174664	0.00109686	0.000832716	0.00124625	0.00246757	0.00713028	0.00257664
0.00190433	0.00167985	0.00106338	0.000821259	0.00122831	0.00252347	0.00652769	0.00269088
0.00185695	0.00177353	0.00103342	0.00081104	0.00121014	0.00285112	0.00534899	0.0025206
0.00177634	0.00180286	0.000940092	0.000753768	0.00119451	0.00336412	0.00553511	0.00264413
0.00171109	0.0018713	0.000863071	0.000755595	0.00118572	0.00353947	0.00545842	0.00299311
0.00172599	0.00246243	0.000855158	0.000741241	0.0011856	0.00353774	0.00517926	0.00318369
0.00151198	0.00243102	0.000875438	0.000727047	0.00106327	0.00390976	0.00434267	0.00312148
0.00135352	0.00254647	0.00086515	0.000717014	0.000972377	0.0041121	0.00444743	0.00319792
0.00134217	0.00255633	0.000821789	0.000733234	0.000972757	0.00440055	0.00483137	0.00324325
0.00132211	0.0025387	0.000786427	0.000722063	0.000977479	0.00448382	0.00502757	0.00333867
0.00133449	0.00250056	0.000793709	0.000717548	0.000938532	0.00448598	0.0050923	0.00335913
0.0013597	0.00252521	0.000833938	0.000733624	0.000949434	0.00460871	0.00464651	0.00311092
0.00135437	0.0027196	0.000841402	0.000728873	0.000897417	0.0046072	0.00421777	0.00298784
0.00113721	0.00324339	0.000839773	0.000709488	0.000877604	0.00461851	0.00350504	0.00260338
0.00117534	0.00366896	0.000830119	0.000673165	0.000888103	0.00481698	0.00287126	0.00244055
0.00123144	0.00376558	0.000794158	0.000660469	0.000865624	0.00499889	0.00253588	0.00235059
0.00122198	0.00384077	0.000738862	0.000687769	0.000866271	0.00526818	0.00271407	0.00249595
0.00122507	0.00393646	0.000774978	0.000687588	0.000863424	0.0053024	0.00293971	0.00248763
0.00132105	0.00431678	0.000789145	0.000696109	0.000933573	0.00541426	0.00293916	0.00217383
0.00158176	0.00463748	0.000781615	0.000681741	0.00102485	0.00531842	0.0029333	0.00219633
0.00170731	0.00486527	0.000775884	0.000662379	0.00108211	0.00468164	0.00269626	0.00208851
0.00170912	0.00494023	0.000766344	0.000655223	0.00115078	0.00453885	0.0026319	0.00172832
0.00175101	0.00486162	0.000765891	0.000658444	0.00112152	0.00459632	0.00262993	0.00142484
0.0017199	0.00481702	0.000769793	0.000657018	0.00105448	0.00475222	0.00252735	0.00148535
0.00167762	0.00472108	0.000775224	0.000633677	0.00103108	0.00445562	0.00238489	0.00145498
0.0016691	0.00468133	0.00077309	0.000610636	0.00107099	0.00433131	0.00197327	0.00148538
0.00166685	0.00475577	0.000771783	0.000604808	0.00108179	0.00426212	0.0015942	0.0014113
0.0016486	0.00505046	0.000755565	0.000594388	0.00109051	0.00422242	0.00150648	0.00139042
0.00171261	0.00584055	0.000719042	0.00058241	0.00109833	0.00410102	0.0013804	0.00136338
0.00169631	0.00630397	0.000712747	0.000584455	0.00109184	0.0041821	0.00131229	0.00136187
0.00166336	0.00736331	0.000722441	0.000579576	0.0011158	0.0041796	0.00132387	0.00137503
0.00165939	0.00738839	0.000735257	0.000580572	0.00107382	0.00403735	0.00133541	0.00135407
0.00157998	0.00710668	0.0007451	0.000570021	0.00106707	0.00383128	0.00132534	0.0013683
0.00154716	0.00689271	0.000735367	0.000551012	0.00102295	0.00354365	0.00113432	0.00108127
0.0015482	0.00676102	0.000704752	0.0005257	0.000995836	0.00346167	0.000750544	0.00103306
0.00148272	0.00664651	0.000672576	0.000536933	0.000973293	0.0032403	0.000707305	0.0010384
0.001356	0.00671483	0.000681128	0.00055057	0.00092299	0.0031028	0.000679246	0.000983594
0.00111089	0.00719364	0.000697833	0.000555799	0.000882416	0.00310153	0.000598641	0.000964725
0.0011586	0.00779638	0.000705512	0.000564703	0.000823791	0.0032127	0.000603611	0.000970899
0.00128963	0.00788234	0.000704386	0.000551035	0.000792948	0.00315431	0.000624388	0.000969788
0.00145274	0.00790617	0.000697898	0.000536314	0.000796176	0.00266945	0.000621359	0.000894807
0.00152002	0.00853549	0.000687046	0.000543137	0.000798704	0.00255357	0.000599959	0.00082182
0.00153782	0.00916065	0.000692885	0.000546443	0.000792862	0.00274364	0.000573027	0.000700389
0.00155527	0.00985823	0.000695327	0.000547884	0.000754945	0.00269223	0.000573663	0.000673209
0.00180369	0.0105454	0.000692003	0.000562633	0.000797847	0.00269632	0.000575316	0.0006692
0.00186413	0.0105048	0.000702259	0.000571544	0.000820179	0.00265997	0.00058062	0.000654365
0.00188631	0.0112385	0.00070992	0.000573883	0.000839149	0.00251379	0.000569127	0.000660706
0.00196223	0.0111179	0.000684244	0.000569586	0.000841474	0.00233458	0.000577817	0.000661156
0.00204296	0.0106763	0.00064518	0.000570558	0.000863441	0.00214553	0.000572267	0.000651956
0.00197102	0.0117812	0.00063539	0.000562839	0.000922724	0.00199636	0.000565972	0.000661728
0.00200884	0.0126328	0.000634911	0.00057536	0.00104412	0.00189268	0.000567218	0.000653034
0.00214413	0.0136981	0.000648809	0.000577423	0.00108484	0.00176943	0.000575354	0.000638949
0.0022207	0.0148565	0.00066381	0.000573619	0.00115405	0.00173417	0.000582989	0.000632726
0.00219812	0.0146897	0.000645542	0.000555565	0.00112371	0.00176249	0.000578015	0.000626909
0.00234359	0.0139405	0.000636721	0.00056199	0.00117197	0.00172931	0.000567179	0.000634966
0.00247209	0.0137139	0.000624287	0.000570245	0.00122917	0.001487	0.000582523	0.000620607
0.00238358	0.0134482	0.000622214	0.00057834	0.00130594	0.0014036	0.000569371	0.000625167
0.0021451	0.0151924	0.000621107	0.000592642	0.00145864	0.00126113	0.000572099	0.000665027
0.00204628	0.0151649	0.000619696	0.000596885	0.00150192	0.00123151	0.000579991	0.000677568
0.00210647	0.0150466	0.000621273	0.00059625	0.00153962	0.001042	0.000582802	0.000701972
0.00211898	0.014441	0.000622719	0.000679669	0.00158424	0.00100206	0.000589202	0.000710929
0.00208829	0.0138213	0.000622684	0.000713096	0.00158636	0.00104647	0.000583391	0.000700673
0.00196995	0.0136551	0.000628359	0.00070906	0.00157177	0.00108622	0.000608866	0.000716409
0.00188277	0.0131629	0.000620703	0.00071775	0.00160191	0.00103879	0.000614331	0.00071878
0.00178687	0.0121711	0.000641405	0.000723704	0.0018518	0.000967188	0.000618683	0.00071449
0.00173219	0.01141	0.000665305	0.000725285	0.00193809	0.000971582	0.000617996	0.000746951
0.00169032	0.0115834	0.000705377	0.000771201	0.00193387	0.000991568	0.000625764	0.000739326
0.0016436	0.0108111	0.0007002	0.000810655	0.00194838	0.000991154	0.000632768	0.00072379
0.00152635	0.0101835	0.000735564	0.000810791	0.00211755	0.00091728	0.000640927	0.000752915
0.0013636	0.00937107	0.000763255	0.000854127	0.00226186	0.000924458	0.000659257	0.000759405
0.00135096	0.00907809	0.000803294	0.00088653	0.00233467	0.000882068	0.000688746	0.000794309
0.00124372	0.0101353	0.000825857	0.0008963	0.00235041	0.000886357	0.000691882	0.00084627
0.00102852	0.0104405	0.000844491	0.000938505	0.00242779	0.000912282	0.000682866	0.000858366
0.000996569	0.011326	0.000871023	0.000931532	0.00247394	0.00107882	0.000665869	0.000884935
0.000967161	0.0104775	0.000882991	0.000930162	0.00244526	0.0014386	0.000664709	0.000886489
0.000938989	0.00946891	0.000880058	0.000922559	0.0024383	0.00156246	0.000662795	0.000882565
0.000881945	0.00885247	0.000947212	0.000968064	0.00239077	0.00152905	0.00068174	0.00090794
0.000833685	0.00868672	0.0010605	0.000988974	0.00237314	0.00150427	0.000703059	0.000966309
0.000737772	0.00867078	0.00109282	0.000954551	0.00236184	0.00147728	0.000719574	0.000961611
0.000661896	0.00819778	0.0011086	0.000982464	0.00235883	0.00138105	0.000702417	0.000962153
0.000645257	0.00754513	0.00114405	0.00102637	0.00235841	0.00138545	0.000704905	0.000979533
0.000672916	0.00737595	0.00113518	0.00104167	0.00213533	0.00147106	0.000697177	0.000968231
0.000666173	0.00727515	0.00116507	0.00105605	0.00194086	0.00149789	0.000707456	0.00101156
0.00063664	0.00694894	0.00118678	0.00101669	0.00190111	0.00148255	0.000885625	0.00120792
0.000619448	0.00602226	0.00127055	0.000978685	0.0018391	0.00149301	0.000918769	0.00124028
0.000639801	0.00580869	0.00129073	0.000991865	0.00163525	0.00147047	0.000921451	0.00131934
0.000638875	0.00577906	0.00123453	0.000959936	0.00134183	0.00146883	0.000916777	0.00132576
0.000639064	0.00521008	0.00125821	0.000969658	0.00125398	0.00150842	0.0009024	0.00143486
0.000626192	0.0044619	0.00122962	0.000955915	0.00120883	0.00153682	0.000895705	0.00147003
0.000613251	0.00340631	0.00121718	0.000954467	0.0011793	0.00151846	0.000908597	0.0018551
0.000701268	0.00103935	0.000708583	0.000626056	0.000640725	0.000843616	0.000334703	0.00119524
0.000764967	0.00100536	0.000804827	0.000717276	0.00067044	0.000943483	0.00046982	0.00117494
0.000801692	0.000939099	0.000984785	0.000818881	0.000712087	0.000991562	0.000563065	0.00112955
0.000897067	0.000949338	0.00109904	0.000950413	0.000767012	0.00108282	0.000649623	0.00109102
0.00100553	0.000848701	0.0011073	0.00103666	0.000851177	0.00105976	0.000659209	0.00112713
0.000839405	0.00081996	0.00110946	0.000924503	0.000969651	0.00111059	0.000692929	0.00192986
0.000859176	0.00079944	0.00102227	0.000884371	0.000991394	0.00106377	0.000707853	0.00209394
0.000857645	0.000803501	0.000994369	0.000871863	0.00100038	0.00102928	0.000669475	0.00209762
0.000802206	0.000819023	0.000868448	0.0008749	0.00100165	0.000990271	0.000655753	0.00206586
0.000786128	0.000827787	0.000995553	0.000822991	0.00101701	0.000989334	0.000650001	0.00207553
0.000717318	0.000758659	0.00101465	0.000831352	0.00109042	0.000931555	0.000655683	0.00210208
0.000799306	0.000820399	0.00101805	0.000716319	0.00101638	0.000915287	0.000613726	0.00129364
0.000775879	0.000816683	0.0010646	0.000736755	0.00109913	0.00088489	0.000576176	0.00108019
0.000759727	0.000811796	0.00105567	0.000731261	0.00118634	0.000641135	0.000538914	0.0010392
0.000784846	0.000822067	0.001112	0.000798088	0.00129769	0.000667028	0.000548217	0.00123965
0.00079617	0.000872438	0.00113878	0.000856571	0.00131799	0.000714259	0.000573671	0.00173687
0.000864257	0.000866144	0.00128251	0.00108329	0.00130902	0.000710393	0.000559156	0.0015562
0.000745778	0.000796994	0.00124272	0.00115583	0.00144179	0.000808762	0.000578211	0.00153061
0.000916736	0.000779748	0.0012931	0.00129487	0.00148197	0.000834711	0.000561452	0.00152848
0.000929909	0.000837761	0.00128742	0.00131334	0.00154152	0.000791383	0.000570735	0.00152679
0.0008954	0.000777481	0.0013472	0.00139002	0.0013985	0.000762954	0.000549323	0.00140354
0.000930525	0.000664187	0.00131303	0.00140948	0.0015638	0.000746915	0.000548713	0.000767059
0.000741579	0.000643308	0.00105778	0.00134045	0.00141774	0.000775663	0.000531941	0.000813869
0.000742416	0.000707915	0.00103123	0.00121871	0.00140401	0.000699107	0.000520461	0.000796133
0.00058404	0.000697084	0.00116973	0.00112134	0.00121345	0.000727402	0.000555302	0.000798204
0.000535531	0.000676848	0.00118011	0.00114764	0.00112668	0.000777937	0.000548667	0.00119401
0.000542176	0.000680669	0.00107745	0.00131803	0.00107429	0.00078412	0.000565335	0.00122155
0.000511087	0.000789815	0.00102945	0.00131481	0.00100793	0.000789249	0.000573201	0.00130839
0.000527065	0.000772973	0.00113592	0.00152896	0.000937852	0.000735286	0.000639497	0.00133105
0.000549541	0.000722135	0.00118036	0.00167977	0.000951385	0.000679652	0.000649428	0.001326
0.000574072	0.000749906	0.00110242	0.00171597	0.00106443	0.000646052	0.000609614	0.00128605
0.000574579	0.000716174	0.00112783	0.00209962	0.00113844	0.000682798	0.000612859	0.00111055
0.000577488	0.000712788	0.00115908	0.0018074	0.00112475	0.000664165	0.000640833	0.000969828
0.000569137	0.00062367	0.00124998	0.00190263	0.00107115	0.000755061	0.000645518	0.000903523
0.000578498	0.000632733	0.00120827	0.00171898	0.00104152	0.000737874	0.000600008	0.000837448
0.00057027	0.000645266	0.00116086	0.00163491	0.00109278	0.000751796	0.000608931	0.000847634
0.000550065	0.000657597	0.00115931	0.00181131	0.00118705	0.000753462	0.000612718	0.000874122
0.000550824	0.000649862	0.00107914	0.00168221	0.00114748	0.000707195	0.000638346	0.000800811
0.000554534	0.000695442	0.000980096	0.0016661	0.00129058	0.000758579	0.00066101	0.000824399
0.000572757	0.000716419	0.000947868	0.00194518	0.00164795	0.000675156	0.000645496	0.000870693
0.000578542	0.000766134	0.000892076	0.00189864	0.00170271	0.000621568	0.000650034	0.000871314
0.000558002	0.000766188	0.000846555	0.0019045	0.00199278	0.000661291	0.000630867	0.000815976
0.000583777	0.000801828	0.00082269	0.00183809	0.00179599	0.000655814	0.000633257	0.000793249
0.000608138	0.000877232	0.000847982	0.00163903	0.00212564	0.000653007	0.000632106	0.000792575
0.000594509	0.000909307	0.000902129	0.00203901	0.00225697	0.000568783	0.000610185	0.000811902
0.000569261	0.000904174	0.000897845	0.00170847	0.00192963	0.000571588	0.000621265	0.000774067
0.000568768	0.000918491	0.000933145	0.00171306	0.00231424	0.000605491	0.000613289	0.000846527
0.000556757	0.000915372	0.000941065	0.00167932	0.00219672	0.000604802	0.000651964	0.000937636
0.000532239	0.000845685	0.000948765	0.00154903	0.00226715	0.000565426	0.000656984	0.000932227
0.000542153	0.000820736	0.000877912	0.00148139	0.00199779	0.000594912	0.000663189	0.000933568
0.000571668	0.000857848	0.00084633	0.000916887	0.00173519	0.000623406	0.000684878	0.000876184
0.000577765	0.000859771	0.000794629	0.000831043	0.00186986	0.00061539	0.00078516	0.000871092
0.000593016	0.00080899	0.000748015	0.000749742	0.00157854	0.000582942	0.00113347	0.000864202
0.000619757	0.00106095	0.000765539	0.000757361	0.00124505	0.000582395	0.00112918	0.00086886
0.000642257	0.00130477	0.000724733	0.000714307	0.00111822	0.00124913	0.00145142	0.000835034
0.000642384	0.00158927	0.000721143	0.000685011	0.00117372	0.00222311	0.00194771	0.000935494
0.000629386	0.0029182	0.000926371	0.000751007	0.00117242	0.00283516	0.00248516	0.00107582
0.00072008	0.00341834	0.000930793	0.000739201	0.000913807	0.00316915	0.0028182	0.0011236
0.000730775	0.0036748	0.00121167	0.000867809	0.000917566	0.00365951	0.00373785	0.00180493
0.000731559	0.00478735	0.00153334	0.00091482	0.00086153	0.00465884	0.00381864	0.00190344
0.000828889	0.00459225	0.00184676	0.000967126	0.000827894	0.00446753	0.00496478	0.00209053
0.000893095	0.00452024	0.00234156	0.00112778	0.000779152	0.00377706	0.00465549	0.00212859
0.000897742	0.00442287	0.00214425	0.00110096	0.000821195	0.00329187	0.00390693	0.0023896
0.000853441	0.00384892	0.0023083	0.00122733	0.000797096	0.00293369	0.00461677	0.00240245
0.000883428	0.00372762	0.00228284	0.00117063	0.000894258	0.00265272	0.00362254	0.00202323
0.000868705	0.00255107	0.00199931	0.00107014	0.000840114	0.00179415	0.00412737	0.00180133
0.000816406	0.00225965	0.00214934	0.00131486	0.00078979	0.00156647	0.00349996	0.00209953
0.000795455	0.00264942	0.00178663	0.00118185	0.000817386	0.00163954	0.00406135	0.00355349
0.000845168	0.00192168	0.00177461	0.00130851	0.000814238	0.00202199	0.00483696	0.00469544
0.000881301	0.00204863	0.00192745	0.00140825	0.000805775	0.00209183	0.00482749	0.00464823
0.00095214	0.00241241	0.00180234	0.00141304	0.000808721	0.00225423	0.00403686	0.00499892
0.00103815	0.00254921	0.00185664	0.00144993	0.000856442	0.00248148	0.00382494	0.00500358
0.000970393	0.00253969	0.00155182	0.00124042	0.0009554	0.00231664	0.00309468	0.00532084
0.000966728	0.00201629	0.00171676	0.0014835	0.000952823	0.00199832	0.003421	0.00403338
0.000851236	0.00189703	0.00169178	0.00127887	0.000853248	0.00150274	0.00284524	0.00266691
0.000790717	0.001428	0.00162183	0.00126237	0.00083136	0.00133659	0.00278671	0.00330312
0.000785579	0.00101924	0.001751	0.00138594	0.000940965	0.00177688	0.00280457	0.00304173
0.000696535	0.000876205	0.0017804	0.00149684	0.000798096	0.00147191	0.00283501	0.00294885
0.000715022	0.000863764	0.00168223	0.00145675	0.000856121	0.00158215	0.00256864	0.00255832
0.000728255	0.00089313	0.0014214	0.00125071	0.000848537	0.00157699	0.00167593	0.00259214
0.000698015	0.000923108	0.00136532	0.00122049	0.00088063	0.00157073	0.00153135	0.00252429
0.000695758	0.000938532	0.00143401	0.00132075	0.000936718	0.00148513	0.00077322	0.00180094
0.000630968	0.00082765	0.00131145	0.0012429	0.000833802	0.00106296	0.000753006	0.0022333
0.000554126	0.000717879	0.00126148	0.00116312	0.000917773	0.000871747	0.000762468	0.0025832
0.000525157	0.000774529	0.00116641	0.00117253	0.000808539	0.000799497	0.000777715	0.00238969
0.000495339	0.000767394	0.00117453	0.00108019	0.00086145	0.000711011	0.000745206	0.00253151
0.000512166	0.000720904	0.00125942	0.00110219	0.000970892	0.000757335	0.000743465	0.00251774
0.000500846	0.00067293	0.00114766	0.000929054	0.00096507	0.000723315	0.000687823	0.00253351
0.000536934	0.000774753	0.0011167	0.000926539	0.00101674	0.000799128	0.000695456	0.00264721
0.000532851	0.000798511	0.00103433	0.00092379	0.00103944	0.000709866	0.000683774	0.00186942
0.000538539	0.000878455	0.00102309	0.00086771	0.00104451	0.000744316	0.000630584	0.00195484
0.000542523	0.000878176	0.000966215	0.000886423	0.00103646	0.000737261	0.000674521	0.00200491
0.000589182	0.00111729	0.000912338	0.000850602	0.000966471	0.00068968	0.000674475	0.0021225
0.00060901	0.00118805	0.000829009	0.000774088	0.000940389	0.00074768	0.000694409	0.00202939
0.000590487	0.00116131	0.000750387	0.00064843	0.000889365	0.00074672	0.000651975	0.00163183
0.000603517	0.00116792	0.00074029	0.000704298	0.000750391	0.000708806	0.000662644	0.00165627
0.000602777	0.00115732	0.000781901	0.000736247	0.000805053	0.000758795	0.000614375	0.00163565
0.000587128	0.00114442	0.000793486	0.000736646	0.000869972	0.000775924	0.000608312	0.00164318
0.000558984	0.000976274	0.000803666	0.000835056	0.000809567	0.000781983	0.000586535	0.00142911
0.000508045	0.000846365	0.000823754	0.000815187	0.000802552	0.00069577	0.000604651	0.00113912
0.0010642	0.00172387	0.00149049	0.000861121	0.000743959	0.00106622	0.00824085	0.00366126
0.00110617	0.00157175	0.00150061	0.000852328	0.000711853	0.00117019	0.00847061	0.00424317
0.00103166	0.00155116	0.00143325	0.000891468	0.000707872	0.00121067	0.00876749	0.0049055
0.000999312	0.00179264	0.00139217	0.000884466	0.000698865	0.00132537	0.0088045	0.00521378
0.000969014	0.00167356	0.00141747	0.000912891	0.000722384	0.00152463	0.00827972	0.00543758
0.00110272	0.00187602	0.00150741	0.000990131	0.000778096	0.00173139	0.0073812	0.00519447
0.0014396	0.00195848	0.00152881	0.000987478	0.000796697	0.00202052	0.00754881	0.00496823
0.00155644	0.00203624	0.00134758	0.000932567	0.000812353	0.00233873	0.00742913	0.00505873
0.00156988	0.00222775	0.00125053	0.000967909	0.000906031	0.00252797	0.00795745	0.00527798
0.00165203	0.00226621	0.00116958	0.000945541	0.00091134	0.00287418	0.00709886	0.00500396
0.00169759	0.00234481	0.00114549	0.000911519	0.000932479	0.00305681	0.00665451	0.00546056
0.0017474	0.00235614	0.00113795	0.000913255	0.0009674	0.00317521	0.0069388	0.00596394
0.00167859	0.00234502	0.00112753	0.000919055	0.000928819	0.00350005	0.00653322	0.00575858
0.00164518	0.00294453	0.00107446	0.000918031	0.000899406	0.00390292	0.00629693	0.00568721
0.00164216	0.00334363	0.00105526	0.000892679	0.000926089	0.00406089	0.00558292	0.00490056
0.00162395	0.00323164	0.00106053	0.000870664	0.000953151	0.00411634	0.00521856	0.00465166
0.00161792	0.00316396	0.00103707	0.000824554	0.000967224	0.00416036	0.00467486	0.00376831
0.00160654	0.00333514	0.00100399	0.000780084	0.000957593	0.00442726	0.00450016	0.00362887
0.00153299	0.00347705	0.000960625	0.000712446	0.000939621	0.00438866	0.00450175	0.00318594
0.00132882	0.00325406	0.00079279	0.000628293	0.000863746	0.00423561	0.00386177	0.00308117
0.00103552	0.00349127	0.000806812	0.000651768	0.000837426	0.00456005	0.00375572	0.00312943
0.00108602	0.0035326	0.000799414	0.000656341	0.000862014	0.00451602	0.00365685	0.00306728
0.00111718	0.00343488	0.00078276	0.00061272	0.000797222	0.00480906	0.00316339	0.00282967
0.00110991	0.00362479	0.00081171	0.000613875	0.00082436	0.00478343	0.00295004	0.00291633
0.00118952	0.00431179	0.000790585	0.000592944	0.000852054	0.00475871	0.00233518	0.00228759
0.00119009	0.00448746	0.000796244	0.000582727	0.000882043	0.00460059	0.00214078	0.00203414
0.00123868	0.00461607	0.000800543	0.000568749	0.000894624	0.00427112	0.00181665	0.00191607
0.00128152	0.00386097	0.000806553	0.00056178	0.000876795	0.00401938	0.00179399	0.00188413
0.00130828	0.00362964	0.000804624	0.000564373	0.000827395	0.00429216	0.00182762	0.00167096
0.00139567	0.00356304	0.000796744	0.000571143	0.000823274	0.00425367	0.0016346	0.00166594
0.00135922	0.00370304	0.000781997	0.00055536	0.000829104	0.00407181	0.00142907	0.0016822
0.00132939	0.00429341	0.000775335	0.000557977	0.000837347	0.00385698	0.00138199	0.00152098
0.00133974	0.0044574	0.000755244	0.000575979	0.000849175	0.00396765	0.00143167	0.0014714
0.00138182	0.00450028	0.000756211	0.000590238	0.000886108	0.00383633	0.00144917	0.00145045
0.00137418	0.00501355	0.00078047	0.000583048	0.000862239	0.00359947	0.00142041	0.00134441
0.00137178	0.00570754	0.000772912	0.000585088	0.000923213	0.00353099	0.00129442	0.0013405
0.0013412	0.00653675	0.00075792	0.000556988	0.000924013	0.00296677	0.00106319	0.00160637
0.00130019	0.00681194	0.000743094	0.000565378	0.000906122	0.002933	0.00106427	0.00140221
0.00121527	0.006661	0.000747949	0.000551672	0.000869374	0.0030732	0.00101469	0.00126942
0.00122388	0.0065423	0.000719419	0.000540896	0.000838701	0.00306584	0.00103225	0.00127145
0.00127125	0.00665726	0.000712915	0.000554526	0.000896426	0.00301599	0.00102842	0.0012913
0.00137508	0.00754422	0.000694859	0.000586031	0.000892958	0.00268002	0.000926986	0.00126442
0.00137608	0.00860529	0.00071193	0.000581595	0.000908313	0.00244692	0.000924498	0.00116819
0.00135586	0.010109	0.000708795	0.000588037	0.000919828	0.00254865	0.000935199	0.00104363
0.00135368	0.0100617	0.000720323	0.000576204	0.000903015	0.00276789	0.000960487	0.00103079
0.00138731	0.00941806	0.000717542	0.000593427	0.000898687	0.00292287	0.0009406	0.0010408
0.0014636	0.00993265	0.000715752	0.000579393	0.000921669	0.00287415	0.000724513	0.00104865
0.00160535	0.0106989	0.00070833	0.000545437	0.000925877	0.00255333	0.000718912	0.00104163
0.00170879	0.0106792	0.000705283	0.000541377	0.0010191	0.00242433	0.000720568	0.00104412
0.00168178	0.0110089	0.000700127	0.000541255	0.00092654	0.0024147	0.000726868	0.000789922
0.00164695	0.0108983	0.000674982	0.000530331	0.00097276	0.00246811	0.000692877	0.00062381
0.0016704	0.0105691	0.000644104	0.000525336	0.000978631	0.00245809	0.000611644	0.000630747
0.00168755	0.0103456	0.000672161	0.000536237	0.000990877	0.00226128	0.0005986	0.000633267
0.00167533	0.0104151	0.000687988	0.000542635	0.000976252	0.00226648	0.000596583	0.000645561
0.00163289	0.0110189	0.000694112	0.000545739	0.000978156	0.00225346	0.00059397	0.000618845
0.00151984	0.0121993	0.000694002	0.000522736	0.000994377	0.00230359	0.000604854	0.000626179
0.00154213	0.0133007	0.000674728	0.000529249	0.00112032	0.00240639	0.000593939	0.000601599
0.00150929	0.0121415	0.000677952	0.000536492	0.00117398	0.00227056	0.000579668	0.000596136
0.0015942	0.0128678	0.000684588	0.000539325	0.00117359	0.00199052	0.000560655	0.000616257
0.00171939	0.0134261	0.000694499	0.000513061	0.00119858	0.00174752	0.000573476	0.000635252
0.00157763	0.0149721	0.000679699	0.000522687	0.00124204	0.00166816	0.000575463	0.000627588
0.00143625	0.0144286	0.000676451	0.000524864	0.00123348	0.00163726	0.000559359	0.000640969
0.00143645	0.0142431	0.000664421	0.000521744	0.0012253	0.00164653	0.000554093	0.000638469
0.00149042	0.0135428	0.000663302	0.000511765	0.00119699	0.00166961	0.000543109	0.000652315
0.00162478	0.0132499	0.000689083	0.000537089	0.00126538	0.00158405	0.000552255	0.000640763
0.00165959	0.0138558	0.00068936	0.000533695	0.00132137	0.00155439	0.000558481	0.000626096
0.00165074	0.0151393	0.000668062	0.000539979	0.00137519	0.00152986	0.000547267	0.000620505
0.00164709	0.017107	0.000672774	0.000541568	0.0014005	0.00158613	0.000549178	0.000626186
0.00169341	0.0167944	0.000663249	0.000539424	0.00140005	0.00155981	0.000537045	0.00063354
0.00169827	0.0149792	0.00065979	0.000544663	0.0013811	0.00139417	0.000540208	0.000656438
0.00166808	0.0140148	0.000643076	0.000518125	0.00134218	0.00132523	0.000539027	0.000665747
0.00172594	0.0141037	0.000627829	0.000509199	0.00135236	0.00130572	0.000548322	0.000659214
0.00167721	0.0128441	0.000627958	0.000532695	0.0013649	0.00130177	0.00054323	0.000680576
0.00163217	0.0139839	0.000618094	0.000650164	0.00145976	0.00127491	0.000540262	0.000671712
0.00175676	0.0125448	0.000642059	0.000685203	0.00143015	0.00132834	0.000540403	0.000679263
0.00179711	0.0117503	0.000645945	0.000699315	0.00141064	0.00135458	0.000544682	0.000727
0.00174223	0.0112418	0.000653337	0.000704773	0.00146301	0.00128401	0.000571583	0.000727466
0.00167426	0.0112102	0.000646634	0.000710937	0.0016595	0.00111111	0.000588285	0.000770067
0.00155316	0.0111377	0.000634835	0.000694189	0.00163297	0.00100485	0.000588972	0.000785292
0.00165145	0.0117707	0.000634482	0.000681989	0.00161137	0.000958277	0.000589521	0.000786012
0.00161355	0.0105264	0.000643701	0.000690009	0.00167486	0.00097422	0.000590664	0.0007921
0.00157717	0.0084102	0.000638532	0.000702511	0.00167844	0.000877273	0.000581414	0.000848708
0.00153281	0.00756659	0.00064966	0.00070256	0.00176383	0.000860345	0.000604674	0.000879422
0.00149164	0.00943974	0.000643943	0.000707837	0.00176611	0.000808101	0.000621906	0.000859689
0.00147403	0.0101186	0.000669752	0.000699062	0.00173361	0.000860612	0.000622473	0.000871934
0.00137829	0.00992745	0.00070693	0.000705337	0.00192282	0.000920476	0.000627945	0.000877423
0.00123689	0.00904431	0.000736594	0.000680998	0.00211039	0.000930017	0.000628337	0.000858932
0.00116072	0.00738103	0.000755912	0.000588053	0.00195314	0.000924769	0.000653852	0.000842567
0.00104214	0.00713758	0.000807582	0.000588691	0.00197339	0.000967595	0.000661952	0.000882006
0.000977064	0.00720004	0.000878493	0.000615433	0.00196251	0.00112027	0.000674188	0.000861576
0.000961633	0.00726812	0.000961422	0.000645814	0.00177668	0.00116689	0.000668394	0.000809764
0.00095388	0.00726135	0.00104591	0.000734407	0.00170107	0.00121188	0.000669202	0.000830939
0.00084686	0.00611571	0.00132208	0.000792914	0.00163615	0.00123846	0.00067248	0.000815596
0.000719235	0.00490486	0.00137984	0.000786557	0.00161156	0.00126415	0.000786877	0.00102037
0.00070545	0.00486314	0.00138595	0.000806825	0.0015596	0.00126277	0.000916814	0.00113241
0.000662786	0.00488372	0.00138981	0.000800632	0.00146879	0.0013948	0.000931757	0.00118359
0.000647304	0.00457707	0.00140561	0.000844761	0.00141123	0.00141907	0.00115393	0.00117803
0.000640202	0.00203707	0.00145816	0.000907143	0.00145843	0.0013997	0.00116937	0.0013688
0.000617085	0.00178316	0.00148849	0.00098135	0.0014289	0.00132202	0.00120376	0.00172334
0.000613691	0.00196574	0.00155647	0.00107069	0.00117283	0.00125199	0.0012367	0.00183701
0.000701268	0.00103935	0.000708583	0.000626056	0.000640725	0.000843616	0.000334703	0.00119524
0.000766322	0.00100408	0.000810358	0.000722493	0.000675946	0.000949191	0.000475169	0.00117531
0.000797163	0.000932768	0.000996065	0.00083454	0.000714578	0.000995505	0.000570799	0.0011212
0.000932082	0.000951047	0.00110666	0.000953515	0.000777787	0.00108077	0.000656592	0.00112589
0.00100539	0.000838445	0.00112024	0.00102041	0.000841212	0.00106241	0.000651015	0.00117035
0.000820797	0.000816628	0.00107932	0.000906049	0.000985469	0.00111141	0.000698887	0.00199713
0.000884984	0.000802759	0.000973881	0.000875175	0.000966433	0.00103765	0.000690541	0.00211412
0.0008212	0.000809812	0.000970844	0.000873288	0.00099197	0.00100812	0.000662296	0.00209583
0.000794919	0.000860321	0.000863965	0.000845653	0.000990237	0.00099436	0.00065033	0.0020704
0.00068924	0.000775631	0.0009728	0.000851546	0.00111416	0.000961807	0.000657992	0.0020498
0.000768403	0.000759844	0.000987159	0.000744699	0.00108162	0.000953079	0.000673476	0.00200358
0.00079046	0.000816234	0.00103266	0.000733923	0.00100571	0.000873886	0.000588001	0.00119951
0.00074111	0.000813607	0.001065	0.000738224	0.00109198	0.000689555	0.000573964	0.00105867
0.000788242	0.000823855	0.00111256	0.00076469	0.00122345	0.000655562	0.000537813	0.00106213
0.000784536	0.000832842	0.0011232	0.000782622	0.00128185	0.00066945	0.000556556	0.00170675
0.00091221	0.000883054	0.00125277	0.000940406	0.00133023	0.000685248	0.000556452	0.00168815
0.000767416	0.000866294	0.00126753	0.00110979	0.00132168	0.000797766	0.000557441	0.00153669
0.000866352	0.000782852	0.00127386	0.00127975	0.00150743	0.000820745	0.000568876	0.00153215
0.000932133	0.000832846	0.00128286	0.00129838	0.00153785	0.000803334	0.000584707	0.0015216
0.000889007	0.000778082	0.00130472	0.00136033	0.00145544	0.000772579	0.000558314	0.00147291
0.000923343	0.00070808	0.00137977	0.00142881	0.00148649	0.000760331	0.000566297	0.000807366
0.000760513	0.000646347	0.00110824	0.00140696	0.00143251	0.000780539	0.000534989	0.000792289
0.000744964	0.000703551	0.00103818	0.00124252	0.00144521	0.000694445	0.000518895	0.000779755
0.00059571	0.000693892	0.00110151	0.00111777	0.00126766	0.000747904	0.000559802	0.00079702
0.000537259	0.000681736	0.00118542	0.00114397	0.00113779	0.000765768	0.00054119	0.00116098
0.000545719	0.000683415	0.00109492	0.00132518	0.00106906	0.000780828	0.000566493	0.00122381
0.000509989	0.000784878	0.00102186	0.00131053	0.00102155	0.000791796	0.000562609	0.00131165
0.000527333	0.000773868	0.00112731	0.00152206	0.000939884	0.000734981	0.000636458	0.00132992
0.000551487	0.000723649	0.00118151	0.00168022	0.000956684	0.000677609	0.000652406	0.00132434
0.000575577	0.00074664	0.00108549	0.00171855	0.00105495	0.000641508	0.000607855	0.0012804
0.000567547	0.000715229	0.00113492	0.00210461	0.00113883	0.000674312	0.000616102	0.00101754
0.000562795	0.000712473	0.00116995	0.00179757	0.00112962	0.000659005	0.000638723	0.000972386
0.000565827	0.000613192	0.00124514	0.00189585	0.0010611	0.00076187	0.000640591	0.000874775
0.000582664	0.000636069	0.00118542	0.00152703	0.00107391	0.000743283	0.000607378	0.000851208
0.000562331	0.000648063	0.00116108	0.00160429	0.0010722	0.00075765	0.000600326	0.000862221
0.000547141	0.000663185	0.00117395	0.00190145	0.00119275	0.000753134	0.000624769	0.000866308
0.000541652	0.000669628	0.00101829	0.00147902	0.00118285	0.000731971	0.000643888	0.000842921
0.000559698	0.000708843	0.001012	0.00168826	0.00155402	0.000756847	0.000648256	0.000831424
0.000576987	0.000730587	0.000924762	0.00192069	0.00169174	0.000623486	0.00063228	0.000872113
0.000550923	0.000750097	0.000870186	0.00191195	0.00189031	0.000622043	0.000632461	0.000832812
0.000577617	0.000812944	0.00082577	0.00192884	0.00198009	0.000675601	0.000631483	0.000798956
0.000606276	0.000840617	0.000812087	0.00155344	0.00197878	0.00065597	0.000626098	0.000793692
0.000606037	0.000908526	0.000887371	0.00201718	0.00226982	0.000579984	0.000636773	0.000811284
0.000588702	0.000902228	0.000880262	0.00199795	0.00196287	0.000580435	0.000621903	0.00080215
0.000564909	0.00092759	0.000924637	0.00170707	0.0021663	0.000579434	0.00061533	0.000792308
0.000563874	0.00094167	0.000952124	0.00169312	0.00229043	0.000606139	0.000622444	0.000918856
0.000532789	0.00085589	0.000946511	0.00155082	0.00230535	0.000570918	0.000657054	0.000943197
0.000528783	0.00083734	0.000905687	0.00152764	0.00202533	0.000584006	0.000678683	0.000934334
0.000569449	0.000860614	0.000841703	0.00103817	0.00166925	0.000617792	0.000665198	0.000880991
0.000565079	0.000839933	0.000815072	0.000878871	0.0018675	0.000612998	0.000785107	0.000882622
0.000574176	0.000808125	0.000769655	0.000758367	0.00156409	0.000607882	0.00113338	0.000888833
0.000617645	0.00097613	0.000763879	0.000772211	0.00123246	0.00058234	0.00114538	0.000861834
0.000636662	0.00129623	0.000727075	0.000714027	0.00114132	0.00114303	0.00137484	0.000834003
0.000642722	0.00156635	0.00071707	0.000687346	0.00116584	0.00207224	0.00184806	0.000897047
0.000627429	0.0029098	0.000928571	0.000755005	0.00116807	0.00282519	0.0024885	0.00107549
0.000721528	0.00342013	0.000928161	0.000738237	0.000915163	0.0031708	0.00282141	0.00112268
0.00073557	0.00371027	0.00124132	0.00087042	0.000909767	0.00368221	0.00373135	0.00185457
0.000730279	0.0047506	0.00152996	0.000915207	0.000862736	0.00475504	0.00388832	0.00191578
0.000830054	0.00459112	0.00185591	0.000964559	0.000819653	0.00439359	0.00490094	0.00210802
0.000887356	0.00454732	0.00233599	0.00112816	0.00077791	0.00356111	0.00448157	0.00222792
0.000897458	0.00432352	0.00213903	0.00109248	0.000816369	0.0032348	0.00398235	0.00240712
0.000860885	0.00385945	0.00233779	0.00124546	0.000803772	0.00287876	0.00460184	0.00241684
0.000884968	0.00357976	0.00206655	0.00111736	0.000891593	0.00238349	0.00343569	0.0017218
0.000905424	0.0023501	0.00203064	0.00108615	0.000841654	0.00147129	0.00420071	0.00182756
0.000805145	0.00234752	0.00216001	0.00129116	0.000784961	0.00158112	0.00327561	0.00267688
0.000844911	0.00258176	0.00175822	0.00118929	0.000876318	0.00172943	0.00425083	0.00439553
0.00087696	0.00171626	0.00190349	0.00144298	0.00079116	0.00183871	0.00505147	0.00463724
0.000878525	0.002246	0.00176821	0.00139832	0.000807909	0.00216566	0.00410876	0.00484286
0.00103094	0.00255334	0.00185476	0.00142136	0.00084531	0.00248971	0.00403231	0.00503286
0.000986977	0.0025649	0.00175404	0.00147688	0.000877484	0.00240611	0.00325602	0.00525942
0.000969141	0.00242291	0.00156647	0.00128545	0.000949988	0.00211613	0.00383857	0.00446717
0.00085895	0.00193762	0.00168185	0.00141841	0.000858937	0.00187735	0.00299009	0.00283273
0.000808878	0.00161351	0.00163297	0.00126769	0.000851177	0.00140935	0.00282101	0.00307049
0.000809134	0.00108567	0.00173713	0.00138552	0.000944263	0.00153323	0.00280409	0.00313537
0.000689975	0.000893411	0.00173963	0.00144348	0.000797478	0.00153209	0.00278797	0.00297015
0.000713584	0.000853812	0.00169328	0.00143194	0.000876551	0.00150639	0.00268267	0.00268752
0.000729993	0.000881946	0.00150499	0.00138124	0.00084937	0.0015768	0.00176734	0.00258239
0.000702221	0.00091817	0.00136766	0.0012061	0.000867764	0.00156688	0.00156803	0.00241468
0.000703742	0.000945945	0.00141878	0.00134007	0.000922095	0.00152231	0.000829261	0.00195605
0.000631993	0.000851972	0.00133646	0.00126096	0.000847254	0.00111849	0.000744839	0.00195268
0.000555847	0.0007271	0.00126242	0.00119347	0.000918446	0.000870368	0.000764214	0.00258412
0.000523741	0.000773968	0.00116294	0.00117113	0.000814528	0.000812415	0.000777516	0.0023994
0.000495413	0.000767029	0.00117427	0.00108021	0.000862824	0.000711277	0.000745083	0.00253167
0.000513327	0.000725507	0.00125085	0.00109942	0.000965626	0.000755162	0.000742419	0.00249407
0.000501169	0.000674337	0.00114984	0.000936997	0.000971	0.000737194	0.00069399	0.00253872
0.000540847	0.00078611	0.00110796	0.000927642	0.0010055	0.000779202	0.000686911	0.00254263
0.000526337	0.000808431	0.0010368	0.000919206	0.00103843	0.000712706	0.000681608	0.00189634
0.000531349	0.000848312	0.00102754	0.00085696	0.00103705	0.000743457	0.000618182	0.00194506
0.00055285	0.000866528	0.000968011	0.000880781	0.000976823	0.000729646	0.000680459	0.00197052
0.000590883	0.00115508	0.000872871	0.00083668	0.000976717	0.000717037	0.00068392	0.00221283
0.00060451	0.00116523	0.000803895	0.0007459	0.000927716	0.000757124	0.000671762	0.00188461
0.000605735	0.00116362	0.000715976	0.000648025	0.000871898	0.000727358	0.000649659	0.00165598
0.000623744	0.00116447	0.000752301	0.000724691	0.000749771	0.00072614	0.000644557	0.00166426
0.000592134	0.00114375	0.000773082	0.000728585	0.00086289	0.000747759	0.000624513	0.00169337
0.000577567	0.00112582	0.000815934	0.000796778	0.000855156	0.000797445	0.000597315	0.00149495
0.000522659	0.000869275	0.000821406	0.000827252	0.000805893	0.000748497	0.000581681	0.00121571
0.000505593	0.00084582	0.000871298	0.000890395	0.00084488	0.000672686	0.000610284	0.00114145
0.000498381	0.000887955	0.000920914	0.000908112	0.000829711	0.000590423	0.000621401	0.00110117
0.000532689	0.00088678	0.000918861	0.000826224	0.000867548	0.000631567	0.000609253	0.00116518
0.000566756	0.000890688	0.000917838	0.000948485	0.000977588	0.000608187	0.000625188	0.00114674
0.00156799	0.0018329	0.00113067	0.00077424	0.00084819	0.00161928	0.00945712	0.00442812
0.00164744	0.00169068	0.00111623	0.000735973	0.000811458	0.00183767	0.00833037	0.00384758
0.00159631	0.00165453	0.00100373	0.000717664	0.000801408	0.00203116	0.00755148	0.00373239
0.00160194	0.00167036	0.000982831	0.00074317	0.000812876	0.00221155	0.00759185	0.00405407
0.00152867	0.00168575	0.000982382	0.000753436	0.000824986	0.00254101	0.00782327	0.00424022
0.00152328	0.00159545	0.000986568	0.000771758	0.000968081	0.0026964	0.00810508	0.00410559
0.00166249	0.00166056	0.000974393	0.000765399	0.0010079	0.0027339	0.00734462	0.00441011
0.00179156	0.00185608	0.000977377	0.000771689	0.00109013	0.00285124	0.00768363	0.00457864
0.00214393	0.00192474	0.000983779	0.00073489	0.00115023	0.00312993	0.00710325	0.00463206
0.0022648	0.00186062	0.000925727	0.000735422	0.00116371	0.00359899	0.00659956	0.00397774
0.00225762	0.0017809	0.000921049	0.000698247	0.00113411	0.00373681	0.00694927	0.00389022
0.0022435	0.00181044	0.000966216	0.000715584	0.00112212	0.004098	0.00793372	0.00440359
0.00225764	0.00176095	0.00097607	0.000725463	0.00109339	0.00437575	0.00768297	0.00440745
0.00223279	0.00211418	0.000993237	0.000702481	0.00109209	0.00439591	0.00639193	0.00412344
0.00217564	0.00238495	0.000946696	0.000678674	0.0010936	0.00445183	0.00610256	0.00415347
0.00189497	0.00243134	0.000906779	0.00066861	0.00106921	0.0043742	0.00580801	0.00368315
0.00174252	0.00251138	0.000826381	0.000611565	0.00106796	0.00412291	0.00576886	0.00364513
0.00179319	0.00266768	0.000832195	0.000623631	0.00106713	0.00422281	0.00574103	0.00359743
0.00178808	0.002818	0.000845708	0.000616035	0.00106853	0.00441234	0.00530194	0.00327527
0.00179993	0.00273579	0.000848709	0.000608675	0.00105016	0.00442464	0.00503493	0.00300297
0.00180438	0.00266604	0.000850564	0.000593193	0.000965917	0.00445151	0.00446075	0.00305457
0.00179543	0.00262997	0.00089454	0.000596419	0.000895358	0.00489574	0.00453527	0.00309473
0.00172907	0.00233979	0.000884764	0.000585357	0.000848045	0.00480492	0.00436638	0.00285215
0.00144655	0.00244364	0.000869665	0.000589448	0.000766173	0.00479816	0.00427523	0.00279155
0.00133881	0.00279551	0.000858388	0.000614814	0.000799413	0.00434931	0.00494567	0.00285838
0.00136202	0.00326214	0.000870787	0.000625035	0.000797938	0.00422413	0.00458796	0.00279439
0.00140263	0.0038056	0.000868909	0.000612065	0.000804541	0.00416129	0.00393094	0.00241001
0.0014087	0.00423951	0.00084387	0.00060755	0.000837335	0.00399379	0.00312367	0.00226051
0.0014292	0.00415334	0.000806057	0.000602091	0.00084154	0.00408343	0.00258216	0.00215548
0.00153624	0.0038553	0.000759639	0.000602987	0.000821447	0.00412689	0.00248493	0.00204157
0.00158886	0.00375754	0.000758381	0.00060608	0.00078059	0.00412177	0.0023712	0.0019322
0.00179542	0.00395254	0.000738553	0.000615021	0.000784995	0.00433964	0.00230228	0.00189717
0.00178492	0.00408537	0.000735589	0.000627065	0.000804985	0.00431936	0.00225607	0.00191321
0.00176342	0.00401749	0.000715724	0.000648903	0.000827943	0.0040848	0.00224228	0.00191224
0.00178449	0.00435121	0.000720908	0.000640412	0.000870827	0.00379556	0.0021794	0.00188703
0.00182561	0.00513929	0.000707091	0.000627209	0.000874202	0.00364638	0.00204045	0.00187183
0.0018122	0.00546361	0.000676468	0.000621938	0.000876976	0.00319131	0.00212549	0.00151539
0.0017779	0.00567906	0.000671135	0.000634713	0.000895206	0.0031592	0.00193638	0.00140549
0.00178559	0.00683988	0.000732959	0.000642133	0.000953864	0.00319873	0.00184707	0.00130811
0.00180149	0.00736817	0.000786164	0.000619046	0.000940929	0.00296156	0.00140991	0.00122527
0.00189458	0.00722557	0.000782222	0.000589941	0.000933149	0.00292799	0.0010762	0.00119793
0.00194372	0.00670911	0.000790261	0.000594786	0.000953721	0.00279279	0.00106778	0.00114667
0.00194279	0.00644796	0.000776218	0.000571902	0.000908422	0.00246677	0.00108089	0.00106373
0.00196729	0.00613436	0.000759638	0.000580645	0.000940651	0.00229202	0.00109343	0.000969441
0.0019434	0.0067549	0.000746899	0.000578282	0.00096048	0.00226908	0.00108822	0.000960136
0.00183268	0.00735116	0.000758424	0.000561583	0.000994871	0.00221331	0.00102616	0.000945868
0.00166702	0.00762854	0.000751381	0.000545233	0.00103224	0.0020551	0.00100415	0.000947518
0.00180433	0.00820828	0.000768169	0.000547926	0.00113357	0.00187735	0.00100383	0.000920284
0.0019009	0.00900299	0.000764585	0.000536339	0.00113935	0.00196192	0.00100562	0.000931159
0.00198535	0.0101508	0.000752812	0.000523505	0.00112458	0.00189759	0.000998864	0.000939736
0.0021792	0.00989526	0.000771764	0.000523877	0.00117982	0.00183116	0.000995443	0.000935506
0.0022297	0.00951723	0.000752479	0.000536421	0.00124814	0.00169113	0.000916881	0.000934593
0.00232446	0.0102182	0.000750795	0.00051841	0.00123626	0.00167994	0.000618513	0.000937702
0.0023274	0.0100663	0.000717742	0.000503323	0.00122427	0.00144815	0.000609889	0.000918258
0.00250812	0.00958127	0.000684275	0.000500263	0.00118329	0.00140817	0.000612755	0.000921023
0.00236405	0.0102787	0.000660057	0.000512259	0.00116363	0.00142396	0.000625711	0.000913598
0.00224255	0.0113122	0.000683224	0.000514962	0.00115	0.00154551	0.000619789	0.000846038
0.00225707	0.0118829	0.000675268	0.000514415	0.00116809	0.00163446	0.000608331	0.000737382
0.00236841	0.0136962	0.000678314	0.000516843	0.00134958	0.00170972	0.000609721	0.00065113
0.00270603	0.0141679	0.000687869	0.000515995	0.00136312	0.0016953	0.00061551	0.000656013
0.00283144	0.0134297	0.000694968	0.000513051	0.00134493	0.00154119	0.00062383	0.000672722
0.00287924	0.0134795	0.000708935	0.00051848	0.00143422	0.00152077	0.000595639	0.000667628
0.00275434	0.0140114	0.000718301	0.00052309	0.00139876	0.0015168	0.000594235	0.000657446
0.00261407	0.015078	0.000715813	0.000515804	0.00139208	0.00146064	0.000582844	0.000666094
0.00282733	0.0147741	0.000729414	0.000532725	0.00142853	0.00141135	0.000579639	0.000647469
0.0027548	0.0143206	0.00072848	0.000533746	0.00140027	0.00152106	0.00058025	0.000658014
0.00260944	0.0152295	0.000727032	0.000557436	0.00130199	0.00152744	0.000581513	0.000647306
0.00261399	0.0156355	0.000727874	0.00056163	0.00130106	0.00145942	0.000590365	0.000639959
0.00272518	0.0153522	0.000738286	0.000563145	0.00139902	0.00138852	0.000571881	0.000655658
0.00251178	0.0163073	0.000729776	0.00058305	0.00141292	0.00141099	0.000556557	0.000656175
0.0024161	0.0162239	0.000748026	0.000586806	0.00139657	0.00142565	0.000538839	0.000675119
0.00232502	0.0162349	0.000723195	0.000576124	0.00136963	0.0013599	0.000553567	0.000724649
0.00234996	0.0163071	0.000734586	0.000585498	0.00144981	0.00124338	0.000555169	0.000727071
0.00247806	0.0143633	0.000732978	0.000585264	0.00138355	0.00117931	0.0005353	0.000707587
0.00215754	0.0141783	0.000711834	0.000585524	0.00129158	0.00111693	0.000525849	0.00069466
0.0020547	0.0147716	0.000721827	0.000591736	0.00129396	0.00109525	0.000507499	0.000689388
0.00200595	0.0153795	0.000698288	0.000568525	0.00126593	0.00109073	0.00051387	0.000687617
0.00230217	0.0169636	0.000697618	0.00061972	0.00129111	0.00106251	0.000524796	0.000725281
0.00258241	0.0169148	0.000698563	0.000705242	0.00140226	0.00114057	0.00052217	0.000754846
0.00253657	0.0165579	0.000677584	0.000730417	0.00151819	0.00124033	0.000543819	0.000734525
0.00230098	0.0161721	0.00068292	0.000749668	0.00165713	0.00116243	0.000535634	0.000732757
0.00240445	0.0148746	0.000672582	0.000755665	0.00173147	0.00112504	0.000540631	0.000744747
0.00239099	0.0150605	0.000684167	0.000754599	0.00179515	0.00112873	0.000533713	0.000766573
0.00219018	0.0151375	0.000693476	0.000764075	0.0018417	0.00106698	0.000552335	0.000764462
0.00218195	0.0153147	0.000693236	0.000770874	0.00185856	0.00106206	0.000549579	0.000762781
0.00221919	0.0141845	0.000695198	0.00076141	0.00187392	0.00102351	0.000569472	0.000751903
0.00220375	0.0130754	0.000701023	0.000765166	0.00188872	0.00100391	0.000586752	0.000738475
0.00217061	0.012217	0.000690751	0.000771931	0.00183319	0.000997365	0.000590016	0.000739364
0.00206294	0.0119385	0.000706834	0.00080831	0.00179356	0.000961735	0.000604403	0.000729462
0.00194532	0.0114074	0.000751688	0.000902308	0.00179984	0.000922823	0.000617276	0.000790964
0.00188068	0.0105687	0.000782947	0.000945232	0.00183327	0.00091333	0.000629525	0.000832164
0.00184015	0.00992677	0.000833295	0.000975955	0.00187547	0.000888854	0.000638347	0.000835824
0.00159192	0.00801802	0.000873636	0.00101024	0.00191785	0.000968966	0.000639717	0.0008428
0.00110202	0.00680034	0.000874125	0.000953959	0.00178914	0.000920238	0.000661278	0.000807445
0.000926922	0.00529912	0.000890404	0.00093637	0.00164251	0.000823204	0.000650413	0.000809723
0.000923656	0.00472649	0.000885678	0.00100604	0.00148448	0.000892365	0.000673572	0.000916374
0.000742703	0.00460002	0.000890881	0.00098246	0.00136706	0.00106498	0.000690153	0.000956248
0.000667808	0.0041915	0.00089142	0.000986072	0.00137136	0.001053	0.00069009	0.000946381
0.000677649	0.00346821	0.000918993	0.00104307	0.0012979	0.00103516	0.000714794	0.000957658
0.000691071	0.00257685	0.00096714	0.00115526	0.00113243	0.0010235	0.000704764	0.000959978
0.000701268	0.00103935	0.000708583	0.000626056	0.000640725	0.000843616	0.000334703	0.00119524
0.000768792	0.00100332	0.000810468	0.000722127	0.000678407	0.000949469	0.000483324	0.00117175
0.000799366	0.000928434	0.00100238	0.000836062	0.000718239	0.00100006	0.000576761	0.0011169
0.000968388	0.00097126	0.0011066	0.000964764	0.000785631	0.00108678	0.000666237	0.00112539
0.00099765	0.00082991	0.00112745	0.00102252	0.000846617	0.00105579	0.000653121	0.00133073
0.000818394	0.000806279	0.00107586	0.000902837	0.000980095	0.00110437	0.000696088	0.00203487
0.000881388	0.000798144	0.000950659	0.000876479	0.000985645	0.00101025	0.000684645	0.00211672
0.000786866	0.000807029	0.000961834	0.000861532	0.000984589	0.00101214	0.00065407	0.00207718
0.000792193	0.000852168	0.000904705	0.000858853	0.00101261	0.000988443	0.000651495	0.0020783
0.000648698	0.000776203	0.000972761	0.000836182	0.00114143	0.000947613	0.000649914	0.0020728
0.000780066	0.000807825	0.00101384	0.000698943	0.001088	0.000950879	0.000644096	0.0016771
0.000786917	0.00083101	0.00106163	0.000736179	0.00106712	0.000891676	0.00058639	0.00114658
0.000754461	0.000829107	0.00104328	0.000717449	0.00110452	0.000634236	0.000547525	0.00104255
0.000795003	0.000818995	0.00110535	0.000795239	0.00129885	0.000658257	0.000551771	0.0011739
0.000784206	0.000873069	0.00111917	0.000849343	0.00127736	0.000709412	0.000569882	0.00173536
0.000862419	0.000865425	0.00128261	0.00108419	0.00131005	0.000712012	0.000560102	0.00155529
0.00074721	0.000784158	0.00124331	0.00116708	0.00146624	0.000809626	0.00057626	0.00152451
0.000919659	0.000807319	0.00128175	0.00129541	0.00150341	0.000822939	0.000569004	0.00152296
0.000917253	0.000818132	0.00127033	0.00130366	0.0014668	0.00078347	0.000573323	0.00152259
0.000923305	0.000753469	0.00137722	0.00139239	0.00139176	0.000738027	0.000562681	0.001171
0.000841808	0.000646572	0.0012068	0.00149299	0.00143985	0.000768049	0.000542704	0.000769546
0.000732491	0.000681005	0.00101923	0.00124482	0.00142569	0.000744226	0.000513679	0.000800686
0.000708023	0.000691777	0.00101515	0.00114307	0.00134781	0.000715703	0.000532318	0.000790361
0.00055365	0.000668082	0.00119534	0.00113977	0.00112228	0.000727658	0.0005512	0.000922647
0.00054528	0.000686827	0.00117906	0.00140078	0.00108066	0.000766085	0.000554209	0.00122728
0.000506916	0.000760192	0.00103369	0.00129596	0.00109399	0.000810735	0.000549435	0.00127862
0.000522783	0.000768706	0.00108157	0.00129234	0.00100377	0.000745855	0.000612994	0.00134433
0.000548108	0.000732208	0.00118596	0.00165044	0.000952793	0.000682837	0.000649145	0.00130817
0.000576985	0.000742877	0.00112386	0.00172793	0.00106678	0.000673346	0.000616165	0.00127597
0.000576541	0.000719483	0.00112184	0.0020549	0.0011458	0.000686044	0.000610119	0.00114399
0.000576997	0.00071306	0.00115925	0.00180575	0.00112481	0.00065982	0.000641045	0.000970223
0.000568431	0.000624342	0.00126093	0.00189355	0.00106778	0.000759632	0.000641744	0.000882004
0.000578739	0.000628281	0.00120079	0.00157485	0.00106063	0.000739516	0.000610758	0.00084908
0.000564861	0.000649971	0.00116019	0.00160466	0.00108228	0.000756761	0.000597125	0.000856439
0.000547103	0.000663217	0.00117435	0.00190196	0.00119255	0.000753112	0.0006246	0.000866814
0.000541502	0.000668164	0.00100749	0.00148634	0.00119102	0.000736294	0.000646309	0.000841664
0.000562521	0.000710509	0.00100688	0.00170512	0.00157422	0.000747384	0.000650596	0.000839756
0.000574032	0.000739604	0.000924302	0.00192063	0.00169989	0.000619881	0.000636775	0.000877154
0.000555491	0.000741681	0.000872967	0.00198938	0.00189865	0.000628307	0.000625935	0.000820657
0.000588074	0.000822732	0.000824292	0.00191878	0.00199097	0.000677431	0.000618413	0.000790807
0.00060006	0.000849026	0.000840545	0.00158255	0.0020017	0.000655513	0.000627517	0.000794786
0.000596515	0.000911401	0.000895818	0.00207162	0.00227431	0.000582758	0.000629648	0.000818813
0.000572916	0.000890642	0.000899144	0.00181375	0.00193066	0.000573907	0.000620897	0.000787285
0.000560523	0.000929957	0.000944614	0.00171084	0.00221121	0.000594481	0.000617827	0.000815855
0.000556245	0.000934996	0.00093357	0.00167058	0.0022044	0.000607685	0.000649927	0.000938396
0.000532646	0.000846362	0.000945359	0.00154874	0.0022576	0.0005655	0.000654377	0.000932705
0.000538702	0.000823924	0.000880684	0.00147399	0.00197959	0.000594599	0.000664927	0.000938171
0.000566128	0.000847889	0.000834362	0.000888109	0.00176428	0.000608821	0.000714451	0.00088461
0.000574631	0.000843458	0.000790167	0.000780451	0.00183237	0.000615279	0.00084269	0.000877786
0.000597182	0.000823283	0.000752044	0.000769818	0.00139302	0.000579189	0.00114637	0.000846254
0.000630707	0.00119459	0.000736382	0.000666018	0.00122721	0.000572546	0.00111431	0.000827695
0.00063944	0.00136022	0.000725892	0.000708268	0.00114055	0.00133364	0.00154025	0.000846098
0.00064803	0.0022498	0.000846849	0.000738651	0.0011646	0.00258572	0.0024521	0.00110265
0.000693124	0.00334603	0.000879585	0.000720167	0.000980093	0.0029727	0.00247632	0.00112513
0.00071935	0.00352119	0.000974805	0.000821447	0.000924306	0.0032567	0.00341547	0.00143642
0.000739395	0.00456984	0.00146656	0.000905988	0.000881502	0.00415687	0.00373574	0.00184862
0.000820293	0.00462717	0.00179654	0.000981412	0.000848642	0.00473974	0.00490364	0.00205027
0.000879659	0.00467219	0.00228344	0.00110966	0.000798166	0.00416477	0.0047216	0.00212939
0.000892463	0.00458	0.002162	0.00110913	0.000806287	0.00330763	0.00389662	0.0023139
0.000847397	0.0038613	0.00229679	0.0012299	0.000797347	0.00294338	0.00458244	0.00240306
0.000882408	0.00371931	0.00226176	0.00116831	0.000894839	0.00260571	0.00359405	0.0019742
0.000885198	0.00241342	0.00200954	0.00107191	0.000842355	0.00164666	0.00420089	0.00179025
0.000803004	0.00226934	0.00217423	0.00132266	0.000795892	0.00156928	0.00338185	0.00250484
0.000845633	0.00265435	0.00173822	0.00115636	0.000865803	0.00164767	0.00417713	0.00436695
0.000868506	0.00170505	0.00185709	0.00142189	0.000789486	0.00183726	0.00508716	0.00461792
0.000873279	0.00221907	0.00179911	0.00139938	0.000803334	0.00216927	0.00412639	0.00477983
0.00102138	0.00254966	0.00184786	0.00141374	0.000842339	0.00248041	0.00404093	0.00503691
0.000990376	0.00256475	0.00175661	0.00148969	0.000880237	0.00240588	0.00326484	0.00525879
0.000969002	0.00242923	0.00156652	0.00128313	0.000949677	0.00211697	0.00383035	0.00447225
0.00085943	0.00194013	0.00169037	0.00140896	0.0008592	0.00185003	0.0029951	0.00281526
0.00080327	0.00160387	0.00163488	0.00126589	0.000852528	0.00138748	0.00280146	0.00311578
0.000812102	0.00110622	0.00174763	0.00138578	0.000965789	0.00157665	0.00280123	0.00311987
0.000690182	0.000873805	0.00176358	0.00148047	0.000801044	0.00148849	0.00280934	0.00295024
0.000712111	0.000858196	0.00168406	0.00143539	0.000881087	0.00156452	0.00258534	0.00258497
0.000727774	0.000890457	0.00144755	0.00125794	0.000848644	0.00157442	0.00168242	0.00259091
0.00069635	0.000924035	0.00137468	0.00122675	0.000882691	0.00156917	0.00153487	0.00256758
0.000692303	0.000935774	0.00146759	0.00133233	0.000944291	0.00147613	0.000752178	0.00175942
0.00061782	0.000833029	0.00128832	0.00124426	0.000896855	0.000916246	0.000754042	0.0023746
0.000550099	0.000719363	0.00121922	0.00112075	0.000912412	0.000863545	0.000733875	0.00258765
0.00051167	0.000758213	0.00115194	0.00112926	0.000779279	0.000722165	0.000784388	0.00241534
0.000502137	0.000743202	0.0011909	0.00110461	0.000966348	0.000748501	0.000754332	0.00255149
0.000505802	0.000695755	0.00115476	0.00102607	0.000962517	0.000750874	0.000689511	0.0023503
0.000515687	0.000738344	0.00107419	0.000901446	0.000983256	0.000739585	0.000695706	0.00271055
0.000538433	0.000776776	0.00106417	0.000932288	0.00100187	0.000745093	0.000675185	0.00195481
0.000522725	0.00085653	0.0010322	0.000911105	0.00105046	0.000725445	0.000672085	0.00194749
0.000546264	0.000873446	0.00100567	0.000889937	0.00104174	0.000738179	0.000652596	0.00188552
0.000565359	0.00104391	0.000970413	0.000859583	0.000970358	0.000691353	0.000679885	0.00196877
0.00060946	0.00119968	0.000855177	0.000818144	0.00095469	0.000744345	0.000693523	0.00205837
0.000583576	0.00114726	0.000781999	0.000714579	0.000885699	0.000753135	0.000649513	0.00163603
0.000602271	0.00116178	0.000739938	0.000696988	0.000758579	0.000711618	0.000663665	0.0016607
0.000600961	0.00115357	0.000776844	0.000735961	0.00081459	0.000763308	0.000621446	0.00163167
0.000586767	0.00113766	0.000803113	0.000759957	0.000875003	0.000786976	0.000604714	0.00159533
0.000542545	0.000938031	0.000812542	0.000828639	0.000808384	0.000780856	0.000580427	0.00133633
0.000493084	0.000835304	0.000860198	0.000832121	0.000816616	0.000680818	0.000610201	0.00114449
0.000520228	0.000857896	0.000912034	0.000928279	0.000818648	0.000607743	0.000620602	0.0011064
0.000547132	0.000886704	0.000927981	0.000820043	0.000858116	0.00063436	0.000607088	0.00109896
0.000564888	0.000884194	0.000899237	0.000868465	0.000924294	0.000611262	0.000614924	0.00119552
0.000578074	0.00087354	0.000892823	0.000928163	0.00108155	0.00058303	0.000615474	0.00107931
0.000596053	0.000871884	0.000868685	0.000921382	0.00108113	0.000614943	0.00065754	0.00119989
0.000635474	0.000921849	0.000879655	0.000985993	0.00107103	0.000653062	0.000621128	0.0012122
0.00130057	0.00183117	0.00116855	0.000798375	0.000666819	0.00163355	0.00969162	0.00426439
0.00129054	0.00186056	0.00125418	0.000795024	0.000651852	0.0016627	0.0103203	0.0046516
0.00132993	0.001738	0.00127115	0.00077541	0.000642553	0.00171392	0.0104359	0.00498007
0.00135035	0.00148517	0.00124663	0.000767137	0.000636474	0.00176473	0.0101886	0.00517849
0.00132147	0.00145327	0.0011971	0.000717622	0.000616594	0.00176798	0.00848738	0.00451159
0.00134525	0.00156188	0.00114855	0.000721323	0.000605167	0.00195479	0.00862054	0.00436568
0.00138479	0.00152859	0.00106736	0.000724168	0.000565045	0.00201399	0.00833372	0.0043729
0.00139999	0.00150927	0.00104537	0.000705314	0.000549978	0.00241161	0.00775592	0.00426451
0.00139133	0.00151905	0.00106963	0.000671539	0.000568002	0.00263893	0.00719162	0.0042369
0.00144347	0.00149008	0.00094202	0.000691721	0.000566355	0.00287748	0.00645667	0.00423454
0.001456	0.00145693	0.000883051	0.000687875	0.000582343	0.00296567	0.00601276	0.0038324
0.00140984	0.00140191	0.000882893	0.000687037	0.000558455	0.00310366	0.00570753	0.00349709
0.00128482	0.00149263	0.000886848	0.00070016	0.000583457	0.00319841	0.00576055	0.00362063
0.00131541	0.00165353	0.000874492	0.000699781	0.000593012	0.00331584	0.00564312	0.00426801
0.00135049	0.00151184	0.0008878	0.000681722	0.000593772	0.0034574	0.00566685	0.00424724
0.00136422	0.00151279	0.000867473	0.000687604	0.000596542	0.00367576	0.00519708	0.00392989
0.00134861	0.00146827	0.000877136	0.000639099	0.00060707	0.00393679	0.00436409	0.00374159
0.0014238	0.00160197	0.000794045	0.000639894	0.00061133	0.00398807	0.00355595	0.00346726
0.00144444	0.00161111	0.000744177	0.000677721	0.000618242	0.00400148	0.00329223	0.00308012
0.00142429	0.00163051	0.000756213	0.0006845	0.000623874	0.00416277	0.00311649	0.00292814
0.00140978	0.00197334	0.000764707	0.000692501	0.000656926	0.00413923	0.00301435	0.00283143
0.00137935	0.0020284	0.00076063	0.000684082	0.000669275	0.00398655	0.00245442	0.00259579
0.00131654	0.00207331	0.000757379	0.000669022	0.000673385	0.00401935	0.00226083	0.00250345
0.00127134	0.0020719	0.000747546	0.000677211	0.000691637	0.0043272	0.00218801	0.00248922
0.00125307	0.00228415	0.000709204	0.00064648	0.000696679	0.00428893	0.00203247	0.00249882
0.00118622	0.00249039	0.000697083	0.000637965	0.000702772	0.00429843	0.00194354	0.00236968
0.00110725	0.00247882	0.00070724	0.000625589	0.000682526	0.00447012	0.00206966	0.00235531
0.00105899	0.00271842	0.000740612	0.000636146	0.000725599	0.0044941	0.00205908	0.00237756
0.00112955	0.00272853	0.000739623	0.000649494	0.000736396	0.00436643	0.00184922	0.00188941
0.0011071	0.00262549	0.000819529	0.000645484	0.000751493	0.00442665	0.00184935	0.00140917
0.00110403	0.00272701	0.000797976	0.000633049	0.000746674	0.00437055	0.00216533	0.00154814
0.00112174	0.0036501	0.000818934	0.000640066	0.000742938	0.00385067	0.00238822	0.00196539
0.00110456	0.00379825	0.000841359	0.000636292	0.000755766	0.00358103	0.00216378	0.001994
0.00112188	0.00424493	0.000842619	0.0006359	0.000775072	0.00357289	0.00202273	0.00191646
0.00109286	0.00504213	0.000835134	0.000603904	0.000784351	0.00363571	0.00200867	0.00186411
0.0010933	0.00529918	0.000827737	0.000612801	0.000768322	0.00360656	0.00202945	0.00181038
0.00112665	0.00516198	0.000820664	0.000625802	0.00073747	0.0036314	0.00195825	0.00183184
0.00108878	0.00605888	0.000834508	0.000609849	0.000727581	0.00385837	0.0019504	0.00186951
0.0010976	0.00641483	0.000843758	0.000609652	0.000765331	0.00423373	0.00182611	0.00185267
0.00111615	0.00697163	0.000856164	0.000595567	0.00076166	0.003783	0.00169251	0.00182267
0.00125831	0.00743878	0.000840319	0.000582399	0.000787478	0.00377231	0.00168785	0.00180188
0.00128923	0.00806121	0.000849957	0.000584604	0.000850562	0.0035161	0.00169174	0.00180905
0.00140829	0.0083388	0.000839387	0.0005917	0.000887144	0.00314711	0.00156558	0.00177177
0.00149075	0.00881988	0.000815563	0.000576143	0.000864431	0.00320228	0.0015141	0.00169993
0.00147747	0.0102127	0.000816058	0.000551074	0.000871303	0.00343191	0.00151277	0.0016678
0.00152828	0.0106748	0.000755682	0.000542879	0.000887583	0.00355281	0.00148391	0.00167492
0.00153103	0.0111281	0.000759244	0.000561483	0.000896067	0.00338882	0.00111646	0.00142917
0.00150071	0.0104205	0.000749335	0.000538145	0.000880569	0.00334751	0.000835059	0.00090038
0.00144907	0.0103403	0.000710565	0.000542478	0.000841504	0.0032663	0.000799452	0.000765174
0.00135437	0.0102739	0.000684426	0.000532372	0.000827986	0.00326217	0.000757043	0.00067523
0.00135505	0.00977261	0.000690703	0.000531605	0.000837432	0.00313703	0.000743717	0.000655727
0.00148434	0.00988427	0.000683949	0.000530392	0.000913466	0.00308712	0.000719412	0.000649204
0.00161375	0.0113183	0.00070775	0.000530346	0.000925703	0.00314109	0.000726419	0.000615521
0.00181655	0.0108037	0.000693336	0.000553345	0.000931106	0.00281577	0.000718282	0.000596795
0.00197809	0.0111413	0.000703103	0.000564068	0.00097782	0.0024388	0.000736295	0.000597933
0.00215601	0.0114319	0.000716228	0.000566592	0.000983391	0.00227687	0.000728696	0.00058981
0.00213335	0.0110917	0.000725077	0.000587688	0.000991968	0.0021035	0.000738634	0.000601518
0.00236826	0.0103395	0.000704619	0.000586193	0.000926979	0.00206442	0.000742789	0.000589041
0.00223951	0.0100694	0.000697661	0.000580896	0.000898777	0.00203704	0.000740855	0.000603332
0.0021462	0.00950033	0.000704011	0.000576889	0.0009253	0.00186463	0.00074382	0.000606348
0.00210783	0.00963108	0.000695111	0.000576438	0.000959028	0.00157408	0.000733498	0.000612157
0.00218131	0.00965326	0.000676197	0.000577687	0.00103146	0.00133582	0.000737383	0.000631276
0.00225036	0.00981819	0.000677786	0.000575512	0.00107535	0.00133508	0.00062054	0.000621277
0.0022617	0.0100525	0.000679054	0.000560754	0.00108018	0.00126636	0.000581976	0.000603062
0.00230477	0.0108733	0.000686313	0.000560376	0.00117185	0.00122145	0.000589875	0.000608475
0.00233938	0.0112128	0.000711452	0.00055836	0.00122489	0.00121703	0.000592705	0.000607345
0.00243571	0.0127077	0.000717624	0.000550244	0.00125597	0.00113627	0.000591487	0.000600972
0.00249692	0.0146096	0.000707848	0.000544577	0.00118448	0.00113163	0.000585492	0.00061875
0.00231296	0.0132903	0.000693099	0.000548288	0.0013167	0.00107066	0.000570486	0.000635774
0.00210619	0.0131987	0.000692824	0.000518699	0.00137392	0.00108699	0.000565679	0.000636006
0.00198676	0.0138199	0.000676996	0.000507218	0.00132675	0.00105592	0.000567339	0.000652762
0.00186241	0.0137963	0.000647721	0.000505112	0.00133271	0.00101528	0.000566883	0.000638586
0.00174489	0.0139827	0.000655123	0.000495472	0.00133294	0.000980144	0.000539259	0.000640213
0.00148943	0.015077	0.000644397	0.00049009	0.00136245	0.000980385	0.000531337	0.00066888
0.00157681	0.0167676	0.000639688	0.000490554	0.00139239	0.000958556	0.000514239	0.000657066
0.00180578	0.0174111	0.000622829	0.000481606	0.0013507	0.00102682	0.000524791	0.000667246
0.00189387	0.0171171	0.000596957	0.000481104	0.00128558	0.00115826	0.000539978	0.00063118
0.00188232	0.0169219	0.00058823	0.000477711	0.00130583	0.00114953	0.000536831	0.000632197
0.00184049	0.0162414	0.000591211	0.000487846	0.00134585	0.00111617	0.000549191	0.000626649
0.0018618	0.0160261	0.000589375	0.000493469	0.00138981	0.00110711	0.000539036	0.000669273
0.00182804	0.0161129	0.000585678	0.000508917	0.00134686	0.00111211	0.000545109	0.000684818
0.0017642	0.0169465	0.000581864	0.000521908	0.00151328	0.00112279	0.000552453	0.000727927
0.00163197	0.0158846	0.00056565	0.000521244	0.00161492	0.00110811	0.000567703	0.000791704
0.00148	0.0139638	0.000558344	0.000535602	0.00167875	0.0011	0.000579261	0.000774533
0.00148422	0.0134835	0.000557361	0.000521174	0.00160665	0.00109063	0.000572032	0.000766416
0.00147239	0.0132512	0.000572925	0.000551316	0.00157624	0.00111839	0.000571767	0.000777659
0.00142408	0.0118507	0.000591607	0.000566555	0.00158424	0.00112075	0.000571184	0.000774958
0.00154107	0.0112881	0.000617275	0.000576821	0.00161634	0.00108783	0.000593921	0.000783978
0.00163313	0.0106372	0.000627032	0.000597826	0.00164221	0.00114994	0.000606049	0.000799704
0.00167746	0.0102556	0.000663344	0.000658271	0.00185142	0.00118877	0.000621315	0.000796231
0.00161317	0.00847987	0.000683538	0.000704116	0.00188491	0.00120063	0.000634255	0.00083328
0.00135028	0.00752317	0.000733939	0.00073199	0.00192958	0.00105071	0.000614057	0.000854261
0.00123221	0.00668117	0.00076336	0.000753496	0.00196306	0.000939075	0.00059003	0.000864395
0.00110188	0.00660567	0.000801075	0.000767844	0.00186717	0.000953569	0.000588516	0.000892629
0.00103376	0.00662783	0.000877592	0.000919038	0.00180281	0.000988101	0.000614742	0.000908328
0.0010001	0.00629628	0.000999655	0.000989314	0.00175029	0.000999405	0.000603297	0.000917077
0.000999671	0.00515341	0.0010174	0.0010283	0.00170876	0.00116778	0.000617571	0.000917045
0.00101834	0.00351359	0.00105922	0.00105053	0.00151257	0.00168355	0.000631057	0.000888156
0.00100024	0.00287775	0.00113408	0.00109603	0.00141208	0.0017204	0.000630444	0.00086149
0.000985085	0.00280261	0.00116445	0.00115257	0.0014068	0.00170251	0.000651574	0.00109844
0.000701268	0.00103935	0.000708583	0.000626056	0.000640725	0.000843616	0.000334703	0.00119524
0.00076109	0.00100606	0.00080566	0.00071482	0.000669714	0.000941596	0.0004646	0.0011765
0.000803648	0.000944276	0.000982909	0.000804055	0.000708504	0.000989427	0.000556103	0.00113541
0.000854314	0.000920844	0.00108055	0.0009448	0.000762717	0.00106503	0.000641472	0.00107293
0.0010123	0.000857059	0.00109971	0.00101705	0.000850232	0.00106578	0.000658765	0.00111595
0.000845092	0.000815207	0.00110291	0.000975123	0.000917848	0.00110434	0.000687202	0.00193329
0.000836698	0.000810209	0.00102631	0.000890394	0.000995602	0.00107201	0.000710519	0.0021053
0.000871392	0.000819127	0.000977876	0.000879567	0.0010009	0.00103385	0.000682272	0.00209429
0.000793216	0.000818901	0.000923873	0.000858957	0.000990222	0.000990808	0.000658063	0.00207546
0.000785831	0.000841283	0.000947272	0.000856451	0.00100922	0.00099955	0.000645123	0.00207973
0.000648801	0.000773345	0.000984829	0.000838287	0.00113046	0.000947645	0.000663402	0.00210977
0.000783618	0.000807576	0.00101373	0.000700737	0.00108863	0.000950986	0.00064246	0.00165784
0.000788569	0.000827386	0.00103787	0.000736351	0.00104171	0.00088877	0.000587935	0.00117145
0.000747575	0.000821518	0.00107129	0.00073752	0.00108537	0.000680532	0.000567508	0.00105695
0.000791311	0.000824904	0.00110435	0.000780957	0.00124832	0.000656583	0.00054794	0.00107884
0.000779595	0.000836068	0.00111388	0.000797103	0.00128117	0.000674297	0.000562935	0.00172644
0.000912729	0.000884355	0.00124572	0.000941966	0.00132704	0.000684386	0.000556524	0.00169307
0.000776729	0.000879007	0.00126269	0.00110777	0.00132464	0.000793594	0.000553693	0.0015307
0.000852546	0.000781539	0.00124095	0.00122688	0.00150661	0.000808263	0.000568354	0.00154759
0.000924207	0.000835577	0.00128148	0.00129139	0.00153902	0.000796597	0.000584812	0.00152036
0.000904289	0.000803819	0.0012518	0.00132879	0.00144213	0.000787185	0.000560667	0.00149284
0.000913855	0.000746092	0.00139243	0.00140865	0.00140845	0.000742593	0.000571871	0.00103104
0.000837095	0.000647486	0.00120585	0.00148748	0.00144125	0.000768078	0.000541401	0.000767969
0.000734224	0.000675909	0.00101385	0.0012496	0.00143468	0.000757463	0.000514418	0.00080378
0.000743812	0.000700648	0.00102826	0.00117862	0.00135122	0.000695078	0.000524722	0.000800941
0.000559636	0.000680131	0.00115951	0.00113617	0.00119121	0.000724328	0.000564989	0.000821256
0.000535379	0.000687733	0.00118782	0.00127634	0.00110792	0.000779031	0.000549174	0.00123387
0.000528325	0.000697016	0.00106474	0.00127437	0.00107892	0.000793395	0.000568796	0.0012341
0.000501994	0.000793993	0.00103784	0.00132772	0.000950193	0.000775048	0.000603504	0.00133716
0.000533862	0.000760383	0.00119756	0.00154851	0.00096047	0.00073324	0.00064009	0.00130329
0.000557784	0.000723917	0.00118537	0.0017	0.00096567	0.000679504	0.000641478	0.00132016
0.000574523	0.00074848	0.00106609	0.00172081	0.00106171	0.000640487	0.000609142	0.00128335
0.000570676	0.00071579	0.00113122	0.00210535	0.0011374	0.000678467	0.0006166	0.00103988
0.000572601	0.000714652	0.00116189	0.00180234	0.00112924	0.000655418	0.000642568	0.000970941
0.000568931	0.000624091	0.00124827	0.0019022	0.00107157	0.000753742	0.000645338	0.000898045
0.000578519	0.000632627	0.00121153	0.00174914	0.00104261	0.000738097	0.000599753	0.000837846
0.000569585	0.000644176	0.00115589	0.00163396	0.00108395	0.000750811	0.000610219	0.000848502
0.000548677	0.000649931	0.00116586	0.00175933	0.00119485	0.000759404	0.000609902	0.000878786
0.000545885	0.000646638	0.00110036	0.00181629	0.00116584	0.000687908	0.000645816	0.000798931
0.000547422	0.000678896	0.000979596	0.00166259	0.00128624	0.000761375	0.000662417	0.000822882
0.000572728	0.000698197	0.000966779	0.00197608	0.00163198	0.000704739	0.000648886	0.000873366
0.000580784	0.000758253	0.000906078	0.00191813	0.00170915	0.000622213	0.000644428	0.000872521
0.000556717	0.00074614	0.000865231	0.00194803	0.00197853	0.000639322	0.000627557	0.000824411
0.000586065	0.000822907	0.000829125	0.00190342	0.00184553	0.000661961	0.000628827	0.00079676
0.000602459	0.000851675	0.000840173	0.00158293	0.00200165	0.000654265	0.000625071	0.000797778
0.000596638	0.000912671	0.000894885	0.00206679	0.00225888	0.000575963	0.000627892	0.000816782
0.000583061	0.000895374	0.000888764	0.00198377	0.00194683	0.000582432	0.000620521	0.000799432
0.000565998	0.000926353	0.000932207	0.00170921	0.0021734	0.000584933	0.000616167	0.00078964
0.000560118	0.000941552	0.000952461	0.00169396	0.00230692	0.000602535	0.000620277	0.000910256
0.000542512	0.000861204	0.000945887	0.0015672	0.00229288	0.000572581	0.00065164	0.000942835
0.000533265	0.000846002	0.000909555	0.00157912	0.00209833	0.000574389	0.00066746	0.00093556
0.000564758	0.000857137	0.000838552	0.00105637	0.00174469	0.000609472	0.000663168	0.000915639
0.000573316	0.000859808	0.000827419	0.000891053	0.00186303	0.000616797	0.000783269	0.00088475
0.000563909	0.00081488	0.00077653	0.000756265	0.00161796	0.000602612	0.00103991	0.000875858
0.000597071	0.000824719	0.000762974	0.000777722	0.001279	0.000579157	0.00114965	0.000864905
0.00062661	0.00119773	0.000734129	0.000658182	0.00121237	0.000574592	0.00111336	0.000825067
0.000641479	0.00135186	0.00071713	0.000718036	0.00113625	0.0013022	0.00154421	0.00084697
0.000649528	0.00197009	0.000762466	0.000726108	0.00117826	0.00250658	0.00242073	0.00109524
0.000675607	0.00313003	0.000892324	0.000724385	0.00105004	0.00291502	0.0025074	0.00109001
0.000710204	0.00348502	0.000939929	0.000774571	0.000906031	0.00318237	0.00299946	0.00112561
0.000730599	0.00388032	0.00133896	0.000887348	0.000861058	0.00380287	0.00375969	0.00190963
0.000740619	0.00468907	0.00153679	0.000924945	0.000864239	0.00483788	0.00415799	0.00193262
0.000825124	0.00458913	0.0018744	0.000991459	0.000813978	0.00429908	0.00485101	0.00212155
0.000889397	0.00454432	0.00233681	0.00112807	0.000777506	0.00353135	0.00446515	0.00223829
0.000893158	0.00433853	0.00213542	0.0010909	0.00081421	0.00325375	0.0039335	0.00241673
0.00086504	0.00385805	0.00230948	0.00124067	0.00080042	0.00289705	0.00467373	0.00240271
0.000879565	0.00368696	0.00218043	0.00114134	0.000896635	0.00249434	0.0035106	0.00187648
0.000877737	0.00245445	0.00201463	0.00107263	0.000839096	0.00167817	0.00419765	0.00179098
0.000813818	0.00225851	0.00215087	0.00132636	0.000792643	0.00156608	0.00346023	0.00216971
0.000795967	0.0026489	0.00178677	0.00118209	0.000816801	0.00163928	0.00406165	0.00353874
0.000836551	0.00190809	0.00177315	0.00130238	0.000817303	0.00204185	0.00477639	0.00468778
0.000883582	0.00202945	0.00191394	0.0014638	0.000812536	0.00205773	0.00491709	0.00463988
0.000935676	0.00235861	0.00179489	0.00141492	0.000805183	0.00218134	0.00403475	0.00498102
0.00104768	0.00255212	0.00183823	0.00143455	0.000856681	0.00251426	0.00390305	0.00504773
0.000969404	0.00254908	0.00166154	0.00126506	0.000946826	0.00236103	0.00310515	0.00531777
0.00096402	0.00206985	0.00164985	0.00143746	0.000948482	0.00205227	0.00384689	0.00428997
0.000848022	0.00193938	0.0017085	0.00131317	0.000861262	0.00163065	0.00297966	0.00257618
0.000802831	0.00160601	0.0016324	0.00126139	0.000853401	0.0013961	0.00278363	0.00317769
0.00081302	0.001104	0.00174663	0.0013856	0.000959552	0.00155362	0.00280179	0.00312773
0.000690116	0.000894337	0.00173966	0.00144213	0.000797336	0.00153214	0.00278804	0.00297034
0.000715102	0.000863542	0.00170545	0.00143465	0.000855009	0.00149145	0.00275658	0.00268999
0.000726419	0.00088874	0.00156356	0.0014191	0.00084648	0.00159096	0.00207965	0.00258963
0.000708564	0.000913026	0.00133184	0.00118519	0.000846879	0.00157054	0.00163929	0.0024444
0.00070308	0.000947676	0.00144018	0.00138064	0.000917124	0.0015343	0.00123494	0.00216273
0.00067075	0.000907791	0.00143568	0.00137596	0.000881171	0.00121067	0.000761996	0.00168904
0.000583442	0.000771271	0.00132935	0.00125664	0.000914016	0.000849901	0.000747202	0.00257237
0.00053449	0.000723678	0.00120611	0.00113424	0.000894807	0.000853872	0.000748364	0.00253872
0.000502808	0.000756961	0.00116946	0.00111105	0.000774344	0.000711204	0.000760165	0.00245116
0.000502394	0.000741647	0.00119634	0.00110544	0.000968861	0.000759418	0.000751318	0.00255327
0.000507045	0.000696275	0.0011569	0.00103502	0.000961047	0.000750538	0.000688131	0.00236075
0.000510859	0.000716983	0.0010873	0.000873352	0.000950584	0.00074584	0.000707624	0.00265206
0.000544855	0.000772073	0.00110981	0.000940253	0.000984784	0.000753416	0.000688737	0.0021595
0.000523599	0.000818431	0.00103002	0.000917148	0.00104123	0.000712737	0.000683673	0.00192142
0.000532817	0.000847941	0.00102606	0.000856112	0.00104448	0.000741594	0.000618804	0.00192134
0.000553747	0.00089976	0.000970072	0.00087802	0.000949674	0.000724577	0.000682819	0.00196644
0.000591574	0.001155	0.000873507	0.00083806	0.000977505	0.000714275	0.000683195	0.00220901
0.000602092	0.00117221	0.000809768	0.00076716	0.000932487	0.000763782	0.000680834	0.00189657
0.000586334	0.00116016	0.000735265	0.000630277	0.000884101	0.000722029	0.000650511	0.00164574
0.000609207	0.00116728	0.000756128	0.000710709	0.000750876	0.000714435	0.000663002	0.00167985
0.000592566	0.00114075	0.000769522	0.000744242	0.000846759	0.00075491	0.000628449	0.00163581
0.00117472	0.00147993	0.00093697	0.000765009	0.000849994	0.00131787	0.00881107	0.00587869
0.00116027	0.00151631	0.000924983	0.000789235	0.000897352	0.00146114	0.00894568	0.00580238
0.00119181	0.00161776	0.000950263	0.000812555	0.000924723	0.00162789	0.00933556	0.00602344
0.00122915	0.00164769	0.000932536	0.000782956	0.00101751	0.00188421	0.00757623	0.00577156
0.00131025	0.00165949	0.00094604	0.000797726	0.00106191	0.00238006	0.00724405	0.00542099
0.00135967	0.00167662	0.000966261	0.000801939	0.00107111	0.00260485	0.00729456	0.00541514
0.0013397	0.00167112	0.000993951	0.000831058	0.00107624	0.00263596	0.00775752	0.00542771
0.00134387	0.00167862	0.00101975	0.000841698	0.00107878	0.00268625	0.00747284	0.00520942
0.00132518	0.00171167	0.000958186	0.000837527	0.00111103	0.00276343	0.00752847	0.00527482
0.00133086	0.0021485	0.000928554	0.000840686	0.00112188	0.0028306	0.0079988	0.00548321
0.00142563	0.00226592	0.000902565	0.000830175	0.00122409	0.0032326	0.00713512	0.00535303
0.00156679	0.0022033	0.000902691	0.000799176	0.00125541	0.00352346	0.00692612	0.0047823
0.00154002	0.00217723	0.000902268	0.000812902	0.0012166	0.00400962	0.00684805	0.00482887
0.0015184	0.00236665	0.00088564	0.000801193	0.00122353	0.0043052	0.00676357	0.00465341
0.00144796	0.00235462	0.00088683	0.00077567	0.00123696	0.00438044	0.00566466	0.00384021
0.00142726	0.00247912	0.000847607	0.000761903	0.00123292	0.00435141	0.00535071	0.00381232
0.00147795	0.00265092	0.000829	0.000742331	0.00127637	0.00431759	0.00499868	0.00406133
0.0015873	0.00297829	0.000817241	0.000740415	0.00127282	0.00437169	0.00490275	0.00372202
0.00154255	0.00300122	0.000840515	0.000744063	0.00124031	0.00451386	0.00497704	0.00351479
0.00157486	0.00293628	0.000845984	0.000723585	0.00121711	0.00471424	0.00513135	0.0035746
0.00153669	0.00280477	0.00084445	0.000727015	0.00109333	0.00495589	0.0054407	0.00359915
0.00146192	0.00354926	0.000875628	0.000712988	0.00101696	0.00447916	0.00555309	0.00373152
0.00140689	0.00373696	0.000845029	0.000691122	0.00103945	0.00414697	0.00539235	0.00374362
0.00144373	0.00374853	0.000818306	0.000680305	0.00103808	0.004093	0.00516616	0.0036934
0.00145686	0.00390463	0.000806267	0.000664431	0.00103212	0.0041711	0.00447	0.00366372
0.00148904	0.00392694	0.000798942	0.000639704	0.00102968	0.00413239	0.00421994	0.00349607
0.00152828	0.00388832	0.000813762	0.000634353	0.000976806	0.00436401	0.0038069	0.00322537
0.00152296	0.00341909	0.000832563	0.000611827	0.000924444	0.00433965	0.0034279	0.00287409
0.00130415	0.00360432	0.000824654	0.000609437	0.000898321	0.00422025	0.0033025	0.00271314
0.00129131	0.00399399	0.000821538	0.000611873	0.000864197	0.00399794	0.00328355	0.00275167
0.00131944	0.00393839	0.000827578	0.000610485	0.000857525	0.00357109	0.00321506	0.00272978
0.00144973	0.00423579	0.000827094	0.000634329	0.000879835	0.00341077	0.00317241	0.0027493
0.00154838	0.00468191	0.000815766	0.000620225	0.000873387	0.00344232	0.00317185	0.0027781
0.00153505	0.0051156	0.000825284	0.000623836	0.000851083	0.00372342	0.00316387	0.00214693
0.00148365	0.00520725	0.000832452	0.000615513	0.000909194	0.00390835	0.00315496	0.00197878
0.0015178	0.0054538	0.00080861	0.00060371	0.000972285	0.00370628	0.00284689	0.00192105
0.00153417	0.00557286	0.000778021	0.000598217	0.000970626	0.00363847	0.00241798	0.00175623
0.00153339	0.00604989	0.000767272	0.00058697	0.000978527	0.00338329	0.00172196	0.00143102
0.00162958	0.00657089	0.000748365	0.000572658	0.00102281	0.00346199	0.00139174	0.00115086
0.00174704	0.00668369	0.000743776	0.000574898	0.00105136	0.00351431	0.00105224	0.00104444
0.00173435	0.00671345	0.000754217	0.000573579	0.00104579	0.00352495	0.00104104	0.00101908
0.00171405	0.00677815	0.000754559	0.00057311	0.00103744	0.00356412	0.00104094	0.00102479
0.0016822	0.00686799	0.000736126	0.000571525	0.00105772	0.0035219	0.00104432	0.00102527
0.00168868	0.00740256	0.000739195	0.000583147	0.0010624	0.00342002	0.000906114	0.00100079
0.00174134	0.00829809	0.000695918	0.000578512	0.00110305	0.00324281	0.000797373	0.000891626
0.00194396	0.00851393	0.000677734	0.000578859	0.00104914	0.00291235	0.000762618	0.000881383
0.00197469	0.00818672	0.000658694	0.000580612	0.00101446	0.00274312	0.000768794	0.000822773
0.00194995	0.0088239	0.000659342	0.000558035	0.00105222	0.00262048	0.000731858	0.00069855
0.00188003	0.00924114	0.000657695	0.000549546	0.0010444	0.00265311	0.000686974	0.000649311
0.00187472	0.00961941	0.000660019	0.000536104	0.00107248	0.0026722	0.00069007	0.000631222
0.00194324	0.010228	0.000657463	0.000533556	0.00112485	0.00245295	0.000690749	0.000595701
0.00200704	0.0109994	0.000654514	0.000536941	0.00106676	0.00222843	0.000691644	0.000615868
0.00198472	0.0110529	0.000664095	0.000526022	0.00103377	0.00197947	0.000690739	0.000633665
0.00195413	0.0115779	0.000656342	0.000521732	0.00111999	0.00191015	0.000696141	0.000623533
0.00190823	0.0117425	0.000670949	0.00052152	0.00112813	0.00185098	0.000693471	0.000612103
0.00182473	0.0127816	0.000663757	0.000511911	0.00111633	0.00163487	0.000694118	0.000620642
0.00168397	0.0124908	0.000657404	0.000510297	0.00109584	0.0014693	0.00069561	0.000633369
0.0016487	0.0126911	0.000662003	0.000512767	0.00111414	0.00150802	0.000680049	0.000637213
0.00166523	0.0134656	0.00065542	0.000509549	0.00111729	0.00148794	0.000670867	0.000653757
0.00178182	0.014354	0.000658833	0.000525086	0.00114186	0.00140107	0.000673498	0.000654926
0.00201316	0.0147162	0.000654915	0.000528109	0.00123282	0.0013986	0.000675267	0.000660905
0.00202008	0.0146683	0.000636784	0.000520158	0.00126485	0.00139088	0.000676187	0.000647538
0.00186077	0.0141842	0.000652645	0.000535181	0.00129133	0.00136495	0.000677844	0.000636957
0.0017864	0.0141821	0.000654862	0.000530147	0.0013847	0.00137379	0.000678084	0.000649498
0.00175853	0.0136162	0.000635742	0.000532075	0.00137997	0.0014025	0.000657027	0.000655603
0.00173885	0.0148664	0.000620711	0.000523307	0.00140973	0.00133759	0.000577323	0.000658112
0.00169322	0.0146663	0.0006279	0.000525299	0.00146807	0.00130321	0.000568088	0.000665111
0.00162488	0.0145038	0.000617582	0.000525809	0.00146869	0.0013239	0.000570503	0.000696634
0.00155601	0.0133293	0.000603896	0.000532435	0.00149174	0.00136966	0.000574349	0.000680439
0.0015563	0.0136269	0.000613541	0.000533735	0.0016294	0.00140593	0.000575864	0.000682331
0.00176234	0.0133922	0.00061182	0.000541613	0.00162938	0.0013443	0.000580265	0.000681477
0.00183267	0.0132964	0.000608606	0.000537845	0.00155141	0.00119048	0.000573173	0.000697983
0.00183671	0.012611	0.000609784	0.000531857	0.00162704	0.00115586	0.000561208	0.00070724
0.00184004	0.0114064	0.000612725	0.000531154	0.00164264	0.00113425	0.000563151	0.000693144
0.00179826	0.0120967	0.000608628	0.000521948	0.00162507	0.00112025	0.00055838	0.00071299
0.00182486	0.0121096	0.00061374	0.000540063	0.00170286	0.0010836	0.000567791	0.000703221
0.00174217	0.0116703	0.000592773	0.000651702	0.00169966	0.00113242	0.000572255	0.000694363
0.00162806	0.0114714	0.000608899	0.000654311	0.00164218	0.00118513	0.000581416	0.000702134
0.00148057	0.010783	0.0006166	0.000662414	0.00159119	0.00114106	0.000581106	0.000710638
0.00153003	0.0106677	0.000637105	0.000654694	0.0015653	0.00113182	0.000568009	0.000727658
0.00148286	0.0107675	0.0006316	0.000649385	0.00153072	0.00114116	0.000554916	0.00072916
0.00143398	0.0107448	0.000643416	0.000660622	0.00151584	0.0011218	0.000547277	0.000763311
0.00145401	0.0101993	0.000658309	0.000662582	0.00151796	0.00106224	0.000549476	0.000798379
0.00145148	0.00894168	0.000690185	0.00067717	0.0014355	0.00107441	0.000548285	0.000806394
0.00139707	0.00800977	0.000679039	0.000676448	0.00132922	0.00105725	0.000563798	0.000780359
0.00131677	0.00781764	0.000764402	0.000703037	0.00136788	0.00113983	0.000570196	0.000785657
0.0012657	0.00765142	0.000781819	0.000726797	0.00134174	0.0012249	0.00056278	0.000802206
0.00103264	0.00736297	0.000796698	0.000745816	0.00122807	0.00116115	0.000554719	0.000870592
0.000930334	0.0070236	0.000815488	0.000749188	0.00122633	0.00114341	0.000555936	0.000927259
0.000918169	0.00670715	0.000804815	0.000754065	0.00120467	0.00115518	0.000578365	0.000943692
0.000914381	0.00624817	0.000841091	0.000755862	0.00114021	0.00115663	0.000591099	0.000941932
0.000937364	0.00576025	0.00086429	0.000788481	0.00111932	0.00117586	0.000610254	0.000965689
0.000938914	0.00483164	0.000901516	0.00080425	0.00110419	0.00117185	0.000623808	0.000984942
0.000839358	0.00415574	0.000971084	0.000758861	0.00101867	0.00117853	0.00062932	0.00105154
0.000872214	0.00355185	0.000982487	0.000692331	0.00101271	0.00120634	0.000622179	0.00107963
0.000835012	0.00311215	0.000980487	0.000679383	0.00101016	0.00122214	0.000616547	0.00109066
0.000758949	0.00259594	0.0010066	0.000700256	0.000994615	0.00128861	0.000626355	0.00117647
0.000730239	0.00244692	0.00105592	0.000761421	0.000960653	0.00139916	0.00065065	0.00116918
0.000724273	0.0023782	0.00107444	0.00078484	0.000901047	0.00143788	0.000653417	0.0011863
0.000673013	0.00232249	0.00110178	0.000782205	0.000912479	0.00143468	0.000649562	0.00116036
0.000701268	0.00103935	0.000708583	0.000626056	0.000640725	0.000843616	0.000334703	0.00119524
0.000766315	0.00100406	0.00081032	0.000722471	0.000676119	0.000949535	0.000475412	0.00117532
0.000796886	0.000932583	0.000996474	0.000834942	0.00071466	0.000996268	0.00057149	0.00112069
0.000932355	0.000950732	0.00110722	0.000954225	0.00077762	0.00108085	0.000657264	0.00112652
0.001005	0.000838202	0.0011226	0.00102105	0.000840599	0.00106263	0.000650348	0.00117746
0.000821325	0.000817709	0.00108015	0.00090661	0.000985207	0.00111222	0.000698689	0.00200352
0.000884127	0.000802201	0.000974537	0.000875027	0.000967791	0.00103189	0.000689377	0.00211282
0.000820248	0.000809996	0.000971542	0.000873535	0.000989852	0.00100706	0.000660841	0.00209489
0.000796583	0.000860369	0.000865941	0.000843987	0.000988956	0.000994415	0.000649522	0.00207023
0.000689966	0.000778298	0.000970346	0.000851202	0.00111712	0.000962885	0.000657359	0.00205451
0.000768277	0.00076218	0.000986984	0.000742952	0.00108388	0.000952685	0.000673727	0.00198218
0.000788117	0.00081437	0.00102796	0.000733078	0.00101926	0.000873575	0.000590808	0.00118724
0.00074542	0.000819104	0.00106591	0.000740151	0.0010889	0.000689309	0.000571565	0.00105846
0.00078984	0.00082162	0.00111398	0.000770833	0.00123037	0.000658602	0.000540087	0.00106786
0.000781393	0.000835316	0.00111892	0.000789434	0.0012818	0.000668517	0.000559512	0.00172097
0.000912931	0.000877645	0.00126954	0.000942488	0.00132661	0.000684081	0.00055523	0.00168028
0.000767382	0.000864532	0.00126488	0.00111713	0.00132651	0.000799557	0.000559984	0.00153581
0.000869047	0.000782066	0.00128133	0.00128082	0.00150707	0.000826032	0.000565361	0.00153342
0.000927893	0.000831733	0.00128424	0.00129747	0.00153915	0.000799633	0.000583151	0.00152065
0.000889098	0.000778795	0.00132051	0.0013545	0.00144634	0.0007704	0.00055575	0.00146386
0.000924682	0.000704361	0.00137829	0.00141993	0.00150931	0.000758186	0.000559747	0.000792192
0.00075549	0.000645965	0.00108522	0.00140089	0.00143963	0.000780277	0.000540789	0.000783879
0.000741338	0.000702656	0.00104126	0.00123185	0.00143572	0.000693737	0.000520204	0.000781727
0.000594732	0.000693398	0.00111923	0.00112488	0.00123959	0.000741002	0.000558028	0.000797654
0.000536515	0.000680216	0.00118853	0.00114532	0.00113427	0.000768013	0.000541269	0.00117193
0.00054302	0.000681895	0.00107395	0.00132401	0.00107775	0.000783062	0.000566572	0.00122201
0.000510479	0.000790127	0.00102983	0.00131528	0.00100638	0.000788569	0.000574861	0.001309
0.000532132	0.000772675	0.00116186	0.00154456	0.000943145	0.000733017	0.00063962	0.00133554
0.000556094	0.000725718	0.00118219	0.0016922	0.000970572	0.00067905	0.000641355	0.00132439
0.000572873	0.000751489	0.00105325	0.00172495	0.0010626	0.00063567	0.000610025	0.00128423
0.000562862	0.000713848	0.00114991	0.00210229	0.00113786	0.000668718	0.000615229	0.00102448
0.000566031	0.000711842	0.00117683	0.00179834	0.00112155	0.000663218	0.000637523	0.000974579
0.00056717	0.000604543	0.00123782	0.0018923	0.00104234	0.000760063	0.000628857	0.000875736
0.000581063	0.000641108	0.00114933	0.00150351	0.00106321	0.000742326	0.000599182	0.000861407
0.00055932	0.000644626	0.00115942	0.00159429	0.00105441	0.000752235	0.000607654	0.000864616
0.000548956	0.000658223	0.00117625	0.0018919	0.00118146	0.000753408	0.000627445	0.000857518
0.000541066	0.000670799	0.000990231	0.0015118	0.00120475	0.000740273	0.000645613	0.000829764
0.000561859	0.000710446	0.00100878	0.001711	0.00157796	0.000746606	0.000650939	0.000842454
0.000574376	0.000739384	0.000925487	0.00192068	0.00169788	0.000620264	0.000638196	0.000874956
0.000553788	0.000752574	0.000871651	0.00197026	0.00190386	0.000629736	0.00063246	0.000824628
0.000580094	0.000827328	0.000824156	0.00192348	0.00199256	0.000682641	0.000625472	0.000796199
0.000603541	0.000843529	0.000837692	0.00157509	0.00199204	0.000650622	0.000623876	0.000793999
0.000602607	0.00090192	0.000896831	0.00204814	0.00224485	0.000570615	0.000635444	0.000813371
0.000583118	0.000895339	0.000888839	0.00198377	0.00194696	0.000582568	0.000620489	0.000799332
0.000569148	0.000926288	0.000940457	0.00171412	0.00217321	0.000585568	0.000611896	0.000787109
0.000556071	0.000937314	0.000942277	0.0016372	0.00226458	0.0006035	0.000636826	0.000908438
0.000530356	0.000847008	0.000943266	0.00155408	0.00231524	0.000566585	0.000666015	0.000934268
0.000536674	0.000831936	0.000872125	0.00149837	0.0020115	0.000588866	0.000676335	0.000939676
0.000571232	0.000867806	0.000849318	0.000972713	0.00172188	0.000621431	0.000672551	0.000874011
0.000572895	0.000856631	0.000804784	0.0008678	0.00186405	0.000610776	0.000783187	0.000875041
0.000578145	0.000813277	0.00075549	0.000753585	0.00158853	0.000600226	0.00113536	0.000881546
0.000617511	0.00103534	0.000766108	0.000758248	0.00124385	0.000583074	0.00112886	0.000867346
0.00064268	0.00130513	0.000723612	0.000715519	0.00111774	0.00125186	0.0014637	0.000838674
0.000641055	0.00161205	0.000731426	0.000684844	0.00117718	0.00228599	0.00204646	0.000981131
0.000638763	0.00293363	0.00090828	0.000741728	0.00112542	0.00283376	0.00248275	0.00108308
0.000721149	0.00342976	0.000931456	0.000752834	0.00091492	0.00317627	0.0028688	0.0011233
0.000736174	0.00373983	0.00130225	0.000876741	0.000871461	0.00376234	0.00374716	0.00190941
0.000744853	0.00469749	0.00153583	0.000927511	0.000865713	0.00483335	0.00415529	0.00192533
0.000825578	0.00460318	0.00192793	0.000986876	0.000812983	0.00430596	0.00481294	0.00211547
0.000894317	0.00462889	0.00231836	0.00113708	0.000774261	0.00336173	0.00425809	0.00221283
0.000904692	0.0043053	0.00213772	0.00110122	0.000811751	0.00322113	0.00404471	0.00243362
0.000870641	0.00384722	0.00234174	0.00122405	0.000802333	0.00287818	0.00459674	0.00241466
0.000877493	0.00355112	0.00201668	0.00110469	0.000879489	0.00229869	0.00346642	0.00166613
0.000906335	0.00232887	0.00209235	0.00117964	0.000822402	0.00140712	0.00404977	0.00185198
0.000809019	0.0024517	0.00207566	0.00125794	0.000787414	0.00160302	0.00328181	0.00278495
0.000851785	0.00242088	0.00177495	0.00124364	0.00086343	0.00182352	0.00428224	0.0045846
0.000872102	0.00171274	0.00192123	0.00146304	0.000784042	0.0018902	0.00506696	0.00465043
0.000865978	0.00226304	0.00177619	0.00141917	0.000803811	0.00216329	0.00405108	0.0048789
0.00103731	0.00255542	0.00183229	0.00143075	0.000851129	0.00254	0.00397269	0.00504945
0.00097445	0.00256001	0.00169514	0.00136904	0.000887515	0.00239426	0.00323034	0.00533206
0.000966671	0.00227008	0.00159486	0.00140793	0.000949631	0.00205905	0.00388772	0.00434858
0.000842693	0.001943	0.00170845	0.00135233	0.000862549	0.0017268	0.00300834	0.0026321
0.000801109	0.001608	0.00162938	0.00126384	0.000850169	0.00138865	0.00278921	0.00318743
0.000808656	0.00108149	0.00175731	0.00138577	0.000965662	0.00166495	0.00280046	0.00310319
0.000691055	0.00087386	0.00177772	0.00148101	0.000804371	0.00148237	0.00281346	0.00294798
0.000711363	0.000857377	0.00168393	0.00143698	0.000880857	0.00156565	0.00258328	0.00257858
0.000726055	0.000888176	0.0014674	0.00125895	0.000850452	0.00157065	0.00168507	0.00259649
0.000700334	0.000918352	0.00135315	0.00121813	0.00087915	0.00157238	0.00152847	0.00249181
0.000696731	0.000937051	0.00143778	0.00131727	0.000941967	0.00148298	0.000767371	0.00179261
0.000626662	0.000829957	0.00129621	0.00124153	0.000862296	0.000994284	0.000752443	0.00232902
0.000550073	0.000719176	0.00123188	0.00114333	0.000911968	0.000868699	0.00075018	0.00258396
0.000525316	0.000767652	0.00116085	0.00116374	0.00079352	0.00074465	0.000779157	0.0024116
0.000497505	0.000764846	0.00118234	0.00108762	0.000935636	0.00073836	0.000749601	0.00252558
0.0005131	0.00070799	0.00122239	0.00108805	0.000969306	0.000755552	0.000718858	0.00235149
0.000502064	0.000698501	0.0011159	0.000929743	0.000949519	0.00075066	0.000700623	0.00255563
0.000538619	0.000771041	0.0011082	0.000937572	0.00100083	0.000749311	0.000682054	0.00217894
0.000523351	0.000817758	0.00103013	0.000917163	0.00104111	0.000712886	0.000683453	0.00192154
0.000537323	0.000857673	0.0010249	0.000860871	0.00104169	0.000742141	0.000620454	0.00192081
0.000548049	0.000940942	0.000972586	0.000868809	0.000963527	0.000710121	0.000678767	0.00197898
0.000596194	0.00117893	0.000873081	0.000833583	0.000963968	0.000723308	0.000685941	0.00222326
0.000602396	0.0011553	0.000800936	0.000751909	0.000923076	0.000756337	0.000658825	0.00187457
0.000610708	0.00116873	0.000718315	0.000652092	0.000836879	0.000722881	0.000661049	0.00165614
0.000625356	0.0011687	0.000788635	0.000730093	0.000756592	0.000745325	0.000624733	0.00165285
0.000587336	0.00114812	0.000787996	0.000728977	0.000859069	0.000753764	0.000622155	0.00170832
0.000578553	0.0010617	0.000821179	0.000813219	0.000816083	0.000800582	0.000591974	0.00148836
0.000514971	0.000853883	0.000810478	0.000823459	0.000814849	0.000737628	0.000602905	0.00119469
0.000516534	0.00083631	0.000889987	0.000902611	0.000842338	0.000667901	0.000620772	0.00112519
0.000505765	0.000881303	0.000949989	0.000898237	0.000842264	0.000598514	0.000615771	0.00108178
0.000541842	0.000876326	0.000881894	0.000846334	0.000868584	0.000606921	0.000611571	0.00118085
0.000561035	0.000880136	0.000900263	0.000984834	0.000985872	0.000606096	0.000629605	0.00113366
0.00162871	0.0018753	0.00107521	0.000927892	0.00112856	0.00187543	0.00947967	0.004065
0.00167722	0.00191945	0.000992851	0.000924294	0.00114439	0.00206648	0.00947593	0.00396228
0.00168673	0.00207866	0.00100094	0.000926707	0.00115826	0.00213454	0.00933876	0.00384747
0.00166758	0.00225188	0.00100362	0.00091765	0.00113216	0.00213127	0.00907901	0.00386808
0.00173982	0.00228229	0.000932497	0.000879653	0.00117332	0.0021542	0.00827396	0.00381545
0.00181116	0.00218972	0.000888859	0.000845209	0.00126123	0.00244284	0.00815607	0.00373892
0.00184277	0.00224692	0.000861454	0.00082093	0.00130253	0.00256625	0.0081378	0.00403785
0.00183711	0.0020617	0.000814527	0.000736185	0.0012777	0.00250393	0.00699399	0.00402997
0.00189864	0.00191557	0.00080741	0.000715832	0.00120107	0.00261308	0.00673316	0.00396683
0.00153899	0.00179669	0.000783591	0.00068991	0.00115961	0.00277381	0.00643038	0.00367375
0.0014497	0.00179876	0.000758169	0.000657637	0.0011505	0.00296405	0.00507952	0.00355926
0.00142913	0.00169117	0.000757315	0.000648531	0.0010323	0.00319702	0.00466877	0.00341506
0.00139303	0.00196676	0.000770564	0.000622047	0.00102768	0.00346867	0.00414771	0.00356105
0.00138611	0.00278123	0.000809064	0.000637603	0.000940721	0.00351374	0.00341725	0.00341173
0.00125827	0.00296018	0.000781582	0.000604245	0.000798125	0.00344466	0.00318455	0.00273884
0.00120991	0.00291199	0.000798687	0.000615168	0.000783938	0.00356182	0.00312942	0.00283687
0.00134622	0.00278809	0.000828432	0.000613586	0.000873935	0.00358087	0.00319965	0.00291178
0.00148489	0.00261579	0.000906158	0.000637273	0.000926392	0.0040366	0.00328417	0.00289191
0.00145533	0.00274718	0.00093343	0.000629008	0.000923395	0.00430181	0.00318495	0.00275396
0.00139533	0.00279804	0.000945376	0.000621596	0.000865552	0.00423524	0.00335362	0.00269121
0.00136688	0.00269342	0.00091052	0.00061935	0.000797415	0.00409064	0.00356442	0.00264184
0.00127729	0.00309533	0.00088619	0.000610683	0.000766624	0.00420297	0.00344194	0.00227737
0.00122527	0.00331531	0.000891535	0.000607876	0.000784348	0.00420207	0.00332383	0.00234724
0.00121854	0.00352074	0.000886657	0.000622683	0.000804178	0.00393986	0.00299528	0.00224059
0.00134692	0.00427078	0.000898444	0.000611003	0.000858438	0.00380787	0.00319357	0.00212246
0.00142676	0.00451396	0.000910769	0.000612861	0.000878387	0.00366001	0.00340616	0.00222492
0.00149722	0.00474276	0.000900166	0.0006024	0.000888803	0.00332461	0.00337945	0.00224451
0.00148467	0.00439035	0.000854159	0.000586384	0.000874261	0.00309406	0.00313087	0.00213742
0.00147824	0.00444112	0.000838958	0.000592675	0.000940085	0.00297686	0.00261483	0.00206477
0.00161232	0.00468541	0.000833132	0.000616491	0.000952153	0.00278764	0.00252714	0.00197979
0.00154088	0.00487654	0.000855003	0.000600123	0.000882772	0.00283469	0.00240248	0.00174012
0.00136861	0.00568774	0.000798043	0.000580442	0.000836219	0.0026285	0.00232205	0.00172386
0.00136457	0.00613379	0.000747399	0.000569716	0.000822892	0.00251467	0.00220314	0.00166423
0.00138672	0.00620763	0.000763203	0.000600303	0.000876509	0.00280508	0.00202216	0.00150482
0.00147261	0.00643451	0.000778161	0.000600093	0.000873707	0.00293765	0.00173966	0.00142882
0.00147812	0.00672708	0.000776031	0.000578375	0.000888309	0.00293997	0.00137815	0.00136673
0.00146475	0.00647145	0.000779986	0.00057911	0.000886219	0.00298599	0.00131501	0.00126285
0.001555	0.00640872	0.000773399	0.000573038	0.000890193	0.00298687	0.00132363	0.0012718
0.00163238	0.00641199	0.000753179	0.000584614	0.000907292	0.00298135	0.00117106	0.00124509
0.0016274	0.00761834	0.000740007	0.000576493	0.000918352	0.00308396	0.000914595	0.00114998
0.00152656	0.00773206	0.00074443	0.000584926	0.000914941	0.00307325	0.000859448	0.000946064
0.00159217	0.00789661	0.00072595	0.000562164	0.000920252	0.00305847	0.000835325	0.000731339
0.00172382	0.00789928	0.000711705	0.000559147	0.000892606	0.00318176	0.000810714	0.000692768
0.00164913	0.00784917	0.000713042	0.000537036	0.000860373	0.00324017	0.000813533	0.000698427
0.00167989	0.00845712	0.000687036	0.000547253	0.000947367	0.00327518	0.000822073	0.000687772
0.00172126	0.00819559	0.00066014	0.000548883	0.0009755	0.00331189	0.000829054	0.000663498
0.00171824	0.00776088	0.000655384	0.000573359	0.000984341	0.00306351	0.000915095	0.000679808
0.00167859	0.00772791	0.000662242	0.000582876	0.000913374	0.00281016	0.000830215	0.000657748
0.00157322	0.00877487	0.000656772	0.000570838	0.000931753	0.00268979	0.000805511	0.000650159
0.0016883	0.00938089	0.000650961	0.000570733	0.000974944	0.00261802	0.000747658	0.00063887
0.00183644	0.00931307	0.000645559	0.000588306	0.000990242	0.00254836	0.000731369	0.000643066
0.00192115	0.0103285	0.000640799	0.000578267	0.00103739	0.0025754	0.000731318	0.000647041
0.0018682	0.0101718	0.000652093	0.000560544	0.00099002	0.00254398	0.000730865	0.000641104
0.00185159	0.00901111	0.00065897	0.000563816	0.000917035	0.0024675	0.000728685	0.000650751
0.00191005	0.00862702	0.000671923	0.000549949	0.000926633	0.00235014	0.000733592	0.000642333
0.00203893	0.00965828	0.000652587	0.000557086	0.000932027	0.0026073	0.000733535	0.000660153
0.00189414	0.00960074	0.00068049	0.000556553	0.000893262	0.00254554	0.000729884	0.000671242
0.00179652	0.0106403	0.000672353	0.000542247	0.000891691	0.00236585	0.000738282	0.000666947
0.00180638	0.010929	0.000660865	0.000544874	0.000806187	0.00219456	0.000735038	0.00066983
0.00194659	0.0106999	0.00067495	0.000539388	0.000766842	0.00208231	0.000737461	0.000677816
0.00196161	0.0102321	0.000687895	0.00052654	0.000754215	0.00210232	0.000717768	0.000665781
0.00216169	0.0105526	0.000665648	0.00052797	0.000770534	0.00199033	0.00063171	0.000668219
0.0023695	0.0115273	0.000676056	0.00051869	0.000818998	0.0018015	0.000594855	0.000660592
0.00235953	0.0123809	0.000681119	0.000527822	0.00080019	0.00176792	0.000566712	0.000680595
0.0022565	0.0126428	0.000690271	0.000524026	0.000789655	0.001739	0.000569545	0.000668923
0.00231516	0.012173	0.000689546	0.000525608	0.00077606	0.00165023	0.000570747	0.000652057
0.00221427	0.012079	0.000685517	0.000536196	0.000816402	0.00160998	0.000565641	0.000659047
0.00239398	0.0137175	0.000698515	0.000543095	0.000887212	0.00154287	0.000567471	0.000642165
0.00233332	0.0137148	0.000682855	0.000543873	0.000962128	0.00145283	0.000561056	0.000655543
0.00218412	0.0121261	0.000680992	0.000555263	0.000987816	0.00111239	0.000570171	0.000634663
0.00215802	0.0128002	0.000669415	0.000541447	0.001005	0.000896409	0.00057033	0.000638616
0.00225976	0.0145428	0.000656543	0.000552304	0.00102459	0.000837026	0.00057422	0.00064273
0.00230687	0.014376	0.000665061	0.00054	0.0010665	0.000962893	0.000574174	0.000657303
0.00216954	0.0152566	0.00065019	0.000532713	0.00108314	0.000986492	0.000588251	0.000684861
0.00211881	0.0153803	0.000641386	0.000534577	0.00112071	0.000946103	0.000570183	0.000721953
0.00201646	0.0152737	0.000617097	0.000520312	0.0011347	0.000909198	0.000565787	0.000752579
0.00175354	0.0153417	0.000610886	0.000521029	0.00116444	0.000930475	0.000569994	0.000743525
0.00189893	0.0149327	0.000627754	0.000532953	0.00126406	0.000951399	0.000599822	0.000758188
0.00197482	0.0150364	0.000605042	0.000540243	0.00129393	0.000917448	0.000594587	0.00077196
0.00193486	0.0150599	0.000616056	0.000532662	0.00132173	0.000899894	0.000592517	0.00079716
0.00184248	0.0157906	0.000621206	0.000513872	0.00131827	0.000930408	0.00059537	0.000794581
0.0015631	0.0145255	0.000637152	0.000522763	0.00128988	0.000862133	0.000602544	0.000786392
0.0015216	0.014565	0.000615915	0.000528506	0.00130915	0.00087145	0.000596621	0.000788074
0.00152988	0.0145898	0.000625149	0.000538311	0.00125505	0.000876567	0.000590406	0.000784626
0.00156014	0.0142645	0.000650961	0.000603772	0.00121705	0.000890132	0.000598742	0.000770627
0.00147621	0.0112975	0.000641928	0.000615664	0.00126208	0.000891553	0.000613078	0.000784484
0.00132593	0.0104463	0.000642329	0.00062854	0.00138981	0.000796457	0.000599958	0.000807413
0.00130524	0.0103849	0.00065172	0.000648139	0.0013834	0.000753963	0.000603271	0.000855597
0.00128946	0.0109524	0.000665484	0.000653427	0.00151833	0.000769124	0.0006056	0.000829741
0.00136613	0.0113841	0.000714468	0.000667232	0.00164587	0.000794947	0.000627998	0.000794303
0.00141033	0.0105484	0.000809722	0.000813386	0.00165563	0.000817157	0.000635435	0.000786546
0.00122224	0.00845115	0.000872455	0.00084584	0.00160171	0.000864065	0.000619801	0.000822865
0.00110671	0.00729878	0.000908346	0.000858493	0.0016047	0.000873261	0.000605947	0.00079735
0.000971123	0.00703593	0.000919916	0.000893143	0.00164416	0.000866679	0.000601854	0.000775572
0.000959895	0.00623337	0.000959643	0.0010568	0.0015865	0.000849857	0.000594542	0.000818726
0.000929987	0.00633276	0.000961554	0.00108278	0.00154767	0.000901068	0.000780824	0.000846588
0.00109302	0.00589058	0.00111754	0.00128962	0.00153125	0.000968813	0.00087772	0.000868015
0.00111703	0.00579802	0.00115524	0.00137865	0.0015622	0.000989952	0.00103476	0.000954967
0.00111856	0.00602148	0.00120905	0.00136602	0.00157029	0.00100401	0.00109316	0.000989898
0.00114552	0.00602006	0.00123523	0.00136678	0.0015491	0.00106847	0.00109156	0.00107354
0.000701268	0.00103935	0.000708583	0.000626056	0.000640725	0.000843616	0.000334703	0.00119524
0.00076167	0.00100598	0.000805536	0.000715771	0.000669926	0.000941857	0.000465268	0.001176
0.000803374	0.000943734	0.000983127	0.000806381	0.000709605	0.000990237	0.000556976	0.00113512
0.000860363	0.000924643	0.00108241	0.000944507	0.000762528	0.0010694	0.000642148	0.00107377
0.00101378	0.000857091	0.00109644	0.00102271	0.000848525	0.00106426	0.000659172	0.00111335
0.00084136	0.000814367	0.0011055	0.000970854	0.000917483	0.00110835	0.000686915	0.00193226
0.000838893	0.000810043	0.00102071	0.000889813	0.000999134	0.00106673	0.000710789	0.00210692
0.000867958	0.000817796	0.000983896	0.000875463	0.000998892	0.00103125	0.000684819	0.00209658
0.000795009	0.000820535	0.000907582	0.000859734	0.000989092	0.000989522	0.000659592	0.00207523
0.000787296	0.00083971	0.000953564	0.000844965	0.00100706	0.0010004	0.000641117	0.00206611
0.000662539	0.000772953	0.000988104	0.000835621	0.00112247	0.000945333	0.000664556	0.00211155
0.000784539	0.000819234	0.00101683	0.000699273	0.00108815	0.000950831	0.000636343	0.00157234
0.000787379	0.00082744	0.00105162	0.000733956	0.00104798	0.000884995	0.000583799	0.0011594
0.000744366	0.000821281	0.00106581	0.000725889	0.00106702	0.000669748	0.000561872	0.00105031
0.000794701	0.000829078	0.00109565	0.000784061	0.00126578	0.00065392	0.000550357	0.0010854
0.000775775	0.000850952	0.00111076	0.000801097	0.0012841	0.000677413	0.000564576	0.00174486
0.000914665	0.000870195	0.00127785	0.000943253	0.00132393	0.000683294	0.000555151	0.00167538
0.000769351	0.000867828	0.00126836	0.00110763	0.00131859	0.000796244	0.000555904	0.00153646
0.000858176	0.00077636	0.00125085	0.00125737	0.00150956	0.000814005	0.000568912	0.00153952
