"Time","11 Gr","10 Gs","9 TA","8 St","7 VL","6 BF","5 Ip","4 GM"
 .00,0.00144,0.00117,0.00080,0.00086,0.00108,0.00127,0.00675,0.00134
0.01,0.00228,0.00312,0.00341,0.00186,0.00066,0.00067,0.01617,0.00750
0.02,0.00457,0.00377,0.00353,0.00119,0.00068,0.00069,0.01959,0.00383
0.03,0.00348,0.00267,0.00227,0.00164,0.00059,0.00067,0.01149,0.00549
0.04,0.00358,0.00169,0.00288,0.00072,0.00057,0.00060,0.01174,0.00180
0.05,0.00126,0.00104,0.00185,0.00072,0.00052,0.00066,0.01003,0.00266
0.06,0.00165,0.00081,0.00161,0.00062,0.00051,0.00076,0.00910,0.00234
0.07,0.00158,0.00080,0.00102,0.00052,0.00057,0.00068,0.01203,0.00225
0.08,0.00101,0.00059,0.00103,0.00057,0.00056,0.00070,0.00763,0.00248
0.09,0.00095,0.00058,0.00084,0.00057,0.00056,0.00071,0.00945,0.00125
0.10,0.00156,0.00058,0.00082,0.00054,0.00076,0.00074,0.00644,0.00176
0.11,0.00124,0.00054,0.00068,0.00060,0.00100,0.00088,0.00178,0.00097
0.12,0.00088,0.00062,0.00080,0.00073,0.00088,0.00090,0.00379,0.00053
0.13,0.00174,0.00065,0.00120,0.00072,0.00067,0.00068,0.00088,0.00057
0.14,0.00117,0.00062,0.00079,0.00090,0.00061,0.00068,0.00080,0.00053
0.15,0.00141,0.00078,0.00118,0.00166,0.00063,0.00073,0.00103,0.00060
0.16,0.00171,0.00084,0.00084,0.00187,0.00066,0.00073,0.00105,0.00055
0.17,0.00105,0.00101,0.00101,0.00133,0.00070,0.00071,0.00071,0.00051
0.18,0.00308,0.00121,0.00079,0.00144,0.00057,0.00071,0.00086,0.00056
0.19,0.00355,0.00139,0.00078,0.00148,0.00062,0.00058,0.00080,0.00059
0.20,0.00426,0.00102,0.00070,0.00147,0.00054,0.00072,0.00075,0.00055
0.21,0.00250,0.00134,0.00082,0.00192,0.00060,0.00069,0.00065,0.00052
0.22,0.00101,0.00110,0.00065,0.00142,0.00096,0.00083,0.00137,0.00052
0.23,0.00086,0.00089,0.00070,0.00085,0.00104,0.00094,0.00082,0.00054
0.24,0.00124,0.00250,0.00153,0.00129,0.00142,0.00126,0.00122,0.00150
0.25,0.00100,0.00113,0.00071,0.00086,0.00072,0.00093,0.00622,0.00113
0.26,0.00210,0.00370,0.00252,0.00125,0.00083,0.00065,0.03538,0.01042
0.27,0.00553,0.00660,0.00505,0.00175,0.00062,0.00069,0.01104,0.00283
0.28,0.00428,0.00334,0.00287,0.00104,0.00068,0.00068,0.01061,0.00685
0.29,0.00282,0.00147,0.00109,0.00078,0.00045,0.00068,0.00950,0.00242
0.30,0.00180,0.00091,0.00231,0.00063,0.00055,0.00075,0.01286,0.00364
0.31,0.00132,0.00070,0.00080,0.00058,0.00054,0.00068,0.00941,0.00200
0.32,0.00131,0.00072,0.00114,0.00049,0.00053,0.00075,0.01674,0.00616
0.33,0.00107,0.00065,0.00086,0.00052,0.00068,0.00062,0.01112,0.00611
0.34,0.00167,0.00060,0.00086,0.00049,0.00109,0.00091,0.00941,0.00684
0.35,0.00083,0.00080,0.00076,0.00055,0.00097,0.00082,0.00208,0.00055
0.36,0.00072,0.00081,0.00072,0.00078,0.00098,0.00083,0.00280,0.00052
0.37,0.00115,0.00064,0.00114,0.00079,0.00093,0.00069,0.00299,0.00055
0.38,0.00260,0.00075,0.00112,0.00108,0.00073,0.00071,0.00139,0.00052
0.39,0.00109,0.00077,0.00085,0.00102,0.00119,0.00088,0.00109,0.00057
0.40,0.00276,0.00142,0.00147,0.00234,0.00138,0.00089,0.00117,0.00072
0.41,0.00133,0.00207,0.00095,0.00284,0.00200,0.00167,0.00119,0.00076
0.42,0.00128,0.00093,0.00077,0.00121,0.00113,0.00110,0.00141,0.00059
0.43,0.00162,0.00091,0.00076,0.00108,0.00114,0.00114,0.00176,0.00060
0.44,0.00111,0.00063,0.00074,0.00058,0.00132,0.00270,0.00184,0.00054
0.45,0.00086,0.00071,0.00061,0.00062,0.00112,0.00142,0.00201,0.00053
0.46,0.00069,0.00179,0.00069,0.00061,0.00079,0.00093,0.00146,0.00080
0.47,0.00176,0.00455,0.00324,0.00231,0.00069,0.00073,0.01375,0.00292
0.48,0.00492,0.00410,0.00273,0.00175,0.00056,0.00069,0.01475,0.00733
0.49,0.00460,0.00424,0.00279,0.00208,0.00056,0.00074,0.00843,0.00577
0.50,0.00392,0.00293,0.00403,0.00147,0.00060,0.00066,0.01402,0.00651
0.51,0.00198,0.00104,0.00276,0.00113,0.00058,0.00067,0.01789,0.00578
0.52,0.00125,0.00068,0.00164,0.00076,0.00051,0.00068,0.01268,0.00414
0.53,0.00081,0.00074,0.00230,0.00074,0.00057,0.00064,0.00992,0.00595
0.54,0.00119,0.00063,0.00169,0.00075,0.00056,0.00071,0.01196,0.00323
0.55,0.00136,0.00063,0.00188,0.00050,0.00056,0.00066,0.01230,0.00716
0.56,0.00096,0.00141,0.00106,0.00059,0.00059,0.00068,0.01414,0.00794
0.57,0.00108,0.00092,0.00073,0.00053,0.00077,0.00067,0.01140,0.00602
0.58,0.00110,0.00094,0.00092,0.00058,0.00097,0.00094,0.00534,0.00087
0.59,0.00080,0.00081,0.00066,0.00088,0.00077,0.00072,0.00147,0.00055
0.60,0.00097,0.00633,0.00109,0.00174,0.00139,0.00104,0.00492,0.00091
0.61,0.00131,0.00138,0.00074,0.00110,0.00095,0.00076,0.00133,0.00065
0.62,0.00118,0.00182,0.00100,0.00183,0.00128,0.00138,0.00178,0.00067
0.63,0.00119,0.00136,0.00090,0.00175,0.00104,0.00158,0.00109,0.00073
0.64,0.00184,0.00136,0.00079,0.00290,0.00075,0.00082,0.00110,0.00054
0.65,0.00104,0.00170,0.00070,0.00333,0.00129,0.00122,0.00100,0.00055
0.66,0.00147,0.00141,0.00078,0.00261,0.00128,0.00105,0.00151,0.00057
0.67,0.00126,0.00075,0.00079,0.00082,0.00134,0.00587,0.00149,0.00065
0.68,0.00112,0.00087,0.00078,0.00097,0.00401,0.00437,0.00231,0.00069
0.69,0.00088,0.00068,0.00074,0.00065,0.00459,0.00406,0.00185,0.00061
0.70,0.00104,0.00069,0.00056,0.00062,0.00067,0.00085,0.00156,0.00234
0.71,0.00271,0.00323,0.00215,0.00259,0.00064,0.00071,0.01618,0.00359
0.72,0.00477,0.00374,0.00341,0.00233,0.00061,0.00072,0.01038,0.00741
0.73,0.00573,0.00393,0.00353,0.00186,0.00053,0.00072,0.01187,0.00268
0.74,0.00284,0.00187,0.00327,0.00100,0.00055,0.00059,0.01256,0.00670
0.75,0.00129,0.00090,0.00432,0.00163,0.00053,0.00068,0.01329,0.00617
0.76,0.00109,0.00060,0.00140,0.00071,0.00053,0.00067,0.01167,0.00526
0.77,0.00093,0.00063,0.00117,0.00097,0.00055,0.00064,0.00507,0.00269
0.78,0.00151,0.00061,0.00114,0.00051,0.00055,0.00071,0.01284,0.00308
0.79,0.00174,0.00063,0.00117,0.00063,0.00085,0.00069,0.01268,0.00343
0.80,0.00102,0.00270,0.00080,0.00062,0.00096,0.00087,0.00785,0.00138
0.81,0.00103,0.00153,0.00077,0.00085,0.00067,0.00082,0.00173,0.00063
0.82,0.00078,0.00079,0.00110,0.00072,0.00070,0.00059,0.00138,0.00055
0.83,0.00092,0.00087,0.00120,0.00090,0.00111,0.00083,0.00215,0.00051
0.84,0.00101,0.00079,0.00113,0.00150,0.00143,0.00109,0.00134,0.00074
0.85,0.00228,0.00184,0.00083,0.00202,0.00065,0.00067,0.00110,0.00056
0.86,0.00168,0.00081,0.00069,0.00182,0.00059,0.00068,0.00077,0.00049
0.87,0.00229,0.00134,0.00076,0.00161,0.00059,0.00087,0.00090,0.00054
0.88,0.00086,0.00136,0.00067,0.00161,0.00069,0.00075,0.00094,0.00055
0.89,0.00115,0.00172,0.00073,0.00171,0.00057,0.00068,0.00094,0.00051
0.90,0.00128,0.00128,0.00081,0.00168,0.00126,0.00095,0.00118,0.00057
0.91,0.00125,0.00115,0.00076,0.00120,0.00131,0.00086,0.00119,0.00054
0.92,0.00120,0.00121,0.00087,0.00104,0.00130,0.00117,0.00153,0.00082
0.93,0.00103,0.00091,0.00074,0.00131,0.00123,0.00114,0.00125,0.00074
0.94,0.00106,0.00110,0.00072,0.00147,0.00066,0.00472,0.00094,0.00078
0.95,0.00113,0.00095,0.00065,0.00077,0.00087,0.00095,0.01825,0.00234
0.96,0.00296,0.00368,0.00122,0.00145,0.00062,0.00076,0.01007,0.00742
0.97,0.00471,0.00237,0.00226,0.00090,0.00051,0.00060,0.01483,0.00136
0.98,0.00229,0.00186,0.00250,0.00081,0.00057,0.00065,0.00937,0.00602
0.99,0.00119,0.00078,0.00281,0.00056,0.00057,0.00070,0.01618,0.00349
1.00,0.00132,0.00074,0.00122,0.00055,0.00063,0.00070,0.00890,0.00199
1.01,0.00115,0.00233,0.00116,0.00060,0.00061,0.00067,0.01630,0.00405
1.02,0.00234,0.00257,0.00099,0.00068,0.00101,0.00093,0.00890,0.00406
1.03,0.00152,0.00146,0.00088,0.00067,0.00080,0.00074,0.00623,0.00123
1.04,0.00119,0.00085,0.00096,0.00064,0.00101,0.00083,0.00112,0.00051
1.05,0.00093,0.00064,0.00070,0.00090,0.00090,0.00071,0.00361,0.00051
1.06,0.00164,0.00108,0.00135,0.00058,0.00101,0.00096,0.00479,0.00052
1.07,0.00164,0.00104,0.00106,0.00081,0.00117,0.00095,0.00105,0.00097
1.08,0.00099,0.00071,0.00073,0.00108,0.00091,0.00080,0.00094,0.00081
1.09,0.00163,0.00073,0.00065,0.00152,0.00077,0.00064,0.00082,0.00057
1.10,0.00179,0.00105,0.00070,0.00206,0.00077,0.00072,0.00104,0.00055
1.11,0.00173,0.00130,0.00075,0.00154,0.00056,0.00058,0.00075,0.00057
1.12,0.00139,0.00131,0.00062,0.00191,0.00050,0.00065,0.00071,0.00053
1.13,0.00519,0.00111,0.00064,0.00102,0.00052,0.00060,0.00057,0.00053
1.14,0.00225,0.00131,0.00060,0.00200,0.00060,0.00070,0.00096,0.00058
1.15,0.00250,0.00156,0.00066,0.00173,0.00057,0.00073,0.00063,0.00053
1.16,0.00173,0.00143,0.00068,0.00136,0.00063,0.00090,0.00060,0.00056
1.17,0.00123,0.00115,0.00070,0.00147,0.00081,0.00114,0.00064,0.00050
1.18,0.00135,0.00122,0.00105,0.00144,0.00083,0.00085,0.00090,0.00100
1.19,0.00113,0.00085,0.00076,0.00127,0.00070,0.00079,0.00117,0.00088
1.20,0.00085,0.00076,0.00066,0.00086,0.00059,0.00070,0.00063,0.00054
1.21,0.00127,0.00081,0.00057,0.00078,0.00062,0.00068,0.00489,0.00092
1.22,0.00234,0.00191,0.00064,0.00080,0.00072,0.00077,0.02154,0.00716
1.23,0.00418,0.00522,0.00164,0.00154,0.00065,0.00065,0.00872,0.00641
1.24,0.00375,0.00212,0.00259,0.00100,0.00113,0.00087,0.01616,0.00238
1.25,0.00253,0.00230,0.00364,0.00081,0.00068,0.00081,0.01161,0.00761
1.26,0.00138,0.00234,0.00182,0.00069,0.00055,0.00062,0.01459,0.00422
1.27,0.00145,0.00157,0.00195,0.00064,0.00068,0.00071,0.02047,0.00769
1.28,0.00147,0.00145,0.00091,0.00053,0.00083,0.00078,0.01232,0.01123
1.29,0.00152,0.00095,0.00060,0.00052,0.00080,0.00088,0.01159,0.00113
1.30,0.00100,0.00126,0.00082,0.00061,0.00077,0.00081,0.00233,0.00064
1.31,0.00090,0.00071,0.00106,0.00083,0.00084,0.00094,0.00287,0.00050
1.32,0.00153,0.00110,0.00144,0.00151,0.00087,0.00098,0.00123,0.00058
1.33,0.00108,0.00077,0.00102,0.00107,0.00182,0.00160,0.00114,0.00063
1.34,0.00139,0.00084,0.00084,0.00113,0.00136,0.00117,0.00090,0.00061
1.35,0.00114,0.00079,0.00073,0.00183,0.00112,0.00079,0.00126,0.00056
1.36,0.00147,0.00166,0.00071,0.00279,0.00127,0.00108,0.00142,0.00059
1.37,0.00133,0.00081,0.00069,0.00108,0.00146,0.00411,0.00224,0.00054
1.38,0.00127,0.00076,0.00087,0.00117,0.00128,0.00272,0.00156,0.00050
1.39,0.00076,0.00061,0.00058,0.00065,0.00113,0.00130,0.00169,0.00065
1.40,0.00109,0.00073,0.00073,0.00062,0.00108,0.00103,0.00121,0.00066
1.41,0.00380,0.00344,0.00314,0.00299,0.00066,0.00067,0.01302,0.00410
1.42,0.00428,0.00332,0.00397,0.00132,0.00050,0.00069,0.01327,0.00458
1.43,0.00339,0.00351,0.00349,0.00142,0.00054,0.00069,0.01519,0.00585
1.44,0.00311,0.00125,0.00356,0.00067,0.00062,0.00066,0.01937,0.00633
1.45,0.00092,0.00094,0.00303,0.00089,0.00057,0.00073,0.00771,0.00390
1.46,0.00163,0.00065,0.00160,0.00083,0.00057,0.00068,0.00892,0.00203
1.47,0.00085,0.00068,0.00151,0.00067,0.00056,0.00069,0.01396,0.00276
1.48,0.00086,0.00069,0.00143,0.00064,0.00056,0.00061,0.01616,0.00419
1.49,0.00111,0.00067,0.00114,0.00057,0.00058,0.00068,0.00992,0.01090
1.50,0.00094,0.00116,0.00099,0.00055,0.00065,0.00076,0.01525,0.00812
1.51,0.00156,0.00161,0.00085,0.00064,0.00096,0.00082,0.00503,0.00234
1.52,0.00127,0.00264,0.00110,0.00075,0.00139,0.00107,0.00729,0.00085
1.53,0.00085,0.00075,0.00083,0.00083,0.00091,0.00078,0.00415,0.00054
1.54,0.00072,0.00114,0.00097,0.00080,0.00060,0.00062,0.00207,0.00054
1.55,0.00096,0.00088,0.00093,0.00119,0.00093,0.00071,0.00110,0.00060
1.56,0.00108,0.00080,0.00107,0.00138,0.00112,0.00090,0.00131,0.00077
1.57,0.00105,0.00171,0.00108,0.00127,0.00146,0.00496,0.00098,0.00056
1.58,0.00176,0.00072,0.00087,0.00115,0.00064,0.00078,0.00099,0.00051
1.59,0.00131,0.00115,0.00068,0.00184,0.00070,0.00074,0.00114,0.00057
1.60,0.00213,0.00148,0.00083,0.00232,0.00126,0.00094,0.00109,0.00059
1.61,0.00133,0.00163,0.00073,0.00245,0.00118,0.00114,0.00116,0.00053
1.62,0.00096,0.00159,0.00088,0.00191,0.00131,0.00189,0.00131,0.00052
1.63,0.00115,0.00085,0.00071,0.00131,0.00176,0.00533,0.00141,0.00058
1.64,0.00155,0.00088,0.00082,0.00147,0.00074,0.00359,0.00169,0.00059
1.65,0.00069,0.00082,0.00065,0.00118,0.00128,0.00102,0.00224,0.00058
1.66,0.00242,0.00306,0.00080,0.00139,0.00061,0.00071,0.01716,0.00728
1.67,0.00414,0.00285,0.00243,0.00176,0.00062,0.00063,0.00968,0.00423
1.68,0.00412,0.00405,0.00329,0.00143,0.00052,0.00065,0.00839,0.00219
1.69,0.00290,0.00103,0.00306,0.00061,0.00060,0.00058,0.00996,0.00226
1.70,0.00103,0.00114,0.00195,0.00091,0.00061,0.00078,0.01221,0.00804
1.71,0.00124,0.00062,0.00165,0.00054,0.00054,0.00056,0.01223,0.00251
1.72,0.00123,0.00056,0.00118,0.00062,0.00059,0.00063,0.01447,0.00319
1.73,0.00200,0.00076,0.00111,0.00058,0.00061,0.00075,0.01038,0.00234
1.74,0.00099,0.00120,0.00095,0.00062,0.00116,0.00084,0.01272,0.00108
1.75,0.00142,0.00068,0.00104,0.00051,0.00100,0.00100,0.00483,0.00132
1.76,0.00092,0.00070,0.00117,0.00075,0.00085,0.00072,0.00244,0.00058
1.77,0.00094,0.00061,0.00113,0.00074,0.00093,0.00066,0.00109,0.00053
1.78,0.00119,0.00071,0.00170,0.00076,0.00124,0.00080,0.00158,0.00060
1.79,0.00114,0.00071,0.00122,0.00115,0.00085,0.00070,0.00109,0.00051
1.80,0.00119,0.00058,0.00077,0.00154,0.00063,0.00074,0.00105,0.00064
1.81,0.00105,0.00075,0.00090,0.00132,0.00064,0.00079,0.00081,0.00049
1.82,0.00183,0.00112,0.00071,0.00188,0.00053,0.00069,0.00068,0.00056
1.83,0.00275,0.00189,0.00067,0.00230,0.00054,0.00069,0.00084,0.00052
1.84,0.00130,0.00184,0.00073,0.00200,0.00110,0.00087,0.00087,0.00054
1.85,0.00134,0.00235,0.00083,0.00393,0.00165,0.00412,0.00098,0.00071
1.86,0.00176,0.00192,0.00076,0.00214,0.00110,0.00264,0.00092,0.00073
1.87,0.00118,0.00179,0.00085,0.00217,0.00127,0.00118,0.00132,0.00061
1.88,0.00104,0.00078,0.00074,0.00130,0.00089,0.00095,0.00108,0.00071
1.89,0.00101,0.00084,0.00060,0.00082,0.00122,0.00076,0.00131,0.00059
1.90,0.00111,0.00068,0.00066,0.00105,0.00050,0.00082,0.00528,0.00259
1.91,0.00195,0.00155,0.00066,0.00109,0.00066,0.00068,0.01660,0.00507
1.92,0.00486,0.00427,0.00237,0.00156,0.00051,0.00076,0.00735,0.00396
1.93,0.00374,0.00201,0.00241,0.00083,0.00056,0.00072,0.01139,0.00449
1.94,0.00086,0.00116,0.00341,0.00074,0.00055,0.00067,0.01639,0.00307
1.95,0.00225,0.00084,0.00210,0.00056,0.00057,0.00059,0.00678,0.00235
1.96,0.00106,0.00069,0.00147,0.00054,0.00067,0.00070,0.01472,0.00750
1.97,0.00123,0.00180,0.00136,0.00063,0.00076,0.00099,0.01420,0.00717
1.98,0.00109,0.00074,0.00085,0.00056,0.00085,0.00089,0.00548,0.00655
1.99,0.00120,0.00070,0.00083,0.00054,0.00080,0.00077,0.00598,0.00056
2.00,0.00117,0.00072,0.00074,0.00076,0.00099,0.00084,0.00115,0.00058
2.01,0.00166,0.00094,0.00132,0.00077,0.00094,0.00102,0.00146,0.00071
2.02,0.00258,0.00112,0.00161,0.00113,0.00087,0.00089,0.00128,0.00067
2.03,0.00161,0.00088,0.00093,0.00075,0.00160,0.00087,0.00176,0.00059
2.04,0.00107,0.00084,0.00082,0.00105,0.00097,0.00105,0.00156,0.00074
2.05,0.00211,0.00103,0.00086,0.00221,0.00057,0.00069,0.00069,0.00062
2.06,0.00389,0.00122,0.00063,0.00192,0.00073,0.00074,0.00173,0.00058
2.07,0.00211,0.00122,0.00066,0.00179,0.00062,0.00067,0.00066,0.00052
2.08,0.00341,0.00150,0.00076,0.00208,0.00058,0.00066,0.00070,0.00062
2.09,0.00333,0.00103,0.00076,0.00168,0.00059,0.00074,0.00059,0.00055
2.10,0.00626,0.00160,0.00067,0.00207,0.00060,0.00074,0.00062,0.00058
2.11,0.00337,0.00171,0.00074,0.00184,0.00058,0.00073,0.00056,0.00049
2.12,0.00411,0.00181,0.00111,0.00184,0.00105,0.00086,0.00082,0.00071
2.13,0.00368,0.00227,0.00096,0.00181,0.00082,0.00102,0.00081,0.00079
2.14,0.00182,0.00212,0.00080,0.00359,0.00064,0.00082,0.00092,0.00067
2.15,0.00235,0.00253,0.00112,0.00423,0.00126,0.00379,0.00106,0.00083
2.16,0.00248,0.00302,0.00140,0.00767,0.00181,0.00569,0.00156,0.00111
2.17,0.00200,0.00175,0.00148,0.00264,0.00102,0.00124,0.00094,0.00073
2.18,0.00135,0.00131,0.00127,0.00237,0.00124,0.00417,0.00222,0.00207
2.19,0.00119,0.00149,0.00083,0.00274,0.00060,0.00088,0.00286,0.00069
2.20,0.00165,0.00255,0.00137,0.00205,0.00071,0.00076,0.02423,0.00541
2.21,0.00366,0.00150,0.00153,0.00093,0.00068,0.00075,0.01535,0.00132
2.22,0.00252,0.00085,0.00231,0.00069,0.00059,0.00076,0.01430,0.00305
2.23,0.00330,0.00092,0.00241,0.00128,0.00063,0.00060,0.00878,0.00171
2.24,0.00166,0.00073,0.00236,0.00058,0.00058,0.00062,0.00965,0.00304
2.25,0.00087,0.00059,0.00150,0.00065,0.00062,0.00065,0.01178,0.00295
2.26,0.00126,0.00054,0.00154,0.00058,0.00056,0.00074,0.00920,0.00245
2.27,0.00116,0.00052,0.00096,0.00047,0.00073,0.00084,0.01255,0.00351
2.28,0.00106,0.00055,0.00081,0.00053,0.00105,0.00082,0.00498,0.00298
2.29,0.00109,0.00134,0.00096,0.00075,0.00100,0.00103,0.00141,0.00058
2.30,0.00138,0.00372,0.00129,0.00127,0.00150,0.00122,0.00416,0.00141
2.31,0.00193,0.00134,0.00216,0.00055,0.00101,0.00095,0.00147,0.00081
2.32,0.00325,0.00071,0.00144,0.00072,0.00120,0.00074,0.00255,0.00070
2.33,0.00140,0.00059,0.00187,0.00102,0.00116,0.00108,0.00394,0.00084
2.34,0.00121,0.00103,0.00091,0.00149,0.00056,0.00069,0.00095,0.00058
2.35,0.00104,0.00124,0.00074,0.00131,0.00097,0.00106,0.00145,0.00082
2.36,0.00165,0.00113,0.00072,0.00192,0.00061,0.00085,0.00116,0.00067
2.37,0.00293,0.00088,0.00068,0.00121,0.00065,0.00094,0.00078,0.00052
2.38,0.00226,0.00095,0.00061,0.00135,0.00075,0.00096,0.00066,0.00072
2.39,0.00102,0.00083,0.00073,0.00194,0.00060,0.00087,0.00082,0.00055
2.40,0.00254,0.00137,0.00066,0.00114,0.00064,0.00080,0.00073,0.00062
2.41,0.00066,0.00094,0.00067,0.00126,0.00083,0.00072,0.00072,0.00058
2.42,0.00074,0.00104,0.00068,0.00112,0.00065,0.00071,0.00067,0.00080
2.43,0.00190,0.00120,0.00078,0.00149,0.00060,0.00064,0.00074,0.00067
2.44,0.00138,0.00101,0.00065,0.00151,0.00053,0.00070,0.00061,0.00047
2.45,0.00093,0.00101,0.00067,0.00141,0.00070,0.00067,0.00078,0.00096
2.46,0.00127,0.00118,0.00066,0.00089,0.00056,0.00071,0.00072,0.00056
2.47,0.00263,0.00174,0.00053,0.00077,0.00058,0.00071,0.01826,0.00249
2.48,0.00297,0.00479,0.00272,0.00169,0.00053,0.00060,0.02296,0.00964
2.49,0.00576,0.00171,0.00414,0.00065,0.00060,0.00070,0.01517,0.00682
2.50,0.00216,0.00109,0.00297,0.00073,0.00052,0.00076,0.01421,0.00492
2.51,0.00116,0.00068,0.00158,0.00063,0.00064,0.00063,0.01688,0.00341
2.52,0.00098,0.00057,0.00079,0.00053,0.00065,0.00095,0.01435,0.00588
2.53,0.00173,0.00056,0.00076,0.00059,0.00084,0.00093,0.00472,0.00064
2.54,0.00083,0.00069,0.00100,0.00100,0.00073,0.00062,0.00197,0.00048
2.55,0.00130,0.00285,0.00130,0.00083,0.00068,0.00075,0.00447,0.00056
2.56,0.00269,0.00152,0.00095,0.00126,0.00075,0.00081,0.00095,0.00065
2.57,0.00125,0.00189,0.00152,0.00168,0.00165,0.00180,0.00136,0.00082
2.58,0.00157,0.00088,0.00084,0.00157,0.00160,0.00461,0.00139,0.00051
2.59,0.00160,0.00115,0.00079,0.00283,0.00126,0.00110,0.00157,0.00057
2.60,0.00093,0.00183,0.00132,0.00122,0.00191,0.00135,0.00140,0.00096
2.61,0.00117,0.00283,0.00107,0.00100,0.00127,0.00138,0.00184,0.00087
2.62,0.00125,0.00093,0.00087,0.00075,0.00174,0.00498,0.00145,0.00067
2.63,0.00186,0.00085,0.00065,0.00081,0.00351,0.00438,0.00195,0.00079
2.64,0.00064,0.00066,0.00057,0.00067,0.00307,0.00191,0.00190,0.00167
2.65,0.00180,0.00341,0.00247,0.00209,0.00062,0.00065,0.01415,0.00414
2.66,0.00355,0.00469,0.00259,0.00197,0.00063,0.00070,0.01073,0.00180
2.67,0.00503,0.00327,0.00403,0.00183,0.00065,0.00058,0.01419,0.00231
2.68,0.00455,0.00361,0.00453,0.00196,0.00064,0.00066,0.01624,0.00265
2.69,0.00355,0.00152,0.00419,0.00147,0.00061,0.00074,0.01677,0.00569
2.70,0.00158,0.00077,0.00381,0.00209,0.00052,0.00064,0.01422,0.00565
2.71,0.00107,0.00075,0.00305,0.00095,0.00056,0.00068,0.01740,0.00329
2.72,0.00092,0.00095,0.00154,0.00097,0.00085,0.00076,0.01145,0.00687
2.73,0.00148,0.00070,0.00147,0.00079,0.00062,0.00071,0.01400,0.00665
2.74,0.00095,0.00057,0.00113,0.00077,0.00055,0.00075,0.01154,0.00222
2.75,0.00146,0.00050,0.00086,0.00061,0.00058,0.00070,0.01474,0.00225
2.76,0.00140,0.00254,0.00090,0.00061,0.00083,0.00079,0.01119,0.00624
2.77,0.00114,0.00182,0.00066,0.00056,0.00072,0.00082,0.00248,0.00084
2.78,0.00093,0.00079,0.00108,0.00073,0.00057,0.00087,0.00213,0.00055
2.79,0.00109,0.00070,0.00107,0.00077,0.00098,0.00082,0.00276,0.00054
2.80,0.00108,0.00079,0.00116,0.00147,0.00136,0.00078,0.00143,0.00065
2.81,0.00103,0.00077,0.00089,0.00136,0.00090,0.00103,0.00084,0.00056
2.82,0.00159,0.00136,0.00076,0.00162,0.00121,0.00105,0.00117,0.00057
2.83,0.00147,0.00236,0.00081,0.00328,0.00057,0.00069,0.00106,0.00055
2.84,0.00117,0.00223,0.00065,0.00284,0.00154,0.00109,0.00117,0.00058
2.85,0.00135,0.00166,0.00080,0.00197,0.00084,0.00390,0.00119,0.00060
2.86,0.00108,0.00072,0.00066,0.00114,0.00157,0.00565,0.00190,0.00069
2.87,0.00157,0.00101,0.00065,0.00116,0.00092,0.00243,0.00185,0.00050
2.88,0.00085,0.00102,0.00067,0.00125,0.00138,0.00198,0.00176,0.00072
2.89,0.00100,0.00067,0.00068,0.00056,0.00080,0.00096,0.00298,0.00186
2.90,0.00205,0.00412,0.00193,0.00253,0.00060,0.00073,0.01369,0.00288
2.91,0.00671,0.00310,0.00195,0.00148,0.00056,0.00065,0.01039,0.00123
2.92,0.00264,0.00331,0.00321,0.00170,0.00057,0.00066,0.00989,0.00617
2.93,0.00341,0.00105,0.00229,0.00134,0.00048,0.00068,0.00710,0.00101
2.94,0.00200,0.00104,0.00298,0.00137,0.00065,0.00059,0.01109,0.00284
2.95,0.00124,0.00065,0.00139,0.00082,0.00055,0.00062,0.01233,0.00338
2.96,0.00096,0.00063,0.00110,0.00047,0.00063,0.00071,0.01636,0.00353
2.97,0.00133,0.00150,0.00103,0.00059,0.00100,0.00097,0.01090,0.00346
2.98,0.00086,0.00066,0.00084,0.00058,0.00088,0.00097,0.00625,0.00155
2.99,0.00093,0.00068,0.00084,0.00063,0.00083,0.00072,0.00103,0.00058
3.00,0.00104,0.00062,0.00110,0.00065,0.00091,0.00080,0.00107,0.00055
3.01,0.00235,0.00159,0.00147,0.00077,0.00058,0.00073,0.00083,0.00057
3.02,0.00103,0.00073,0.00137,0.00086,0.00088,0.00077,0.00156,0.00062
3.03,0.00104,0.00066,0.00120,0.00173,0.00060,0.00078,0.00075,0.00058
3.04,0.00154,0.00133,0.00068,0.00257,0.00063,0.00072,0.00089,0.00058
3.05,0.00099,0.00202,0.00069,0.00225,0.00062,0.00074,0.00110,0.00051
3.06,0.00181,0.00096,0.00062,0.00131,0.00128,0.00101,0.00092,0.00050
3.07,0.00205,0.00116,0.00057,0.00113,0.00065,0.00075,0.00083,0.00050
3.08,0.00128,0.00100,0.00069,0.00105,0.00105,0.00086,0.00100,0.00058
3.09,0.00130,0.00098,0.00075,0.00088,0.00114,0.00085,0.00122,0.00065
3.10,0.00138,0.00383,0.00103,0.00164,0.00176,0.00115,0.00122,0.00066
3.11,0.00104,0.00071,0.00071,0.00087,0.00112,0.00082,0.00114,0.00056
3.12,0.00101,0.00069,0.00067,0.00074,0.00114,0.00111,0.00167,0.00054
3.13,0.00097,0.00065,0.00061,0.00059,0.00058,0.00087,0.00085,0.00055
3.14,0.00090,0.00093,0.00067,0.00076,0.00067,0.00081,0.01734,0.00328
3.15,0.00220,0.00798,0.00124,0.00223,0.00097,0.00084,0.00953,0.01018
3.16,0.00523,0.00567,0.00135,0.00187,0.00062,0.00073,0.00903,0.00552
3.17,0.00447,0.00404,0.00407,0.00158,0.00072,0.00065,0.01732,0.00782
3.18,0.00328,0.00250,0.00319,0.00199,0.00058,0.00072,0.00516,0.00148
3.19,0.00095,0.00063,0.00250,0.00079,0.00060,0.00066,0.02192,0.00662
3.20,0.00161,0.00110,0.00150,0.00062,0.00058,0.00086,0.01729,0.00688
3.21,0.00152,0.00062,0.00121,0.00047,0.00073,0.00082,0.01805,0.00618
3.22,0.00148,0.00073,0.00078,0.00053,0.00090,0.00105,0.00942,0.00184
3.23,0.00107,0.00072,0.00075,0.00050,0.00071,0.00081,0.00178,0.00060
3.24,0.00113,0.00062,0.00099,0.00076,0.00089,0.00072,0.00438,0.00043
3.25,0.00257,0.00075,0.00128,0.00082,0.00081,0.00076,0.00102,0.00064
3.26,0.00121,0.00063,0.00076,0.00099,0.00098,0.00078,0.00107,0.00055
3.27,0.00090,0.00069,0.00098,0.00131,0.00110,0.00121,0.00112,0.00056
3.28,0.00165,0.00127,0.00091,0.00191,0.00086,0.00096,0.00102,0.00072
3.29,0.00130,0.00114,0.00069,0.00163,0.00071,0.00084,0.00113,0.00062
3.30,0.00111,0.00077,0.00098,0.00072,0.00065,0.00088,0.00108,0.00075
3.31,0.00142,0.00104,0.00064,0.00087,0.00060,0.00074,0.00120,0.00051
3.32,0.00070,0.00059,0.00072,0.00087,0.00051,0.00088,0.00086,0.00063
3.33,0.00182,0.00066,0.00069,0.00099,0.00065,0.00075,0.00076,0.00055
3.34,0.00122,0.00073,0.00066,0.00079,0.00078,0.00086,0.00074,0.00049
3.35,0.00073,0.00087,0.00068,0.00108,0.00067,0.00072,0.00075,0.00049
3.36,0.00116,0.00074,0.00074,0.00076,0.00074,0.00098,0.00092,0.00054
3.37,0.00092,0.00085,0.00076,0.00085,0.00070,0.00074,0.00084,0.00094
3.38,0.00074,0.00075,0.00059,0.00078,0.00072,0.00089,0.00096,0.00051
3.39,0.00072,0.00074,0.00056,0.00074,0.00072,0.00069,0.00067,0.00058
3.40,0.00069,0.00426,0.00052,0.00069,0.00056,0.00079,0.00077,0.00062
3.41,0.00069,0.00214,0.00081,0.00065,0.00064,0.00074,0.01217,0.00326
3.42,0.00283,0.00535,0.00119,0.00205,0.00061,0.00072,0.01326,0.00962
3.43,0.00506,0.00525,0.00335,0.00103,0.00061,0.00070,0.01151,0.00542
3.44,0.00425,0.00329,0.00407,0.00093,0.00065,0.00068,0.01390,0.00672
3.45,0.00193,0.00176,0.00245,0.00064,0.00055,0.00057,0.02070,0.00385
3.46,0.00092,0.00264,0.00183,0.00060,0.00053,0.00073,0.01795,0.00627
3.47,0.00160,0.00267,0.00101,0.00064,0.00072,0.00073,0.01676,0.00441
3.48,0.00132,0.00155,0.00107,0.00059,0.00074,0.00083,0.00591,0.00088
3.49,0.00139,0.00077,0.00085,0.00067,0.00078,0.00084,0.00208,0.00056
3.50,0.00067,0.00073,0.00133,0.00072,0.00074,0.00064,0.00475,0.00060
3.51,0.00172,0.00192,0.00106,0.00124,0.00122,0.00095,0.00166,0.00063
3.52,0.00116,0.00066,0.00102,0.00157,0.00128,0.00161,0.00135,0.00067
3.53,0.00122,0.00069,0.00072,0.00192,0.00120,0.00128,0.00120,0.00072
3.54,0.00117,0.00080,0.00069,0.00103,0.00090,0.00108,0.00081,0.00050
3.55,0.00128,0.00116,0.00079,0.00178,0.00147,0.00181,0.00157,0.00054
3.56,0.00104,0.00075,0.00064,0.00105,0.00113,0.00601,0.00135,0.00048
3.57,0.00133,0.00182,0.00131,0.00093,0.00406,0.00641,0.00268,0.00096
3.58,0.00174,0.00101,0.00066,0.00123,0.00337,0.00469,0.00164,0.00057
3.59,0.00120,0.00064,0.00052,0.00075,0.00081,0.00223,0.00147,0.00068
3.60,0.00109,0.00174,0.00056,0.00160,0.00066,0.00066,0.00717,0.00188
3.61,0.00423,0.00419,0.00126,0.00269,0.00058,0.00061,0.01286,0.00235
3.62,0.00469,0.00260,0.00198,0.00182,0.00069,0.00065,0.00898,0.00232
3.63,0.00485,0.00212,0.00192,0.00081,0.00063,0.00072,0.01208,0.00249
