0.0041649	0.0127919	0.000657205	0.00202063	0.000603297	0.00525947	0.00625796	0.00544726
0.00287461	0.0108756	0.000697085	0.00174608	0.000621935	0.00500041	0.00665166	0.00558455
0.00257438	0.0109077	0.000680793	0.00172011	0.000612164	0.00457357	0.00671233	0.00560601
0.00258945	0.0100629	0.000645827	0.00156383	0.000624873	0.00415602	0.00665091	0.00547087
0.00218493	0.00941679	0.000647155	0.00140733	0.000609581	0.00369044	0.00584713	0.00536051
0.00535044	0.00866519	0.000651128	0.00132333	0.00063179	0.00376823	0.00611412	0.00611877
0.00656345	0.00768621	0.000675284	0.00133336	0.000659447	0.00399174	0.0061355	0.0060398
0.00654157	0.00703004	0.000685188	0.00133722	0.000663898	0.00338339	0.00617472	0.00611032
0.00650756	0.00717064	0.000661859	0.00111046	0.000648011	0.00334152	0.00549381	0.00579864
0.00649123	0.0104888	0.000688276	0.00100409	0.000681053	0.00321525	0.00475749	0.00473012
0.00662677	0.0108728	0.000682583	0.000991981	0.000686579	0.0032131	0.00401113	0.00459129
0.00691545	0.0106054	0.000684082	0.00103898	0.00067874	0.00267883	0.00333051	0.00425627
0.00735414	0.00997541	0.000689295	0.00109988	0.000694107	0.00249064	0.00319947	0.00404777
0.0077617	0.0114294	0.000717288	0.00112238	0.000696931	0.00247831	0.00282221	0.00406955
0.00706783	0.0146297	0.000739095	0.00104757	0.000684879	0.00244297	0.00244134	0.00380867
0.00323896	0.0146797	0.000717882	0.000904105	0.000651114	0.00186648	0.00188128	0.00304242
0.0023179	0.014763	0.000697891	0.000917106	0.000607326	0.00152104	0.00171735	0.00300407
0.00239386	0.0145431	0.000740491	0.000905628	0.000613649	0.00145191	0.00166969	0.00323851
0.00256351	0.0111231	0.000727327	0.000842768	0.000517066	0.00133528	0.00156598	0.00342919
0.00269198	0.00881009	0.000678265	0.00081374	0.00047006	0.00126995	0.00156898	0.00328337
0.00255443	0.00901726	0.000679244	0.000807494	0.0004585	0.00116202	0.0015565	0.00284323
0.00227151	0.0105034	0.00069189	0.000766646	0.000434692	0.00106868	0.00142082	0.00281945
0.00232136	0.011133	0.000713495	0.000748708	0.000436801	0.00105725	0.00112676	0.00279908
0.00339418	0.0097218	0.00070779	0.000652823	0.000443774	0.00158929	0.000968182	0.00255732
0.00349874	0.00810756	0.000700903	0.0006268	0.000478052	0.00165201	0.000895309	0.0025339
0.00352103	0.00833285	0.000733333	0.000616005	0.000493384	0.00175448	0.000889683	0.0023486
0.00341506	0.00841825	0.000723359	0.00061248	0.00051456	0.00200318	0.000864797	0.0020946
0.00376683	0.00930825	0.000715998	0.000586451	0.000528534	0.00202951	0.000894298	0.00169963
0.00370508	0.0100297	0.000706394	0.000643228	0.00052024	0.00206224	0.000948599	0.00175907
0.00367958	0.0128047	0.000733466	0.000640092	0.000549005	0.00224403	0.000911363	0.0017751
0.0036489	0.012786	0.000747884	0.000623251	0.000554303	0.00231045	0.000908282	0.00179412
0.00366507	0.0110652	0.000766749	0.000587271	0.000554035	0.00223768	0.000886977	0.0016529
0.00216473	0.00917142	0.000745182	0.000579863	0.000534788	0.00200744	0.000885333	0.00155267
0.00180554	0.00856793	0.000713881	0.000592286	0.0005408	0.00150416	0.000847204	0.00165345
0.00220282	0.00959466	0.00068795	0.0006142	0.000526896	0.00140871	0.000812919	0.00175243
0.00250578	0.0110951	0.00065212	0.000619975	0.000528048	0.00111355	0.000827236	0.00190122
0.00234393	0.0108634	0.000629635	0.000613522	0.000511708	0.000973914	0.000823058	0.0017123
0.00200886	0.0115024	0.000678942	0.000608359	0.000543262	0.000967142	0.000802833	0.00150375
0.00196944	0.0109365	0.000677118	0.00056049	0.000533784	0.00100003	0.000712755	0.00136494
0.00196459	0.00877273	0.000684269	0.000568011	0.000535407	0.000802104	0.000742224	0.00133854
0.00272365	0.0113314	0.000677583	0.000586699	0.000542291	0.00085885	0.00068024	0.00126969
0.00338963	0.0136612	0.000660755	0.000582934	0.000560471	0.00089265	0.000684947	0.00126584
0.00350538	0.0153452	0.000676603	0.000589505	0.000562595	0.000915615	0.000664871	0.00131543
0.00380332	0.0152138	0.000699858	0.000593355	0.000550425	0.000826898	0.000750874	0.00144582
0.00408737	0.0129964	0.000706377	0.000577419	0.000547457	0.000815469	0.00075539	0.00144536
0.00395293	0.0127439	0.00072312	0.000555495	0.000554459	0.00082323	0.000718421	0.00115932
0.00403956	0.0141893	0.000759627	0.000550794	0.000511332	0.00085536	0.000727402	0.0011584
0.00446157	0.0134308	0.000722975	0.000523928	0.000527476	0.00103811	0.000747718	0.00127957
0.00585966	0.0142771	0.000727087	0.000509169	0.000535241	0.00106447	0.000719835	0.0012998
0.00616167	0.0167412	0.000750727	0.000484962	0.000534601	0.00113968	0.000715042	0.00130851
0.00542135	0.0142594	0.000746288	0.000489185	0.000535456	0.00115451	0.000682	0.00136185
0.0052059	0.0112669	0.000720275	0.00050681	0.000531793	0.00113885	0.000679074	0.00149629
0.0051071	0.0106149	0.000737124	0.000472239	0.000572883	0.00117911	0.000629302	0.00130521
0.00663852	0.011817	0.000710266	0.000477185	0.000560311	0.00119224	0.000599884	0.00117103
0.00712992	0.0125354	0.000665607	0.000490677	0.000593044	0.00118577	0.000590829	0.00120551
0.00745411	0.0130686	0.000690154	0.000506719	0.000644895	0.00120213	0.000572858	0.00123794
0.00778878	0.0146617	0.000656792	0.000507631	0.000681677	0.00110466	0.000571483	0.001116
0.00697394	0.0150079	0.000652655	0.000502326	0.000669069	0.000948574	0.000578391	0.00103938
0.00621398	0.0125427	0.000640023	0.00050568	0.00070325	0.000912405	0.00062177	0.00107425
0.00599489	0.0102255	0.000610532	0.000513733	0.00067548	0.000818203	0.000648847	0.00103965
0.00586042	0.010157	0.000629091	0.0005082	0.000694688	0.000871703	0.00063957	0.000961463
0.0088088	0.0100624	0.000602538	0.000490999	0.000808614	0.000806333	0.000622692	0.000929753
0.00839867	0.00956071	0.00065171	0.000518664	0.000865778	0.000737076	0.000611504	0.00117189
0.00658402	0.0100561	0.000793538	0.000502119	0.000906676	0.000733812	0.000627215	0.00119219
0.0065606	0.0105827	0.000811695	0.00049126	0.000904782	0.000732975	0.000636408	0.00116641
0.00731625	0.0106081	0.000836275	0.000505246	0.00102682	0.000751705	0.000625536	0.00128803
0.00710661	0.00890838	0.000881352	0.000479854	0.00106766	0.000794265	0.00064144	0.00129707
0.00703487	0.00921266	0.000910262	0.000488994	0.00107429	0.000758398	0.000628642	0.00153248
0.00684322	0.00944945	0.000912804	0.00048791	0.00108592	0.00085678	0.000597822	0.00167368
0.00672985	0.00983617	0.000924999	0.000508545	0.00110483	0.000842926	0.000626148	0.00181936
0.00568114	0.00986489	0.000915326	0.000545071	0.00108641	0.000767708	0.000679613	0.00173935
0.00328431	0.00983652	0.000960707	0.000500734	0.00108482	0.000809934	0.000687971	0.00168598
0.00274398	0.00951431	0.000870795	0.000543565	0.00103922	0.000820664	0.000686015	0.0014399
0.00263963	0.00720883	0.000848318	0.000565689	0.00106551	0.000846885	0.000691339	0.00134514
0.00158547	0.00561629	0.000833676	0.00057506	0.00106304	0.000818568	0.000787467	0.0012823
0.000749616	0.00361405	0.0008092	0.000557369	0.000966476	0.000799773	0.000795385	0.00122763
0.000567076	0.0032334	0.000823989	0.000564937	0.000963106	0.0008506	0.000794079	0.00119126
0.000552149	0.00249202	0.000811326	0.000547538	0.000948867	0.000832634	0.000799288	0.000849426
0.000549803	0.00192334	0.000846383	0.000568751	0.00097839	0.000714474	0.00079391	0.00080416
0.000591246	0.0013209	0.000878485	0.000542512	0.00116715	0.000681043	0.000795786	0.000719278
0.000582606	0.00130266	0.000869144	0.00051993	0.00105661	0.000661449	0.000780211	0.00073216
0.000552948	0.00122827	0.000852391	0.000556876	0.0010581	0.000650624	0.000799487	0.000721574
0.00055959	0.00130057	0.000846723	0.000597802	0.00104298	0.000658283	0.000847062	0.000753104
0.000558159	0.00127346	0.000911207	0.000599276	0.00101711	0.000664771	0.000789695	0.000771639
0.000542735	0.00116066	0.000886367	0.000637413	0.00100094	0.000656146	0.00073424	0.000772695
0.000545903	0.00110263	0.000879643	0.000662248	0.00102447	0.000620086	0.000772265	0.000721497
0.000540382	0.00117459	0.000869306	0.000742857	0.00101474	0.00059546	0.000786925	0.000731815
0.000535854	0.0024528	0.000834896	0.000774869	0.000988434	0.000701843	0.000806368	0.000718226
0.000500617	0.00352146	0.000800755	0.000770238	0.000822077	0.000757863	0.000790108	0.000721555
0.000486773	0.00361275	0.000796781	0.000799759	0.000774253	0.000879308	0.000790498	0.000733698
0.000487459	0.00357046	0.000802956	0.000884435	0.000843377	0.000954422	0.000764886	0.000762157
0.000501463	0.00352296	0.000758313	0.000883589	0.000871931	0.000929156	0.000764306	0.000783634
0.00052518	0.00350619	0.000731285	0.000886024	0.000924208	0.00094216	0.00074906	0.000795639
0.000529768	0.00349286	0.00071981	0.000886562	0.000943003	0.00100676	0.000736295	0.000808665
0.000541666	0.00364622	0.000726859	0.000854908	0.000883757	0.00109186	0.000728654	0.000870282
0.000538068	0.00432595	0.000703654	0.000800725	0.000910494	0.0011402	0.000709723	0.0011055
0.000547973	0.0041943	0.000665029	0.000783259	0.000930383	0.00119291	0.000668008	0.0011532
0.000548931	0.00278203	0.000682526	0.000778561	0.000930472	0.00111714	0.000651077	0.00116813
0.000538969	0.00229498	0.000689032	0.000785594	0.00091096	0.0011343	0.000645465	0.00118223
0.000553587	0.00231893	0.000685856	0.000753063	0.000839654	0.00129786	0.000652383	0.0011468
0.000555175	0.00157634	0.000529785	0.000601009	0.000262506	0.000288024	0.00370543	0.0024152
0.000823095	0.00150905	0.000529261	0.00080604	0.00028514	0.000325239	0.00403159	0.00285721
0.000908682	0.00143875	0.000558129	0.000888951	0.000334138	0.000389594	0.00398803	0.00364327
0.000941086	0.00135911	0.000570739	0.00101499	0.000380756	0.00046814	0.00412965	0.00416192
0.000965598	0.00124066	0.000615541	0.00111492	0.000411999	0.000535101	0.0042294	0.00543781
0.00108533	0.00111448	0.000632536	0.00120576	0.000436898	0.000627734	0.00414358	0.00639349
0.00123158	0.000921913	0.000636066	0.00122956	0.00046474	0.000637862	0.00396267	0.00717879
0.00176607	0.000990907	0.000628554	0.00115435	0.000477137	0.000641066	0.00391515	0.0076288
0.00216553	0.00262418	0.000603267	0.00110371	0.000511928	0.000635284	0.00408842	0.00799036
0.00220762	0.00321272	0.000580601	0.00112052	0.000497063	0.000644109	0.00408669	0.00788924
0.00210609	0.00346697	0.000593732	0.00103543	0.000500704	0.0006383	0.00396918	0.00849072
0.0020466	0.00354976	0.000581188	0.00109523	0.000489657	0.000652991	0.00405949	0.00819587
0.00216906	0.00372877	0.000619451	0.00117444	0.000488588	0.000640267	0.00383601	0.00820522
0.00220726	0.00440364	0.000635491	0.00112636	0.00048695	0.000633815	0.00360178	0.0085306
0.00219656	0.00639633	0.00062979	0.00112196	0.000535191	0.000677461	0.00382109	0.00785526
0.00212477	0.00690861	0.000652646	0.00112053	0.000553429	0.00065499	0.00383853	0.00754882
0.00195358	0.00724103	0.000649868	0.00106989	0.00055065	0.000667277	0.00382322	0.00751094
0.0014608	0.00626985	0.000661645	0.00109603	0.000537276	0.000666197	0.00383983	0.006644
0.00172094	0.00526303	0.00067194	0.00107865	0.000529589	0.000651463	0.00396386	0.00650886
0.00180748	0.00478233	0.000692111	0.000985684	0.000515837	0.000651429	0.00350087	0.00583636
0.00188826	0.00483624	0.000715437	0.00093203	0.000533627	0.000650889	0.00320954	0.00572317
0.00190561	0.0053297	0.000710057	0.000840211	0.000539564	0.000658225	0.00332339	0.00618032
0.00176511	0.0049183	0.000650639	0.000833036	0.000563785	0.000637367	0.00344412	0.00582123
0.00173492	0.00388612	0.000635655	0.000799904	0.000643539	0.000620321	0.00290781	0.00560288
0.00192579	0.00268396	0.000618985	0.000880614	0.000609667	0.000609047	0.00292726	0.00588728
0.00169085	0.00224677	0.000597783	0.000943408	0.000606844	0.00060877	0.00272815	0.00498201
0.00163988	0.00207704	0.00060223	0.00102318	0.000590972	0.000627601	0.00257295	0.00556772
0.00142017	0.00202541	0.00059217	0.00104327	0.000601376	0.000643033	0.0023817	0.00545002
0.0010712	0.00204732	0.000607214	0.00105317	0.000620194	0.000649274	0.00230077	0.00541322
0.00100445	0.00200707	0.000596159	0.0011598	0.000610264	0.000650274	0.0029797	0.00503925
0.000857862	0.00131616	0.000615795	0.00115659	0.000664677	0.000659795	0.00301213	0.00424011
0.000793108	0.00126995	0.000633254	0.00115015	0.000651693	0.000713179	0.00320069	0.00573415
0.000811678	0.00115904	0.000662841	0.00117096	0.000587896	0.00069126	0.00344738	0.00586323
0.00111678	0.00264766	0.000666512	0.00118815	0.000568922	0.000692845	0.00340892	0.00565864
0.00121926	0.00371476	0.000708677	0.00112165	0.000593661	0.000681821	0.00400015	0.00598816
0.00123498	0.00379201	0.00071346	0.00111127	0.000597011	0.00067947	0.00444031	0.00583625
0.00126425	0.00374898	0.00070391	0.00107724	0.000583983	0.000653842	0.0045267	0.00574695
0.00124192	0.00371526	0.000703487	0.00117522	0.000595608	0.000635922	0.00488655	0.00562315
0.0012262	0.00374463	0.000682944	0.00119219	0.000609913	0.000620264	0.00444878	0.00626629
0.00120557	0.00428307	0.00067946	0.00105883	0.000592975	0.000638515	0.00413072	0.00651241
0.00128789	0.00469943	0.00067511	0.00106802	0.000591612	0.000559682	0.00402877	0.00556512
0.00140156	0.00447378	0.00065922	0.00124761	0.000602166	0.000562132	0.00410604	0.00602516
0.00135799	0.00410372	0.0006669	0.00124214	0.000572452	0.00058984	0.00401254	0.00712372
0.00112358	0.00228399	0.000664682	0.00121458	0.000578838	0.000597379	0.00392562	0.00668685
0.00152559	0.0019842	0.000699961	0.00115508	0.000556748	0.000611243	0.00338163	0.00714157
0.00178172	0.00199354	0.000687503	0.00114716	0.000550956	0.000588483	0.00324472	0.00683537
0.00181869	0.00199691	0.000709515	0.0010579	0.000525841	0.000601547	0.00321148	0.00698747
0.00180998	0.00197213	0.000712994	0.00103073	0.000517744	0.000628891	0.00305479	0.00690607
0.001833	0.0018124	0.000708879	0.00109952	0.000517885	0.000644972	0.00321968	0.00699931
0.00185091	0.00115334	0.000691645	0.00129585	0.000498588	0.000624721	0.00332886	0.00725445
0.00163996	0.00102051	0.000710883	0.0012884	0.000500122	0.000625852	0.00328337	0.00692895
0.00161641	0.00268649	0.000711535	0.00114917	0.000475952	0.000645773	0.00290331	0.00600771
0.00147454	0.00315911	0.000722779	0.00115673	0.000472093	0.000597141	0.00272962	0.00605543
0.0012067	0.00333404	0.000681646	0.0011864	0.000544137	0.000579302	0.00285876	0.00653413
0.000918699	0.00340181	0.00065952	0.00127285	0.000580839	0.000632885	0.00331525	0.00700597
0.000869333	0.00342278	0.000667073	0.0013034	0.000582274	0.000642233	0.00367109	0.00790448
0.00133751	0.00339727	0.000673242	0.00140801	0.000570015	0.000617695	0.00361366	0.00780813
0.00140631	0.0033895	0.000655152	0.00147152	0.000576303	0.000629118	0.00366391	0.0070593
0.0014089	0.00336894	0.000690546	0.0012622	0.000571846	0.000616532	0.0033589	0.0073341
0.00140323	0.00338956	0.000689269	0.00117148	0.000575932	0.000610646	0.00318001	0.00788749
0.00141326	0.002664	0.000719438	0.00117065	0.000581056	0.000610824	0.00378596	0.00821566
0.00139796	0.00119059	0.00073727	0.00126471	0.000599886	0.00062795	0.00419461	0.00744605
0.00146396	0.000812201	0.000728459	0.00125275	0.000550617	0.000638222	0.0042647	0.00716048
0.00130188	0.0006959	0.000738865	0.00129501	0.000531943	0.00067126	0.00421029	0.00731764
0.00129094	0.000600967	0.000712253	0.00139548	0.000540568	0.000591977	0.00434102	0.00729562
0.000996635	0.000636805	0.000702083	0.00148911	0.000553154	0.000604264	0.00457182	0.00753013
0.000744543	0.000632614	0.000710597	0.00134919	0.000556751	0.000622811	0.00464333	0.00767113
0.000777019	0.000643634	0.000709036	0.00139454	0.000537606	0.000615946	0.00488307	0.00748301
0.000958083	0.00064394	0.000695998	0.0014052	0.000529627	0.000614124	0.00498373	0.00727118
0.00099627	0.000652953	0.000691353	0.00139003	0.000524106	0.000652823	0.00455247	0.0064946
0.000972696	0.000685069	0.000618953	0.00133236	0.000502061	0.000653901	0.00431914	0.00628132
0.000890383	0.000832905	0.000632784	0.00129084	0.000478453	0.000626863	0.00428466	0.00582719
0.0013165	0.000869008	0.000615553	0.00119865	0.000484997	0.000577452	0.00405945	0.00536436
0.00165778	0.000860865	0.000639669	0.00116651	0.00049684	0.000593658	0.00431828	0.00498112
0.00169907	0.000849304	0.000655749	0.00117007	0.000510004	0.000622274	0.00434029	0.00447352
0.00182222	0.000875131	0.000633997	0.00118983	0.000514085	0.000608601	0.00413239	0.00444559
0.00185153	0.000895228	0.000650482	0.00123126	0.000534157	0.000601964	0.00396336	0.0045964
0.00163176	0.000882526	0.000638223	0.00138148	0.000549355	0.000605711	0.00443366	0.00450379
0.00158295	0.000872321	0.000623711	0.00147836	0.000564412	0.000609224	0.00460834	0.00444123
0.00159803	0.000844878	0.000617512	0.00150675	0.000581883	0.000588921	0.00452596	0.00439977
0.00160724	0.00075854	0.000636486	0.00150368	0.000604932	0.000598182	0.00442287	0.00432056
0.00182551	0.000660584	0.000626031	0.0014926	0.000599698	0.000625969	0.00461431	0.00446443
0.00134683	0.000635443	0.000598251	0.00147958	0.00062692	0.000663227	0.00425038	0.00476804
0.00124463	0.000695017	0.000590877	0.00139148	0.000618295	0.000627803	0.00334867	0.00504585
0.00123379	0.00131445	0.000604409	0.00150827	0.000608064	0.000610626	0.003546	0.0052973
0.0012203	0.00160072	0.000610058	0.00157967	0.000608503	0.000586478	0.00416283	0.00510696
0.00161108	0.00162351	0.000622696	0.0015515	0.000626266	0.000578994	0.00368745	0.00567789
0.00192825	0.00164845	0.00065251	0.00138232	0.00060679	0.000571263	0.00380102	0.00620077
0.00210608	0.00166981	0.000670108	0.00145777	0.000602321	0.000569401	0.00440964	0.00666115
0.00215415	0.00169743	0.000684611	0.00141918	0.000601102	0.000568542	0.00457928	0.00682516
0.00220529	0.00168352	0.000660122	0.00142969	0.000574681	0.000533797	0.00450678	0.00675594
0.00202439	0.00176682	0.0006667	0.00141557	0.000578589	0.000515417	0.00445712	0.00617673
0.00216554	0.00178055	0.000665851	0.00145888	0.000590623	0.000520862	0.00446048	0.00607698
0.00203655	0.00135861	0.000651403	0.00134644	0.000586085	0.000542525	0.00437553	0.00661415
0.00198782	0.000866082	0.000639429	0.00121289	0.000587502	0.000540601	0.00400622	0.00687459
0.00185085	0.000810657	0.000679206	0.00124235	0.000564781	0.00056135	0.00393814	0.00687662
0.00131982	0.0008425	0.000649533	0.0013338	0.000577786	0.000573699	0.00455443	0.00612443
0.00115744	0.00139949	0.000668836	0.00127828	0.000577358	0.000591342	0.00434755	0.00594612
0.00104219	0.0015985	0.000688785	0.00122646	0.000563737	0.000576231	0.00415469	0.00638556
0.00123413	0.00160717	0.000687252	0.00127374	0.000575686	0.000588197	0.00404524	0.00719137
0.00743236	0.0150969	0.000704095	0.00148309	0.000560711	0.00256102	0.00347313	0.00510005
0.00876657	0.0132505	0.000689144	0.00119951	0.000563992	0.00248269	0.00383563	0.00575025
0.0107385	0.0124904	0.00070214	0.00107014	0.000571673	0.00263976	0.00395912	0.004842
0.00991288	0.013718	0.000697564	0.00120203	0.000602279	0.00265817	0.00454433	0.00462625
0.00674428	0.0120718	0.000775752	0.00161926	0.000573842	0.00280464	0.00479562	0.00486868
0.00616712	0.0110507	0.000761637	0.00167952	0.000555943	0.00209804	0.00495516	0.00536546
0.00604377	0.00962336	0.000750111	0.00177348	0.000530902	0.00214404	0.00427956	0.00602361
0.00657418	0.00807304	0.000755863	0.0018918	0.000534506	0.00243543	0.00440773	0.0053228
0.00624704	0.00768918	0.000740921	0.00208637	0.0005592	0.00283905	0.00434783	0.00482709
0.00525761	0.00967852	0.000730806	0.00205596	0.00055549	0.00281631	0.00364591	0.00342535
0.00275712	0.0117752	0.000741225	0.00187388	0.000541169	0.00283235	0.00310251	0.00322949
0.00233	0.0124399	0.000735987	0.00206123	0.000524463	0.00290738	0.00304377	0.0041291
0.00308486	0.0120326	0.000727549	0.00185086	0.000568741	0.00315299	0.00239133	0.00435192
0.00298483	0.0138443	0.000698112	0.00165636	0.000583787	0.00284618	0.00235427	0.00387336
0.00351525	0.0144671	0.000684977	0.00156931	0.000568664	0.00353301	0.00230069	0.00418073
0.00627094	0.0144608	0.000676606	0.00156542	0.000590843	0.00392754	0.00285455	0.00344126
0.00625619	0.0146273	0.000653292	0.00161168	0.000608161	0.00431215	0.00302755	0.00392027
0.00654228	0.013692	0.000662252	0.00145221	0.000601974	0.0040407	0.00292037	0.00391499
0.00737584	0.0120172	0.000690915	0.00138574	0.00063864	0.00409542	0.00281278	0.00387768
0.00740692	0.0123968	0.000679543	0.00122875	0.00065976	0.00410115	0.00253182	0.00329294
0.00671571	0.0156064	0.000679566	0.00121968	0.000627166	0.0037122	0.00256376	0.00261462
0.00854322	0.0162046	0.00066828	0.00126083	0.000611826	0.00365526	0.00221432	0.00246861
0.00926466	0.0155281	0.000666208	0.00128487	0.000640715	0.00390498	0.00215329	0.00300128
0.00803624	0.0179513	0.00068615	0.00147857	0.000634922	0.00339544	0.00196563	0.00237822
0.00582213	0.0178629	0.000681343	0.00122424	0.000626617	0.00296273	0.00123688	0.00233867
0.00558264	0.0176884	0.00068747	0.00115073	0.000575085	0.00269983	0.00103727	0.00197558
0.00549958	0.0175432	0.00067634	0.00113703	0.000559223	0.00272351	0.00104676	0.0020134
0.00502444	0.0183889	0.000652104	0.00113911	0.000523196	0.00270198	0.00109242	0.00227168
0.00503804	0.0162763	0.000676417	0.00107785	0.000503295	0.00263771	0.00105844	0.00245622
0.0053625	0.0165979	0.000662288	0.00104281	0.000495396	0.00240897	0.000958204	0.00256116
0.00268469	0.0166004	0.000689879	0.0010276	0.000487781	0.00225581	0.000917624	0.00210628
0.00194334	0.0139256	0.000685244	0.000896293	0.000471081	0.0017051	0.000859714	0.00155254
0.00251058	0.013868	0.000674669	0.000770973	0.00049595	0.00167541	0.000836987	0.00140887
0.00429237	0.0133654	0.000659621	0.000771743	0.000501729	0.00151028	0.000786522	0.00133139
0.00425137	0.0127344	0.000682525	0.000767209	0.000511609	0.00156045	0.00067427	0.00125442
0.00398813	0.0124608	0.000671682	0.000743597	0.000508187	0.00203134	0.00065042	0.00117279
0.00437591	0.0112742	0.000664607	0.000809701	0.000532183	0.00236775	0.000661943	0.000952356
0.00588859	0.0112418	0.000663268	0.000881668	0.000577104	0.00270242	0.000733522	0.000695656
0.00731875	0.00845706	0.000650812	0.000783667	0.000563495	0.00275872	0.000759347	0.000672291
0.00786141	0.00830098	0.000671088	0.00076053	0.000569326	0.00272022	0.000741152	0.00066526
0.00829024	0.00873651	0.000657823	0.000724109	0.000576652	0.00268755	0.000726504	0.000714877
0.00695661	0.00916736	0.000649172	0.00073412	0.000560744	0.00248867	0.000718816	0.000672724
0.00602594	0.0100821	0.000631734	0.000709757	0.000555043	0.00247737	0.000748363	0.000659444
0.00596338	0.0100772	0.000637484	0.00077607	0.00056623	0.00213373	0.000733532	0.000940537
0.00579989	0.00920404	0.000621744	0.000931479	0.00058626	0.00152062	0.000709175	0.00100127
0.00482119	0.00788044	0.000607545	0.000880847	0.000550852	0.00132536	0.000679394	0.00112783
0.00211538	0.00740516	0.000645103	0.000801138	0.000548836	0.00115277	0.000580104	0.00117692
0.00188002	0.00833909	0.000651228	0.000791307	0.000524268	0.00139733	0.000567405	0.00121046
0.00170102	0.0104229	0.000661505	0.000788945	0.000545855	0.00142164	0.000594986	0.0012847
0.00154539	0.0119624	0.000660848	0.00079383	0.000527976	0.00154779	0.000611638	0.00127659
0.00261516	0.0120152	0.000675713	0.000770707	0.000553444	0.00162693	0.000608223	0.00127805
0.00318734	0.0119298	0.000704502	0.000744485	0.000562673	0.00168595	0.000636228	0.00124567
0.00349557	0.0123232	0.000720983	0.000656619	0.000578233	0.00175446	0.000625911	0.00106072
0.0045385	0.0134171	0.000754851	0.00051269	0.000583851	0.00182148	0.000616575	0.00117913
0.00512942	0.0135391	0.000760534	0.000504097	0.000584915	0.00171167	0.000627527	0.00111199
0.00656979	0.0135787	0.000720561	0.000481934	0.000559252	0.00177387	0.000623675	0.00112536
0.00831397	0.0137457	0.000707802	0.000481143	0.000553914	0.00186123	0.000623289	0.00102741
0.00862156	0.0148876	0.000712276	0.000453306	0.000579402	0.00180873	0.000627272	0.000966219
0.00869322	0.0136744	0.000690202	0.000455539	0.000575637	0.00192798	0.00064356	0.00119599
0.00756994	0.0122123	0.000682104	0.000504848	0.000553094	0.00189838	0.000632157	0.00134779
0.00715631	0.0123047	0.000675179	0.00049847	0.000566613	0.00189937	0.000639348	0.00137144
0.00695348	0.0130615	0.000689831	0.000540621	0.00052367	0.00179827	0.000689675	0.00135501
0.00614475	0.0155256	0.000692417	0.000580563	0.000511733	0.00186426	0.000684219	0.00122454
0.00640589	0.0166399	0.000695317	0.000568441	0.000545531	0.0018132	0.000680094	0.00117821
0.00747874	0.016717	0.000644768	0.000585029	0.000589956	0.00168365	0.000689931	0.00119017
0.00693721	0.0147035	0.000631243	0.000566415	0.000581286	0.00127632	0.000695516	0.00124272
0.0066974	0.0124361	0.000634197	0.000564072	0.00057569	0.00124535	0.000707376	0.001274
0.0065538	0.0128266	0.00068223	0.000595261	0.000560726	0.00109196	0.000726693	0.00100616
0.00756322	0.0130841	0.000679618	0.000560405	0.000578404	0.00108155	0.00138341	0.000973727
0.0081237	0.0144906	0.000665314	0.00057829	0.000582785	0.00102916	0.00150381	0.000941426
0.00843867	0.0148466	0.000608198	0.000581312	0.00058919	0.000969777	0.0015985	0.00102152
0.00891079	0.0123137	0.000608197	0.000552831	0.000595723	0.000897755	0.0016411	0.00108477
0.00723521	0.0128074	0.000600968	0.000560454	0.000559179	0.000928123	0.00163966	0.0010697
0.00742389	0.0127015	0.000630352	0.000577459	0.000645024	0.000805721	0.00158279	0.00110698
0.00747656	0.0129234	0.000650041	0.000605962	0.000635569	0.000727976	0.00163539	0.00103995
0.00739866	0.0132269	0.000672285	0.000598188	0.00064093	0.000738271	0.00161727	0.00107652
0.00715638	0.0128302	0.000652533	0.000583291	0.00076638	0.000736848	0.00149231	0.00114445
0.00609294	0.0116732	0.000661706	0.000533603	0.000769083	0.000741404	0.000915253	0.00109139
0.00589165	0.0105458	0.000726175	0.000516684	0.000804049	0.000736713	0.000766643	0.00103215
0.00492403	0.00760357	0.000766293	0.000495684	0.000863082	0.000760934	0.000713832	0.000912461
0.00454682	0.00742153	0.000719947	0.000490292	0.000858331	0.000741592	0.000662187	0.000846673
0.00256687	0.00762303	0.000791683	0.000511794	0.000858338	0.000755955	0.000653509	0.000906818
0.00107796	0.00769171	0.000920622	0.000472163	0.000916401	0.000904576	0.00079346	0.000911372
0.00100429	0.00651776	0.000950662	0.000499688	0.00103753	0.000922762	0.000849939	0.000927212
0.000909199	0.005744	0.000905239	0.000541515	0.0010336	0.000922899	0.000888467	0.000952408
0.000923187	0.00562925	0.000919347	0.000559496	0.000956213	0.000915535	0.000929219	0.00106184
0.000794966	0.00505433	0.000918997	0.000577332	0.000976533	0.000927057	0.000955762	0.00112701
0.000711563	0.00480537	0.000920748	0.000588986	0.000991856	0.000916359	0.00097433	0.00111148
0.000705321	0.00435729	0.000925051	0.000606953	0.00098332	0.000884761	0.000982067	0.00110355
0.000706752	0.00290331	0.000940327	0.000617787	0.000998956	0.000896504	0.00101309	0.00104711
0.000645501	0.00226299	0.000800746	0.000663803	0.00098142	0.000816349	0.0010057	0.00101414
0.00060149	0.00175733	0.000743183	0.000798717	0.00085767	0.000693101	0.000863206	0.000993764
0.000574899	0.00145931	0.000717763	0.000869901	0.000790144	0.00070525	0.000797915	0.00101028
0.000587342	0.00144732	0.000741945	0.000895822	0.000801281	0.000706039	0.000782147	0.000931744
0.000558677	0.00145895	0.000735313	0.000889861	0.000767515	0.000671437	0.000818785	0.000811492
0.000547688	0.0014714	0.000720348	0.000916685	0.000738842	0.000665835	0.000775263	0.000777781
0.000525908	0.00161198	0.000685138	0.000982135	0.00066406	0.000694647	0.000926304	0.000788559
0.000536688	0.00347007	0.000729333	0.000997344	0.000686556	0.000811697	0.00102602	0.000774047
0.000514635	0.00424617	0.000742017	0.00100244	0.000671128	0.00078879	0.00104105	0.000783882
0.000535423	0.00436812	0.000754754	0.000953425	0.0007137	0.000808549	0.00109608	0.000788945
0.000555175	0.00157634	0.000529785	0.000601009	0.000262506	0.000288024	0.00370543	0.0024152
0.000827603	0.00149675	0.000527841	0.000816069	0.000293935	0.000335362	0.00402808	0.00287379
0.000923092	0.00142167	0.000557538	0.000893487	0.000350575	0.000398369	0.00396013	0.00366569
0.000953347	0.00133137	0.00057876	0.00103433	0.000392862	0.000489601	0.00409793	0.00438714
0.000964842	0.00120757	0.000620179	0.00114867	0.000418431	0.000561613	0.00420061	0.00572986
0.00111683	0.00110939	0.000621634	0.00120205	0.000444893	0.000642193	0.00416539	0.00669009
0.00142681	0.000864956	0.000644624	0.00119325	0.000468239	0.000652905	0.00406372	0.00725618
0.00201494	0.00182658	0.000608532	0.00109235	0.000506313	0.000628541	0.00409533	0.00792275
0.00222777	0.00291792	0.000601287	0.00110414	0.00050998	0.000656787	0.00392766	0.00776922
0.00220435	0.00341833	0.000577612	0.00108652	0.000499561	0.000635889	0.00394657	0.00836559
0.00198955	0.00357186	0.000572796	0.00107072	0.000493214	0.000647525	0.00406388	0.00838331
0.00214393	0.00363994	0.000613952	0.0011895	0.000484924	0.000633017	0.00386408	0.00821541
0.00220685	0.00432774	0.000636186	0.00112575	0.000484409	0.00063451	0.00358969	0.00859612
0.00218678	0.0064538	0.000634628	0.00112028	0.00054031	0.00067524	0.00382423	0.00782019
0.00213743	0.00700272	0.000644669	0.00112509	0.000559424	0.000660455	0.00390597	0.00749929
0.00176871	0.00724334	0.00065028	0.00107553	0.000555733	0.000677903	0.00383749	0.00721994
0.00142681	0.00560268	0.000656567	0.00110243	0.000534356	0.000650789	0.00387628	0.00649529
0.00179439	0.00497979	0.000680991	0.00104383	0.000520538	0.000643629	0.00392552	0.0062678
0.00186415	0.00462041	0.000684555	0.000955346	0.000531742	0.000673682	0.00340023	0.00582593
0.00187906	0.00519179	0.000701688	0.000881128	0.000535514	0.000650761	0.00327001	0.00594103
0.0017983	0.00523145	0.000664555	0.000854808	0.000549301	0.000648629	0.0034034	0.00623621
0.0017348	0.00432546	0.000644979	0.000808223	0.000637004	0.000651933	0.00316506	0.00575258
0.00186512	0.00271456	0.000620504	0.000849232	0.000618874	0.00059819	0.00294299	0.00583658
0.00175062	0.00224817	0.000604506	0.000952948	0.000595255	0.0006007	0.00272377	0.00500903
0.00164301	0.0020759	0.000605938	0.00101901	0.000589287	0.000626678	0.00257149	0.0055601
0.00143109	0.00202467	0.000594359	0.0010417	0.0006018	0.000644389	0.00238242	0.00545442
0.00106552	0.00205001	0.000600068	0.00105243	0.000615578	0.000648738	0.002357	0.00541901
0.000989775	0.00188289	0.000591463	0.00114978	0.00061851	0.000649416	0.00296514	0.00493421
0.000818153	0.00125603	0.000622221	0.00114996	0.00065744	0.00068443	0.00290932	0.00478268
0.00079783	0.00129124	0.000648282	0.0011492	0.00064911	0.000711269	0.00337022	0.0059904
0.000889039	0.00138355	0.000669953	0.00116968	0.000575969	0.000688955	0.00349086	0.00593283
0.00119608	0.00328301	0.000682746	0.0011711	0.000587531	0.000681571	0.00372879	0.00586936
0.00121773	0.00376604	0.000716073	0.00111817	0.000596481	0.000663153	0.00433399	0.00597994
0.0012677	0.00376002	0.000697321	0.00105876	0.000590332	0.000670972	0.00453571	0.00581343
0.00124748	0.00371295	0.00070933	0.00115148	0.00059478	0.000648031	0.00467679	0.00562171
0.00123533	0.00373064	0.000677773	0.00120979	0.00060356	0.000624626	0.00471552	0.00618582
0.00120791	0.00408702	0.000684421	0.00108026	0.000599593	0.000639656	0.00416655	0.00649152
0.00127788	0.00469351	0.000673441	0.00107756	0.000589203	0.000564634	0.00405966	0.00577759
0.00140358	0.0044734	0.000660205	0.00125359	0.000604725	0.000560828	0.00411126	0.00609663
0.00135695	0.00407407	0.000671637	0.00122903	0.000577904	0.000592364	0.00401926	0.00718972
0.00119036	0.00209986	0.000677495	0.0012078	0.00057538	0.000593902	0.00385988	0.00664874
0.0016213	0.00198286	0.000692353	0.001128	0.000553524	0.00061032	0.00333934	0.00705002
0.00179742	0.00198757	0.000698215	0.00112794	0.000538401	0.000583491	0.00322372	0.00682416
0.00181574	0.0019999	0.000695764	0.000996362	0.000514639	0.000613798	0.0030758	0.00699494
0.00182025	0.00195987	0.000726903	0.00100469	0.000527597	0.000624841	0.00313438	0.00714557
0.0018506	0.00129359	0.000698427	0.00120136	0.000504328	0.00062681	0.00334201	0.00709404
0.00168955	0.000963747	0.000695414	0.00130937	0.000491531	0.000626013	0.00347772	0.00731242
0.00161743	0.00236962	0.000717735	0.0011269	0.000480061	0.000644616	0.00287958	0.00573375
0.00146824	0.00303624	0.000712384	0.00116677	0.0004649	0.000603801	0.00277051	0.00607685
0.00120073	0.0033351	0.000686356	0.00117195	0.000544645	0.000587057	0.00286848	0.00655715
0.000930733	0.00339926	0.000657703	0.00127668	0.000579874	0.000631377	0.00329894	0.00697567
0.000900063	0.00341793	0.000668649	0.00130079	0.000584127	0.000640036	0.00365784	0.00790929
0.00134248	0.00338833	0.000668662	0.00140286	0.000574895	0.000626641	0.00365542	0.00780435
0.00140188	0.00338742	0.000652718	0.00146101	0.000572017	0.000609905	0.00358789	0.00707761
0.00140983	0.00337828	0.00070425	0.0011827	0.000582304	0.000619579	0.00330274	0.00754403
0.0014129	0.00337997	0.000676739	0.00113748	0.000580628	0.000594801	0.00341496	0.00807334
0.00139667	0.00159269	0.000736674	0.00119395	0.000586958	0.000614766	0.00385579	0.00768413
0.00143954	0.000929999	0.000712686	0.00126254	0.000612137	0.00063338	0.00419308	0.00745247
0.00132667	0.000740842	0.000739119	0.00129238	0.000538738	0.000679667	0.00426208	0.0074257
0.00128652	0.000623114	0.00071608	0.00139036	0.000531697	0.000602837	0.00430592	0.00737958
0.00110756	0.000639699	0.000713006	0.00150621	0.000550125	0.000611179	0.00453084	0.00741509
0.000764105	0.000631334	0.000718771	0.00137153	0.00056574	0.000615754	0.00466082	0.00763791
0.000785106	0.000641621	0.000712317	0.00138384	0.000533737	0.000617122	0.00489121	0.00749406
0.000958627	0.00064436	0.000694941	0.00140449	0.000530366	0.000614695	0.0049822	0.00726243
0.00099174	0.000662484	0.000670622	0.00138593	0.000525339	0.000648121	0.00454183	0.00646894
0.000964602	0.000733174	0.000608883	0.00129814	0.000498618	0.000658145	0.00428718	0.00626873
0.000849767	0.000851821	0.000629187	0.00128591	0.000486055	0.000626961	0.0042729	0.0057715
0.00144947	0.00087588	0.000619624	0.00120564	0.000484917	0.000573675	0.00403444	0.00539441
0.00165622	0.000867191	0.000643978	0.00128525	0.00049667	0.000623912	0.00459787	0.00466022
0.00179387	0.000855214	0.000653275	0.00116045	0.000515334	0.000607747	0.00436576	0.00422386
0.00185772	0.000897058	0.00065234	0.00119888	0.000517814	0.00059359	0.00403906	0.00455019
0.00168947	0.00088583	0.000652631	0.00127753	0.000544311	0.000619563	0.00432093	0.00468117
0.00157521	0.000870941	0.000636446	0.00148488	0.000564084	0.000612919	0.00454872	0.00408192
0.00160239	0.00085208	0.000621821	0.0014837	0.000572142	0.000593504	0.00459683	0.00441555
0.00159794	0.000762501	0.000633109	0.0015053	0.00059993	0.000592167	0.00442529	0.00428638
0.00187036	0.000665301	0.000627684	0.00148934	0.000599341	0.000626235	0.00460343	0.00445875
0.00132858	0.000641328	0.000598195	0.0014777	0.000623756	0.000662353	0.00418781	0.00476973
0.0012322	0.000741702	0.000585059	0.00141357	0.000616675	0.000622916	0.00332817	0.00507233
0.001241	0.0014679	0.000602542	0.00149542	0.000608318	0.000600837	0.00358283	0.00525915
0.00122156	0.00159743	0.000605698	0.00162477	0.000596004	0.00058538	0.00410896	0.00509956
0.00178964	0.00161886	0.000628482	0.00144646	0.000616612	0.000577983	0.00368211	0.0058333
0.00201403	0.00165557	0.000667408	0.00137716	0.000609739	0.000583524	0.00404637	0.00622074
0.00212529	0.00169624	0.000675057	0.00144433	0.000602894	0.000577628	0.00450649	0.00678567
0.0022145	0.0016821	0.000667245	0.00142085	0.000584504	0.000553582	0.00455339	0.00678825
0.00204123	0.00174269	0.000668714	0.00142797	0.000579162	0.000540074	0.00437308	0.00642944
0.00215815	0.00177162	0.000666626	0.00144524	0.000586495	0.000523426	0.00451496	0.00623328
0.00206565	0.00155543	0.000657249	0.00139101	0.000594531	0.000546487	0.00450597	0.00647503
0.00199007	0.000870067	0.000640661	0.00121697	0.000588817	0.000542236	0.00400327	0.00689545
0.00185085	0.000810657	0.000679206	0.00124235	0.000564781	0.00056135	0.00393814	0.00687662
0.00131068	0.000844394	0.000654279	0.00132829	0.000581527	0.000579221	0.00460696	0.00613541
0.0011311	0.00142603	0.000659733	0.00123296	0.000572478	0.000585029	0.00433732	0.00581995
0.00104465	0.00159162	0.000705747	0.00124393	0.000560698	0.00057637	0.00410328	0.00656584
0.00120839	0.00159906	0.000693556	0.00127962	0.000592785	0.000593487	0.00404867	0.00730897
0.00132667	0.00152565	0.000695399	0.0012879	0.000595633	0.000585323	0.00398661	0.00741155
0.00154599	0.00147218	0.000689444	0.00140957	0.000560489	0.000570301	0.00510451	0.00751152
0.00155908	0.00150035	0.000682842	0.00143292	0.000598148	0.0005325	0.00526899	0.00663985
0.00155528	0.00148341	0.000701819	0.00154406	0.000590058	0.00054873	0.00553686	0.00607136
0.0017682	0.00150153	0.000662687	0.00139746	0.000600831	0.000585533	0.00517876	0.00575665
0.00197726	0.00138039	0.000643077	0.00128647	0.000581316	0.000547324	0.00458739	0.00576555
0.0019513	0.000779505	0.000666389	0.00150839	0.00060283	0.000576429	0.0048609	0.00521601
0.00225672	0.0157282	0.000693225	0.00292205	0.000608868	0.00295554	0.00343825	0.0030467
0.00647449	0.017398	0.000712599	0.00265053	0.000623648	0.00319212	0.00349067	0.00372732
0.0075946	0.0181951	0.000747272	0.00257002	0.000658547	0.00334702	0.00356621	0.00443193
0.00774542	0.0152413	0.0007483	0.00260632	0.000666045	0.00324816	0.00378718	0.0041458
0.00767551	0.013682	0.000744121	0.00237676	0.000668404	0.00303537	0.00354566	0.00389202
0.00760987	0.0119848	0.000754782	0.00239758	0.000666657	0.00316644	0.00348271	0.00454456
0.0074646	0.0107392	0.000768077	0.00238573	0.000637492	0.00321482	0.00339812	0.00485512
0.00742315	0.0100233	0.000737118	0.00230107	0.000614153	0.00342659	0.00362741	0.00477974
0.00740749	0.0120784	0.000744151	0.00225813	0.000597582	0.00351698	0.00411989	0.00495322
0.00738177	0.0122577	0.000729357	0.00228602	0.000571256	0.00374786	0.00423793	0.00488468
0.00360253	0.0109202	0.000730165	0.00230966	0.000580096	0.00322055	0.00463562	0.00538045
0.00213957	0.00838844	0.000741391	0.00213241	0.000563959	0.00286826	0.00438831	0.00580535
0.00124223	0.00815778	0.000770389	0.00185923	0.000539781	0.00276938	0.00418499	0.00547695
0.00134798	0.0086742	0.000766451	0.00187877	0.000531881	0.00279732	0.00402925	0.00538609
0.00141782	0.0102335	0.000764437	0.00185149	0.000509443	0.0027649	0.00418735	0.00510986
0.0015579	0.0100664	0.000754715	0.00164525	0.00050536	0.00294642	0.00408683	0.00420777
0.00210537	0.0115433	0.000725291	0.00176436	0.000533847	0.00335999	0.0040516	0.00538608
0.00290125	0.0109142	0.000702497	0.00183736	0.000532418	0.00364409	0.00396947	0.00571045
0.00314359	0.0120325	0.000661533	0.00179364	0.000529192	0.00318076	0.0034036	0.00544506
0.00602575	0.0131436	0.000629342	0.00161963	0.000549598	0.00315933	0.0026749	0.00496382
0.00680184	0.0131972	0.000613762	0.00145392	0.00055479	0.00327317	0.00206015	0.00359786
0.00678789	0.0132538	0.000577348	0.00135442	0.000541097	0.00351018	0.00175353	0.00332403
0.00653445	0.0131292	0.000550525	0.00128207	0.000556685	0.00364666	0.00179874	0.00339803
0.00640369	0.0126325	0.000534861	0.0013058	0.000569247	0.00346854	0.00172457	0.00356246
0.00673259	0.0144878	0.00053364	0.0012944	0.000557515	0.00352843	0.00187418	0.00375251
0.00730269	0.0145402	0.000571243	0.0012103	0.000527343	0.00316761	0.0020115	0.00351089
0.00661384	0.0120956	0.000583413	0.000971872	0.000549822	0.00350129	0.00183332	0.00279548
0.00635513	0.00932399	0.000625291	0.000800189	0.000546141	0.00398162	0.00171004	0.00274911
0.00465059	0.00736669	0.000614148	0.000741048	0.000513658	0.00371662	0.00171212	0.00273546
0.00284426	0.0101049	0.00065203	0.00102569	0.000485419	0.00359752	0.00174454	0.00261023
0.00273811	0.0125699	0.000684116	0.00164979	0.000482992	0.00372239	0.00178427	0.00256704
0.00263466	0.0131071	0.000690529	0.00180024	0.00047253	0.00416962	0.0016808	0.00234036
0.00307458	0.0125782	0.000702708	0.00180625	0.000484454	0.00423913	0.00159799	0.00212363
0.00692338	0.0125919	0.00070626	0.00177942	0.00048251	0.0041175	0.00128098	0.00224103
0.00628401	0.0124285	0.000680758	0.0017212	0.000500892	0.00445108	0.00107452	0.00182647
0.00616886	0.013293	0.000679897	0.00163416	0.000532491	0.00433015	0.000900047	0.00129521
0.00639056	0.0131202	0.00071116	0.00163621	0.000538553	0.00323257	0.00085851	0.00120621
0.00638928	0.0131893	0.000694802	0.00159305	0.00053597	0.00316338	0.000749099	0.00116941
0.00637917	0.0113334	0.000690299	0.00141056	0.000575746	0.00306035	0.00067593	0.00111211
0.00629829	0.0089715	0.000685005	0.000796147	0.000573272	0.00273352	0.000597173	0.00110852
0.00656314	0.00891402	0.000677499	0.000682758	0.000606353	0.00208816	0.000620987	0.00109121
0.006554	0.0091039	0.000670636	0.000653233	0.00061078	0.0018063	0.000604665	0.00102212
0.00342179	0.00924012	0.000646601	0.000641213	0.000596198	0.00202771	0.000622209	0.000884959
0.00464816	0.0107777	0.000647796	0.000623145	0.000576412	0.00198919	0.000610171	0.000802525
0.00515139	0.0117284	0.000666682	0.000679372	0.00054263	0.00140482	0.000602925	0.000963078
0.00561051	0.0116046	0.000603947	0.000797864	0.000535399	0.00138567	0.000623564	0.00116841
0.00563493	0.011143	0.000619176	0.000956778	0.000556391	0.00127467	0.00062864	0.00120964
0.00562859	0.0109044	0.000656707	0.0010023	0.000523146	0.00131153	0.000636774	0.00120357
0.00573758	0.0106977	0.000621092	0.00112157	0.000543403	0.00132631	0.000670637	0.00119807
0.00582633	0.00938556	0.000620776	0.00103857	0.000513723	0.00155505	0.00063881	0.00122724
0.00585202	0.00954236	0.000666797	0.00101164	0.000529945	0.00157407	0.000669587	0.00123856
0.00558785	0.00955371	0.000691623	0.00100607	0.000529343	0.00154333	0.000638671	0.00122472
0.00438233	0.00629105	0.000693338	0.00104424	0.000548301	0.00121584	0.000617393	0.00116371
0.00319688	0.00517254	0.000662873	0.000999144	0.00053794	0.00116476	0.000636856	0.00111183
0.00226325	0.00523929	0.000671878	0.00092895	0.000551561	0.00126186	0.000617659	0.000948859
0.0021985	0.00552961	0.000700875	0.000737484	0.000523596	0.00131413	0.000646739	0.000989748
0.00240008	0.00643517	0.000697483	0.000659849	0.000520825	0.00139308	0.00066623	0.00098457
0.00226079	0.00875245	0.000677249	0.000595115	0.00053073	0.00136108	0.000609044	0.00110508
0.00207634	0.0131433	0.000694815	0.000527034	0.000539118	0.00126192	0.000627098	0.00114669
0.00203528	0.0139589	0.000686787	0.000517491	0.000522627	0.00123481	0.000637623	0.00123749
0.00249117	0.0140742	0.000669904	0.000544591	0.000503821	0.00117576	0.000617985	0.00147967
0.00366317	0.0132906	0.000666409	0.000530497	0.000528111	0.0010443	0.000628582	0.00155205
0.00308559	0.012497	0.000686517	0.000517552	0.000557646	0.00105161	0.000608605	0.00153778
0.00315072	0.0142026	0.000704537	0.000500351	0.000541863	0.00112357	0.000609437	0.00144793
0.00365494	0.0147678	0.000693435	0.000505753	0.000574284	0.00106411	0.000593727	0.00175063
0.00369829	0.0152995	0.000647878	0.000510557	0.000581511	0.00101077	0.00058846	0.00184715
0.00453565	0.0142618	0.000639961	0.000530439	0.000604431	0.000987164	0.000607343	0.00186295
0.00494279	0.0142967	0.000660087	0.000520258	0.00065048	0.00101146	0.00061918	0.00205358
0.00508544	0.0139663	0.00063121	0.000555798	0.000670731	0.000958902	0.000585205	0.00215477
0.00483372	0.0141025	0.000656357	0.000553641	0.000721328	0.000989351	0.000584539	0.00189597
0.00373173	0.0137296	0.000684936	0.000589922	0.00078329	0.00124134	0.000607398	0.00174885
0.00345144	0.0135648	0.00068367	0.000590533	0.000796176	0.00130119	0.00061828	0.00174033
0.00341869	0.0123907	0.000689428	0.000632006	0.000853672	0.00117701	0.000617917	0.0017444
0.00289306	0.0110064	0.000688128	0.000655646	0.00096911	0.00111941	0.000602861	0.00163464
0.00245899	0.0119402	0.000780325	0.000643514	0.00101164	0.00106849	0.000565213	0.00135702
0.00173924	0.0110696	0.000805814	0.000652607	0.00107653	0.000986702	0.000596312	0.00137375
0.00107484	0.0109428	0.000836084	0.000629548	0.00103482	0.00096043	0.000708543	0.00124404
0.000833498	0.00838103	0.000856608	0.000624056	0.00100856	0.000960071	0.00141348	0.000908706
0.000782874	0.00755195	0.000881578	0.000641566	0.00109652	0.000955075	0.00194922	0.000846029
0.00127243	0.00763071	0.00088861	0.000639463	0.00108321	0.000840852	0.00239562	0.000985331
0.00135337	0.00757297	0.000881127	0.000652069	0.00101879	0.000792026	0.00253843	0.000991327
0.00138974	0.00773491	0.000864902	0.000633872	0.000956241	0.000797429	0.0027081	0.00102849
0.00138685	0.0082396	0.000885315	0.000614033	0.000880341	0.000815392	0.00286703	0.000954364
0.00137681	0.00630349	0.00081621	0.000643989	0.000799123	0.000792546	0.00290692	0.000983045
0.00137667	0.00525987	0.000796914	0.000649578	0.000782557	0.000818129	0.00292139	0.000963885
0.00137097	0.00366478	0.000803061	0.000672576	0.000742876	0.000820494	0.00321175	0.00100424
0.00135755	0.00300186	0.000812726	0.000721542	0.000807304	0.000835583	0.00297703	0.00109369
0.0013502	0.00249088	0.000842993	0.000816163	0.000720285	0.000878622	0.00229648	0.00110703
0.000765176	0.00219211	0.000843366	0.000821552	0.000654447	0.000846787	0.001832	0.00101977
0.000644926	0.00200286	0.000836276	0.000825996	0.000662912	0.000792864	0.00168707	0.00103126
0.000629478	0.0019199	0.000825425	0.000832192	0.000651005	0.000745206	0.00152172	0.0010578
0.000633235	0.0010187	0.00079517	0.000903749	0.000664618	0.000755353	0.00150643	0.00104634
0.000659327	0.000988575	0.000811207	0.000872368	0.000717245	0.000886529	0.00144089	0.0010163
0.000639762	0.000990143	0.000795355	0.000874227	0.00073196	0.00097147	0.00141679	0.00094414
0.000684253	0.000889336	0.000747621	0.000861366	0.000728572	0.000976771	0.00122111	0.000933998
0.00069098	0.000906937	0.000700211	0.000823997	0.000675014	0.0010958	0.000928163	0.000882658
0.000661903	0.000928325	0.000665047	0.000728582	0.000689016	0.00103553	0.000847827	0.000865321
0.000629619	0.00117226	0.000647152	0.000710596	0.000696952	0.00102283	0.000760803	0.000908837
0.000598473	0.0013418	0.000596229	0.000712475	0.000677274	0.00105414	0.000766222	0.000899626
0.000549372	0.0013785	0.000595396	0.000708761	0.00070544	0.00109185	0.00077717	0.000796229
0.000555175	0.00157634	0.000529785	0.000601009	0.000262506	0.000288024	0.00370543	0.0024152
0.000867859	0.0014729	0.000540095	0.000845492	0.000307825	0.000356217	0.00392627	0.00335777
0.00093575	0.00138231	0.000567344	0.000966357	0.000371528	0.000448709	0.00404356	0.00399599
0.000963419	0.00122816	0.000616519	0.00113039	0.000415571	0.000554868	0.00424005	0.00562727
0.00111648	0.00109319	0.000621532	0.00119727	0.000446756	0.00064704	0.00412864	0.00668319
0.00173054	0.000848144	0.000636275	0.00116414	0.000468971	0.000647736	0.00392384	0.00755781
0.00219868	0.00275726	0.000605447	0.00110421	0.000510661	0.000644619	0.00403567	0.00795687
0.00223355	0.00335912	0.000572656	0.00109672	0.000499703	0.000640735	0.00405802	0.00823333
0.00204259	0.00354787	0.000579815	0.00108867	0.000488441	0.000652303	0.00406691	0.00820628
0.00218395	0.00390866	0.000645263	0.0011447	0.000477001	0.00063007	0.0036183	0.00838
0.00221061	0.00602631	0.000634354	0.00112351	0.000525487	0.000666829	0.00379091	0.00798005
0.00215111	0.0069846	0.000646116	0.00112412	0.000558726	0.000658915	0.00389042	0.00750491
0.00171923	0.0070952	0.000644897	0.00107978	0.000560298	0.000670098	0.00385034	0.00706873
0.00170636	0.00535814	0.000666346	0.00108663	0.000526659	0.000653239	0.00395875	0.00660709
0.0018437	0.00467607	0.000687502	0.000957348	0.000522053	0.000653799	0.00346348	0.00563799
0.00189494	0.00519136	0.000695077	0.000869449	0.000537598	0.000653504	0.00327434	0.00601313
0.00177486	0.00495341	0.000656816	0.000832309	0.000561487	0.00064391	0.00345556	0.00586552
0.00179486	0.0031174	0.000624255	0.000830303	0.00063489	0.000593317	0.00298143	0.00555389
0.00178938	0.00230251	0.00060958	0.000956096	0.000602065	0.000597811	0.00272082	0.00520813
0.00163952	0.00207672	0.00060047	0.00102422	0.000590506	0.000630595	0.00255133	0.00557774
0.00119312	0.00206231	0.00059135	0.00104605	0.000600246	0.0006485	0.00228719	0.00545285
0.00101546	0.00204431	0.000608237	0.00115212	0.000620112	0.000652616	0.00299665	0.00512529
0.000825158	0.00126521	0.000623119	0.00115319	0.000656625	0.000682423	0.0029255	0.00467448
0.000809938	0.0012513	0.000646967	0.00115987	0.000630113	0.000723187	0.00342199	0.00596824
0.00111069	0.0024031	0.000666368	0.00117722	0.000570142	0.000699034	0.00342732	0.0056722
0.00121739	0.0037385	0.000704745	0.00107412	0.000594009	0.000666783	0.00409461	0.00601498
0.00126853	0.0037548	0.000694604	0.00105039	0.000589236	0.000666311	0.00452902	0.00581843
0.00123866	0.00371174	0.000699598	0.00117407	0.000598515	0.00063554	0.00490325	0.00563602
0.00121412	0.00379528	0.000686071	0.00109323	0.000607073	0.000632391	0.00420286	0.0064057
0.00127099	0.00464288	0.000673247	0.00108679	0.000586679	0.000586211	0.00409711	0.0060438
0.00140983	0.00447314	0.00066034	0.00126156	0.000603805	0.0005625	0.0041191	0.0064723
0.00114373	0.00288194	0.000675844	0.00120657	0.000581402	0.000603653	0.00414671	0.00710055
0.00147852	0.00198529	0.000696497	0.00118023	0.000563091	0.000610739	0.00348909	0.00714117
0.00179666	0.00199591	0.000697706	0.00114184	0.000544034	0.000588392	0.00321628	0.0068042
0.00181855	0.00200277	0.000706585	0.00102243	0.000522546	0.00063529	0.00305596	0.00691031
0.00183299	0.00180377	0.000709002	0.00110525	0.000517487	0.000644318	0.00322057	0.00699688
0.00176265	0.000965286	0.000704621	0.00127138	0.000508974	0.000619076	0.00344028	0.0072631
0.0016177	0.00241356	0.000717743	0.00112617	0.000479233	0.000644822	0.00287505	0.0057603
0.00147938	0.00323145	0.000728002	0.00115068	0.000477686	0.000594612	0.00272996	0.00610356
0.00111275	0.00338119	0.000640167	0.00125277	0.000562997	0.000559523	0.00299128	0.00657836
0.000847144	0.003429	0.000673245	0.00129015	0.000585411	0.00064749	0.00374186	0.00788116
0.00135102	0.00339425	0.000669135	0.0014118	0.000574158	0.000631123	0.0035998	0.00769201
0.00141096	0.00338109	0.00067018	0.00129996	0.000570037	0.000605312	0.00345907	0.00728284
0.00140237	0.00339003	0.000688444	0.0011722	0.000575786	0.000612	0.00317329	0.0078862
0.00140012	0.00167549	0.000739996	0.00121379	0.000583178	0.000610606	0.00383021	0.00768767
0.00148617	0.000845795	0.000718933	0.00127141	0.000605591	0.000636128	0.00414467	0.0074598
0.0012985	0.000692138	0.000731394	0.00131029	0.000530672	0.000643477	0.00414929	0.0073994
0.0012666	0.000631145	0.000713877	0.00148443	0.000549292	0.000604992	0.00443249	0.007238
0.000764711	0.000631193	0.000718937	0.0013719	0.000565932	0.000615939	0.00466096	0.00763784
0.000873938	0.000649311	0.000687426	0.00141035	0.000545696	0.000612298	0.00488617	0.00723103
0.000984323	0.0006541	0.000685187	0.0013908	0.000529666	0.000627224	0.00479512	0.00683019
0.000972657	0.000675469	0.000621485	0.00133158	0.000501956	0.000654436	0.00433199	0.00629927
0.000843597	0.000843959	0.000628448	0.00128108	0.000497785	0.0006231	0.0042293	0.00578802
0.0015673	0.000865876	0.000643277	0.00119214	0.000485036	0.000594897	0.0042931	0.00509233
0.00170708	0.000850231	0.000652884	0.00116824	0.000515787	0.000626625	0.00433544	0.00441285
0.00185516	0.00089211	0.000642523	0.00119597	0.000518885	0.000599233	0.00408532	0.00447031
0.00163859	0.0008935	0.000656517	0.00132505	0.000551985	0.000615651	0.00433236	0.00468939
0.0015834	0.000864102	0.000620617	0.00148885	0.000559864	0.000603777	0.00464718	0.00438615
0.00161554	0.000798949	0.000626298	0.00152124	0.000591841	0.00058185	0.00437034	0.00430823
0.00189454	0.000668463	0.000627857	0.00148924	0.000600426	0.000626413	0.00459376	0.0044537
0.00121998	0.000641847	0.000592746	0.00142382	0.000620745	0.000653297	0.00405536	0.00502804
0.00126418	0.00117458	0.000592741	0.00151045	0.000598315	0.000607359	0.00342568	0.00524669
0.00121874	0.00160616	0.000607992	0.00159646	0.000608917	0.000587373	0.00417795	0.00508612
0.00184371	0.00161864	0.000630934	0.00143323	0.000617387	0.000578015	0.00366976	0.00588506
0.00207719	0.00167126	0.000680343	0.0014331	0.000593274	0.00058819	0.00421116	0.00662607
0.00215692	0.00170688	0.000694402	0.00141015	0.000596173	0.000560889	0.00458749	0.00683952
0.00204575	0.00174083	0.000663515	0.00142476	0.000580971	0.000542425	0.00432766	0.00658024
0.00216671	0.00176909	0.000678266	0.00144486	0.000583178	0.000521566	0.00447761	0.00612344
0.00200215	0.0012237	0.00064409	0.00126127	0.000582532	0.000541104	0.00425833	0.00667691
0.00196295	0.00081362	0.000645053	0.00115081	0.000586439	0.000576679	0.00385494	0.006994
0.00131735	0.000844706	0.000646199	0.00133324	0.000578401	0.000574206	0.00457383	0.00612808
0.00106477	0.001506	0.000660665	0.00120172	0.000569702	0.000591617	0.00412264	0.00598631
0.00108186	0.00160607	0.000675264	0.00129405	0.000573389	0.000579858	0.00404679	0.00711494
0.00127333	0.00155398	0.000698333	0.0012686	0.000592569	0.000579417	0.00400097	0.00744031
0.00154523	0.00146924	0.000687637	0.00140709	0.000565359	0.000571792	0.00514676	0.00751694
0.0015588	0.0014979	0.000696741	0.00149388	0.000598254	0.000534166	0.00536776	0.00642292
0.00158538	0.0014968	0.000665274	0.00145354	0.000603802	0.000569309	0.00551317	0.00584959
0.00195548	0.00149384	0.00065903	0.00128551	0.000573933	0.00054882	0.00466557	0.00575164
0.00195034	0.000733768	0.000648478	0.00152369	0.000609739	0.000584076	0.00486397	0.00518548
0.00172061	0.000640206	0.000659025	0.00148429	0.000603704	0.000585976	0.00479383	0.004512
0.00138711	0.000704515	0.00065678	0.00159778	0.000624604	0.000563916	0.00503562	0.00504381
0.00106177	0.000788197	0.000722569	0.00145168	0.000639702	0.000571199	0.00398915	0.00464202
0.00101849	0.000759087	0.000718378	0.00134842	0.000597738	0.000575869	0.00371607	0.00484447
0.00094375	0.000847989	0.000709889	0.00132059	0.000563775	0.000564179	0.0034416	0.0059334
0.000587704	0.00105155	0.000735636	0.00132059	0.000561965	0.000593986	0.00357531	0.00635126
0.000578638	0.0011158	0.000717835	0.0010677	0.000547927	0.000617427	0.00326635	0.00593356
0.000648537	0.00111091	0.00071683	0.00107248	0.000540058	0.000613302	0.00342921	0.00521178
0.00119191	0.00102695	0.000671048	0.000938353	0.000487055	0.000622535	0.00354019	0.00442745
0.00135321	0.00095675	0.000629977	0.000992446	0.000442974	0.000628483	0.00332518	0.00483119
0.00139593	0.00100614	0.000641286	0.00104695	0.000455289	0.000638187	0.0034633	0.00468412
0.00199473	0.00139586	0.000659204	0.00104964	0.000486586	0.000626043	0.0034926	0.00398293
0.00210235	0.00203553	0.000624568	0.00101543	0.000502751	0.000595191	0.00310581	0.00397281
0.00215343	0.00198706	0.00060494	0.00102117	0.000503138	0.000571302	0.00290498	0.00408061
0.00218008	0.00198964	0.000634649	0.00110087	0.000489702	0.000574775	0.00317857	0.00434211
0.00163705	0.00203227	0.000658935	0.00108563	0.000498557	0.000570041	0.00307257	0.00442656
0.00163765	0.0020145	0.000667157	0.00104639	0.000500386	0.00056621	0.00319873	0.00397908
0.00194064	0.0019364	0.000671772	0.000959303	0.000487331	0.000556386	0.0032951	0.00383936
0.00140442	0.0012698	0.000651314	0.000976163	0.000478623	0.000542893	0.00382225	0.00365117
0.00133697	0.000597396	0.000659845	0.00101465	0.000445933	0.000555425	0.00399126	0.00349768
0.00133201	0.000607655	0.000669408	0.00110049	0.000452145	0.000578461	0.00438522	0.00354017
0.00591237	0.0162119	0.000672702	0.00115488	0.0005522	0.00164542	0.00283733	0.00389485
0.00261265	0.0169086	0.000671518	0.00110764	0.000558882	0.00187364	0.002478	0.00448311
0.00151625	0.0160002	0.000643466	0.00101728	0.000504169	0.00203444	0.00240191	0.00453644
0.00134709	0.014877	0.000603091	0.000897457	0.000501131	0.00225666	0.00236293	0.00468633
0.00136856	0.0147393	0.000579366	0.000860894	0.000498068	0.00239761	0.00252956	0.00473436
0.00136646	0.0145714	0.000595771	0.000819109	0.000516705	0.00258004	0.00262124	0.00405865
0.00143185	0.0140465	0.000603504	0.000791987	0.000528262	0.00262952	0.00247427	0.00346521
0.00198507	0.0142391	0.000600157	0.000843651	0.000542114	0.00285311	0.00242548	0.00324513
0.00211358	0.0130015	0.000595039	0.000813132	0.000520935	0.0029119	0.00250076	0.00350215
0.00273013	0.0102163	0.000620625	0.000792323	0.000519864	0.00312955	0.00259162	0.00314423
0.0029578	0.0115473	0.000610983	0.000724343	0.000568949	0.00344459	0.00229912	0.00303757
0.00292534	0.0101085	0.000607074	0.000720191	0.000572395	0.00329786	0.00195107	0.00253088
0.00306859	0.00932383	0.000614702	0.000755867	0.000558509	0.00310153	0.0018956	0.00200165
0.00429066	0.00922934	0.000643748	0.000809258	0.00055681	0.00280653	0.00186239	0.00186076
0.00625848	0.00970916	0.000644236	0.00081896	0.000563239	0.00248042	0.00179269	0.00227249
0.00681931	0.0111973	0.000653714	0.000859267	0.000585011	0.00233459	0.00164827	0.0023841
0.0067884	0.0122672	0.000661092	0.000895207	0.000575083	0.00226734	0.00163873	0.00239764
0.00669955	0.0144296	0.000683558	0.000787106	0.000568252	0.00234147	0.00157926	0.00243607
0.0069827	0.015576	0.000668849	0.000745717	0.000597706	0.00268418	0.0014904	0.00217154
0.00719769	0.0152353	0.000715523	0.000723284	0.000597801	0.00278961	0.00138878	0.00199988
0.00651624	0.0111669	0.000694133	0.000670833	0.00060732	0.00236995	0.00108938	0.00193622
0.00662175	0.0100885	0.000682342	0.000678213	0.000576541	0.0024755	0.000971163	0.00174631
0.00663963	0.0121489	0.000678347	0.000640068	0.000597614	0.00276722	0.000925397	0.00171708
0.00633295	0.0146728	0.000715393	0.000587564	0.000599107	0.00281067	0.000848242	0.00164981
0.00485832	0.0158755	0.00070497	0.000559711	0.000594174	0.00283855	0.000798948	0.00147786
0.00298566	0.0157699	0.000709102	0.000533877	0.000558539	0.00274073	0.000748812	0.00107245
0.00265199	0.0146465	0.000704085	0.000484187	0.000564877	0.00277349	0.000642724	0.00102994
0.00271992	0.0149591	0.000706655	0.000484574	0.000623388	0.00284539	0.00063668	0.00112509
0.00279508	0.0130953	0.00070718	0.000507731	0.000663893	0.00237629	0.000705744	0.00152539
0.00206187	0.0115241	0.000721441	0.000518581	0.000630535	0.00199302	0.000720964	0.0015391
0.0022073	0.011418	0.000669862	0.000516122	0.000628673	0.00195279	0.000746321	0.00153469
0.00196193	0.0113755	0.000699587	0.000523331	0.00064333	0.00193428	0.000740059	0.00152086
0.00192023	0.00990132	0.000723973	0.000522311	0.000641604	0.00142954	0.000707684	0.00142023
0.00193421	0.00783443	0.000708504	0.0005314	0.000622946	0.0011487	0.000672286	0.00133032
0.00197155	0.00633602	0.000663833	0.000546794	0.000609441	0.00111441	0.000669689	0.00131177
0.00198768	0.00875596	0.000690593	0.000549792	0.000621637	0.00121833	0.000734904	0.00131567
0.00198705	0.0104105	0.000716204	0.000553971	0.00063406	0.00120564	0.000774014	0.00122906
0.00223447	0.0119862	0.000718152	0.000571508	0.000630745	0.0011844	0.000782764	0.00120715
0.00264493	0.0114996	0.000713623	0.000542442	0.000541218	0.00124529	0.0007258	0.00101831
0.00290847	0.0118607	0.000702157	0.000519295	0.000541884	0.00131017	0.000715224	0.00103591
0.0028825	0.013159	0.000678116	0.000546492	0.000555378	0.00135232	0.000734383	0.00105685
0.00260067	0.0134841	0.000665232	0.00057115	0.000576055	0.00133615	0.00071817	0.00104908
0.00255288	0.015104	0.000642298	0.000576329	0.00056133	0.001318	0.000762122	0.00104185
0.00257147	0.0164483	0.000624048	0.000576258	0.000552375	0.00133504	0.000785511	0.00107563
0.00292264	0.0182015	0.000655177	0.000563376	0.000573948	0.00134319	0.000958332	0.0010847
0.00345912	0.0184604	0.0006991	0.000575383	0.000604294	0.00129582	0.00198971	0.00107327
0.00412515	0.0160233	0.000676194	0.000599604	0.00063335	0.00116573	0.00245618	0.00114675
0.0042471	0.0142046	0.000647866	0.000605303	0.000657339	0.00109299	0.00273203	0.00133855
0.00391617	0.012018	0.00069241	0.000636381	0.000663753	0.00103559	0.00286775	0.00155604
0.00312901	0.0118931	0.000724944	0.000643247	0.000670857	0.000922049	0.00300878	0.00168319
0.00269291	0.0114187	0.000753221	0.000632776	0.000704225	0.000842181	0.00314355	0.00152037
0.00280282	0.0103491	0.000806291	0.000614814	0.000823201	0.000871074	0.00318575	0.00173478
0.00285016	0.0105332	0.000850137	0.000605353	0.000899516	0.000941925	0.00333589	0.00195574
0.0027458	0.0104626	0.000832322	0.000655039	0.000937615	0.000969084	0.00383781	0.00204952
0.00293519	0.0106602	0.00085343	0.00064864	0.000944767	0.000984979	0.00404159	0.00219454
0.00345259	0.0104653	0.000910349	0.000662922	0.000988839	0.000981882	0.00363014	0.00222757
0.00432452	0.00907527	0.000903858	0.000654249	0.000999555	0.000971249	0.00279985	0.00234342
0.00388391	0.00889726	0.000933332	0.000675198	0.000954644	0.000987982	0.00220154	0.00234491
0.0037966	0.00886732	0.000931994	0.000726069	0.000927981	0.00104913	0.00204989	0.00222219
0.00377348	0.0103748	0.00090162	0.000708404	0.000931976	0.000960414	0.00209162	0.00214634
0.00377474	0.0117526	0.000875779	0.000738264	0.000948079	0.000889125	0.00211367	0.00205571
0.00375043	0.0119042	0.000891602	0.000740971	0.000980941	0.000958826	0.00223201	0.00198428
0.00359114	0.0118399	0.000806194	0.00077939	0.000872956	0.000825013	0.00219505	0.00169385
0.00402776	0.0107738	0.000782076	0.000751901	0.000847526	0.000746937	0.00194522	0.00153701
0.0040665	0.00927457	0.000832452	0.000737955	0.000857858	0.000721743	0.00152141	0.00146982
0.00363439	0.00773921	0.000852364	0.000731177	0.000847565	0.000724484	0.00141143	0.00152719
0.00226549	0.00674563	0.000774411	0.000724457	0.000850015	0.000766828	0.00142155	0.00154053
0.00124109	0.00620658	0.000758295	0.000670753	0.000817293	0.000847971	0.00144768	0.00151816
0.00119017	0.00626753	0.000718727	0.00069415	0.000854325	0.000955039	0.0014799	0.00149038
0.00118338	0.00626013	0.000723413	0.000639396	0.000916293	0.000949805	0.00149073	0.00150023
0.00118582	0.0038854	0.000744107	0.00063275	0.000888161	0.000936148	0.00127071	0.00136892
0.00118844	0.00266283	0.000746588	0.000594751	0.000915729	0.000934989	0.00117503	0.00145248
0.00119006	0.00230147	0.000774939	0.000578392	0.000954707	0.000947193	0.000952735	0.00149224
0.00104672	0.00211364	0.000799695	0.000566872	0.000937941	0.000968594	0.000947955	0.0014992
0.000577599	0.00189277	0.000834113	0.000547025	0.000895448	0.00101647	0.000940457	0.00151919
0.000487646	0.00189556	0.000806249	0.000564562	0.000941783	0.00103331	0.000896253	0.00143807
0.000496627	0.00162205	0.000770486	0.000600225	0.000925312	0.00102549	0.000907555	0.00128908
0.000494273	0.00109159	0.000805851	0.000635081	0.000951039	0.00101726	0.000887378	0.00125051
0.000509659	0.00110234	0.000824905	0.000645864	0.00100928	0.000938877	0.000845754	0.00118537
0.000493507	0.00098924	0.000832196	0.00071412	0.000950194	0.00083654	0.00084504	0.00118731
0.000504934	0.00101604	0.00084365	0.000728142	0.000956772	0.000805464	0.000823764	0.00106727
0.000504132	0.00113341	0.000826568	0.000726042	0.000992581	0.000815217	0.000797879	0.000970477
0.000490187	0.00155713	0.000819695	0.000840209	0.00100278	0.000783018	0.000762473	0.000885621
0.000462785	0.00315634	0.000796352	0.000886928	0.000885609	0.000761782	0.000735159	0.000833232
0.000474264	0.00363452	0.000767276	0.000894994	0.000881719	0.000763666	0.000735998	0.000806505
0.000481127	0.00366194	0.000733928	0.000890772	0.000844697	0.000724702	0.000707194	0.000853318
0.000486925	0.00365015	0.000702368	0.000875548	0.000899615	0.000708706	0.000640729	0.00084403
0.000492616	0.00366814	0.000701289	0.000865508	0.000911359	0.000696795	0.000636787	0.000854559
0.000518945	0.00360707	0.000680095	0.000903448	0.000854403	0.000700894	0.000646611	0.000912395
0.000520321	0.00372337	0.000717207	0.000848102	0.000890296	0.000705063	0.00061439	0.000939977
0.000525971	0.00419918	0.000701344	0.000789786	0.000872531	0.000731177	0.00062001	0.00103299
0.00048903	0.00536352	0.000697803	0.000771149	0.000838954	0.000911139	0.000611839	0.001068
0.000483375	0.00665206	0.000697106	0.000731141	0.000942319	0.0010265	0.000642675	0.00123005
0.000494023	0.00644858	0.000701548	0.000654096	0.000935609	0.00110255	0.000632164	0.00138217
0.000507297	0.00501461	0.000748709	0.000612028	0.000921508	0.00108057	0.000705526	0.00149272
0.000515641	0.00473908	0.000805605	0.00064104	0.000971406	0.00110872	0.000750991	0.00154751
0.000521564	0.00472083	0.000927229	0.000646125	0.00106435	0.00117915	0.000882432	0.00150124
0.000518133	0.00477517	0.000934268	0.000642421	0.000984996	0.00116384	0.000997061	0.00156918
0.000506867	0.00480332	0.000975458	0.000588312	0.00100701	0.00122684	0.00102329	0.0016778
0.000511307	0.00480923	0.000978433	0.000575972	0.00106174	0.00132064	0.00106942	0.00164742
0.000555175	0.00157634	0.000529785	0.000601009	0.000262506	0.000288024	0.00370543	0.0024152
0.000894748	0.00147584	0.000551806	0.000870514	0.000319359	0.000367841	0.00393321	0.00353827
0.000956058	0.00132784	0.000579953	0.0010419	0.000394318	0.000490635	0.00407374	0.00441726
0.00107951	0.00111672	0.000635617	0.00119964	0.000433256	0.000624413	0.00414728	0.00637269
0.00159581	0.000845069	0.000647615	0.00118808	0.000467321	0.000651173	0.00397202	0.00738185
0.00220348	0.0027646	0.000603942	0.00110342	0.000508914	0.000646657	0.00402799	0.00791386
0.00211876	0.00347525	0.000589606	0.00105372	0.000499611	0.000636296	0.00396542	0.00842491
0.00206962	0.0036054	0.000588663	0.00119102	0.00048567	0.000643943	0.00391959	0.00819164
0.00221901	0.00492347	0.000639433	0.00114878	0.000496081	0.000640534	0.00364717	0.00843074
0.00208754	0.00681822	0.000660831	0.00112144	0.000556021	0.000658384	0.00378883	0.00753662
0.00169507	0.00698409	0.000645429	0.00107864	0.000560647	0.000670296	0.00382739	0.00693623
0.00174914	0.0051125	0.00068336	0.00106024	0.000517939	0.000647446	0.00397359	0.00641822
0.00190107	0.00476213	0.000709348	0.000960279	0.000541423	0.00065579	0.00326343	0.00570161
0.0018055	0.0052399	0.000676329	0.000852741	0.000550888	0.000648716	0.00336735	0.00623239
0.00175735	0.00336547	0.000630684	0.000819737	0.000641124	0.000599241	0.00292623	0.00557373
0.00176215	0.00225276	0.000606132	0.00095407	0.000597964	0.000601927	0.00272022	0.00503719
0.00164808	0.00207391	0.000587769	0.00105584	0.000590357	0.000643539	0.00247251	0.00553618
0.0010643	0.00204942	0.000596254	0.00105098	0.000611952	0.000648489	0.00240348	0.005423
0.00094548	0.00140559	0.000611199	0.00116823	0.000666923	0.000670827	0.00297675	0.0045322
0.000805217	0.00127872	0.00064603	0.00115116	0.000648881	0.000717034	0.00341238	0.00602147
0.00113192	0.00279471	0.000669514	0.001191	0.000573929	0.000682089	0.00342516	0.00564534
0.00121112	0.00378605	0.000708315	0.00112573	0.000600355	0.000657735	0.00437233	0.0059324
0.00126227	0.00372687	0.000708064	0.0010828	0.000594666	0.000638381	0.00456834	0.0056785
0.00122441	0.00374359	0.000685907	0.00118558	0.000611227	0.000622027	0.00439914	0.00626319
0.00124737	0.00462029	0.000674603	0.00108442	0.000585126	0.000600721	0.00411655	0.00606845
0.00141233	0.00448418	0.000660042	0.00125798	0.000604542	0.000563119	0.00416796	0.00670133
0.00111917	0.00229046	0.000664482	0.00121429	0.000578622	0.000597583	0.0039253	0.00668999
0.00177452	0.00198528	0.000684018	0.00114054	0.000547514	0.00058119	0.00327519	0.00694965
0.00181447	0.00199365	0.000696941	0.000994682	0.000514744	0.000607676	0.00316983	0.00699481
0.00183322	0.00184196	0.000708457	0.00107989	0.000519248	0.00064632	0.00322153	0.00701748
0.00170494	0.000962283	0.000692615	0.00130061	0.000494385	0.000628833	0.00348261	0.00730231
0.00155668	0.00300383	0.000713893	0.00117358	0.000478749	0.000612318	0.0028789	0.00583853
0.0012006	0.00333443	0.000685982	0.00117637	0.000544694	0.000586704	0.00287073	0.00656179
0.000855626	0.00343878	0.000676759	0.00128643	0.00058454	0.000634301	0.00353543	0.00774998
0.00134903	0.00339201	0.000669097	0.00140809	0.000574107	0.000631655	0.00361033	0.00772339
0.00140117	0.00336821	0.000689822	0.00126753	0.000570789	0.000607299	0.00337496	0.007434
0.00141328	0.00325499	0.000683568	0.00112491	0.000582711	0.000585641	0.0035166	0.00817937
0.00139941	0.00115836	0.000721789	0.00125767	0.000604995	0.000632751	0.00423043	0.0073605
0.00131197	0.000709191	0.000743466	0.00127033	0.000537751	0.000679765	0.00419737	0.00729491
0.00125796	0.00063323	0.00071427	0.00148554	0.000548863	0.000606272	0.00443818	0.00723684
0.000719816	0.000630678	0.00071345	0.00133727	0.000556667	0.000621448	0.0046382	0.00768214
0.000945943	0.00064213	0.000700734	0.00140822	0.00052509	0.000617356	0.00497475	0.00714606
0.000985314	0.000640785	0.000650692	0.00135138	0.000519604	0.00064513	0.00428049	0.00635213
0.000872217	0.000845625	0.000631281	0.001287	0.000481244	0.000629391	0.0042878	0.00576531
0.0015861	0.000868477	0.000641583	0.0012063	0.000486065	0.000597612	0.00427345	0.00500408
0.00177573	0.000856521	0.000656792	0.0011393	0.000519536	0.000610554	0.00438203	0.00421002
0.00184779	0.000886083	0.000648209	0.00124457	0.000534895	0.000596407	0.00391647	0.0046059
0.00157512	0.000871378	0.000636398	0.00148408	0.000564448	0.000612787	0.00454852	0.00407804
0.00159644	0.000841622	0.000612782	0.00152488	0.000592695	0.000585303	0.00447651	0.00433271
0.00179062	0.000656916	0.000624745	0.00149819	0.000600447	0.000625508	0.0046141	0.00447704
0.00117503	0.000665108	0.000596644	0.00134328	0.000618631	0.000629563	0.00345767	0.00502571
0.0012379	0.00154623	0.000596067	0.00149652	0.000593978	0.000594635	0.00368415	0.00522106
0.0016034	0.0016234	0.000621625	0.00155658	0.000627666	0.000579941	0.00369275	0.00566119
0.00202941	0.0016721	0.000676324	0.00139637	0.000608178	0.000587113	0.00411298	0.00641716
0.00219712	0.00169504	0.000689716	0.00140427	0.000595227	0.000560288	0.00458261	0.00683291
0.00202178	0.00176618	0.000670539	0.00141193	0.000576706	0.000521339	0.00443968	0.00612703
0.00211974	0.00169067	0.00067208	0.00138172	0.000592683	0.000536938	0.00447713	0.00631072
0.00196345	0.00083493	0.000621153	0.00122011	0.00058714	0.000551123	0.00376804	0.00682279
0.00133322	0.000831731	0.000655558	0.00133109	0.000572397	0.000577601	0.00452026	0.00614273
0.00106671	0.00157306	0.000685317	0.00118515	0.000566755	0.00058321	0.00408676	0.00597785
0.00122903	0.00159386	0.000683267	0.00127361	0.00058941	0.000591592	0.0040568	0.00730193
0.00150296	0.00150718	0.00072367	0.00128276	0.000580689	0.000558761	0.00435483	0.00736572
0.00155786	0.00149543	0.000683897	0.00143104	0.000597504	0.000533575	0.00526673	0.00664801
0.00157537	0.00149025	0.000668839	0.00148564	0.000604403	0.000558929	0.00549475	0.00588282
0.00198061	0.00134886	0.000640052	0.00127806	0.000582113	0.000542009	0.00458954	0.00575286
0.00193125	0.000667039	0.000635151	0.00156462	0.000605445	0.000576225	0.00483237	0.00482743
0.00148046	0.000670988	0.000651104	0.00146318	0.000592354	0.000570583	0.00501863	0.00504089
0.0010751	0.000752383	0.000709608	0.00147223	0.000631041	0.000577498	0.00435285	0.00471252
0.00102174	0.000765852	0.00072043	0.00134925	0.000599718	0.000573062	0.00374624	0.00484412
0.000825964	0.000843757	0.000711627	0.00129618	0.000569968	0.0005603	0.00344989	0.00596543
0.000577822	0.00112106	0.000745391	0.00127687	0.000544147	0.000607689	0.0034287	0.00625732
0.00064443	0.00111525	0.000704759	0.00103966	0.000533803	0.000611037	0.00345434	0.00560865
0.00115911	0.0010541	0.000702558	0.000955788	0.000501862	0.000632446	0.00345257	0.00430864
0.00135295	0.000957042	0.000630141	0.000992293	0.000443704	0.0006286	0.0033249	0.00483061
0.00143223	0.00102931	0.000657283	0.00105397	0.000471743	0.000607262	0.0035315	0.00438362
0.00208014	0.00182769	0.000633997	0.000992265	0.000491943	0.000609489	0.00338557	0.00435917
0.00213438	0.00198803	0.000608529	0.00104098	0.00049906	0.000568379	0.00316767	0.00414559
0.00223791	0.00200423	0.000630376	0.0011194	0.000485582	0.000568864	0.0031468	0.00421004
0.0016378	0.00203276	0.000657624	0.00108178	0.000499078	0.000569961	0.00306412	0.00436827
0.0016338	0.00202419	0.000673736	0.00101837	0.000478707	0.000573308	0.00307782	0.00389825
0.00171431	0.00178054	0.000667082	0.000971429	0.000478061	0.000551672	0.00356409	0.00375701
0.00136218	0.000738564	0.000668177	0.00101187	0.000448376	0.000571312	0.00390682	0.00347287
0.00130879	0.00062152	0.00067667	0.00105907	0.000442746	0.000582347	0.00409554	0.00356816
0.00138812	0.000767912	0.000631799	0.000995593	0.000472891	0.000564433	0.00395362	0.00345339
0.00142829	0.000928302	0.000619581	0.00100763	0.000453707	0.000566751	0.00391692	0.0031141
0.00164215	0.00104074	0.000598703	0.000987166	0.000475661	0.000570233	0.00403991	0.00341941
0.00163124	0.00202527	0.000632145	0.000992759	0.000513127	0.000602939	0.0034901	0.00504489
0.00190811	0.00201795	0.000663237	0.000982916	0.000522208	0.000579717	0.00384234	0.00538948
0.00238967	0.00200508	0.000673593	0.000978208	0.000507397	0.000547673	0.00396675	0.00578581
0.00225567	0.00175025	0.000709465	0.00103545	0.000474304	0.000602842	0.00414398	0.00560974
0.00238935	0.00165979	0.000769605	0.00104684	0.000457329	0.00056262	0.00418213	0.0059327
0.00182152	0.001274	0.000843345	0.00104449	0.000468267	0.000576697	0.00471141	0.00493171
0.00159324	0.000599056	0.000803776	0.00118253	0.000459947	0.000580678	0.00493567	0.00442719
0.0014733	0.000806324	0.000768201	0.00127665	0.000451265	0.000639132	0.00463845	0.0049958
0.00107403	0.000869593	0.000741947	0.00118669	0.00045827	0.0006126	0.00441106	0.00522992
0.00105572	0.000915276	0.000758099	0.00129273	0.000518963	0.00066083	0.00473533	0.00608544
0.00127279	0.000917924	0.000706062	0.00134075	0.000611473	0.000691728	0.00475503	0.00671925
0.00162499	0.000952808	0.000618749	0.00136829	0.000620142	0.000642596	0.0043085	0.00679461
0.00165798	0.000908353	0.00061528	0.00123996	0.000619871	0.000614566	0.00394637	0.00644832
0.00184982	0.000928742	0.000645071	0.00112584	0.000630632	0.000584918	0.00399672	0.00639717
0.00187224	0.0187587	0.000815253	0.000901518	0.000987797	0.00175825	0.00229972	0.00421963
0.00210932	0.0188054	0.000830687	0.000929472	0.00107124	0.0022349	0.00207088	0.00398574
0.00227414	0.0183582	0.000862947	0.000947549	0.00112651	0.0025678	0.00199247	0.0038326
0.00236786	0.016879	0.00085747	0.001003	0.00114328	0.00256571	0.00204083	0.00374144
0.00240271	0.0156352	0.00088198	0.000996128	0.00112975	0.00274599	0.00218102	0.00377234
0.00253479	0.0131051	0.000911107	0.000995879	0.00115459	0.00288415	0.00207663	0.00363302
0.00283501	0.0119213	0.000967675	0.000947452	0.0011911	0.00306732	0.00224375	0.00334745
0.00327556	0.0110259	0.00100243	0.000927804	0.00118417	0.00323177	0.00226966	0.00357589
0.00398291	0.0126201	0.00104442	0.000950427	0.00121448	0.00330844	0.00247435	0.00324042
0.00431745	0.014049	0.00107425	0.000980843	0.00123564	0.00365203	0.00266754	0.00330861
0.00743737	0.013624	0.00104491	0.000980839	0.00124439	0.00435641	0.00295846	0.00298178
0.00830831	0.0126044	0.000953299	0.00102073	0.00123747	0.00476798	0.00305237	0.00301704
0.00840796	0.00981048	0.000918954	0.0010182	0.001073	0.00474965	0.00287638	0.00303673
0.00810866	0.00943934	0.000893387	0.00097981	0.000880255	0.00462817	0.00276751	0.00277769
0.0077713	0.0091166	0.000875278	0.000874397	0.000752463	0.00426935	0.00256327	0.00227462
0.00752486	0.00950822	0.00082565	0.00083317	0.000719962	0.00380656	0.00247574	0.00217838
0.00756313	0.0111849	0.000827109	0.000810101	0.000670006	0.00363555	0.00238707	0.00247203
0.00764364	0.0111859	0.000785778	0.000814319	0.000671829	0.00359614	0.00221144	0.0025553
0.00748736	0.0106403	0.00074227	0.000817752	0.000654063	0.00332117	0.00205536	0.00255327
0.00705507	0.0109488	0.000711966	0.00083561	0.000633709	0.00317089	0.00190155	0.00260913
0.00693131	0.0113208	0.000669889	0.000846783	0.000625814	0.00313947	0.00178646	0.00280291
0.0065798	0.0109312	0.000614806	0.000816174	0.000617666	0.00296801	0.00168648	0.00274483
0.00651617	0.0114387	0.000590613	0.000764027	0.000606195	0.0028793	0.00144348	0.00232774
0.00446515	0.0124914	0.000573524	0.000757746	0.00061851	0.0024209	0.00127835	0.00203146
0.00284598	0.0124275	0.000571884	0.000724756	0.000597855	0.00179721	0.000985061	0.00192879
0.00220737	0.0124976	0.000564577	0.000681884	0.000572573	0.00168845	0.000823874	0.0018345
0.00216892	0.0126557	0.000565867	0.000665031	0.000558899	0.00182263	0.000818199	0.00173622
0.00229713	0.0156348	0.000563337	0.000676271	0.000568273	0.0018604	0.000804998	0.00171835
0.00340886	0.0158885	0.000602754	0.000697483	0.000560162	0.00176383	0.00101927	0.00165869
0.00416223	0.0151754	0.000614898	0.000695338	0.000558748	0.00175719	0.00200937	0.00150432
0.00447481	0.0153101	0.000632237	0.000691236	0.000573487	0.00187229	0.00237407	0.00138441
0.00479036	0.0194143	0.000669052	0.000698468	0.000607336	0.002026	0.00276008	0.00136328
0.00486695	0.0211466	0.000700883	0.000692624	0.000637341	0.00193647	0.00300958	0.00134978
0.00481443	0.0206962	0.000676493	0.000670804	0.000640173	0.00181133	0.00305843	0.00101561
0.00673051	0.0207309	0.00068238	0.00067405	0.000621134	0.00188705	0.00307043	0.000848597
0.00777986	0.0233438	0.00070896	0.00067793	0.00066938	0.00186873	0.00303686	0.000918867
0.00810786	0.0240564	0.000742389	0.000671991	0.00067697	0.00182714	0.00304709	0.00110437
0.00829632	0.0251466	0.00077847	0.000681423	0.000680334	0.00187235	0.00305657	0.00118697
0.00830659	0.0252507	0.000795917	0.000683204	0.000675446	0.00193272	0.00303199	0.0013111
0.00827307	0.0252803	0.000775032	0.000695872	0.000680966	0.00193472	0.00302245	0.00134072
0.00817243	0.0230803	0.00078264	0.000707158	0.000665632	0.00203024	0.00294986	0.00137063
0.00803195	0.0217722	0.000756506	0.000673579	0.000671162	0.00206134	0.00284942	0.00146509
0.00708371	0.0205839	0.000736985	0.000657037	0.000688318	0.00204184	0.00203501	0.0014822
0.00792246	0.0203354	0.000716588	0.000635782	0.000683624	0.00193887	0.00153241	0.00144047
0.00919014	0.0172629	0.000695408	0.000626382	0.000638771	0.00178237	0.00119419	0.00139913
0.0103424	0.0160222	0.000715888	0.00057802	0.000631378	0.00168489	0.000903212	0.00131635
0.010909	0.0164742	0.000704095	0.00059728	0.000660157	0.00171207	0.000859451	0.00130213
0.00986607	0.0188751	0.000721144	0.00056473	0.000646159	0.00169554	0.00102537	0.00130268
0.00764127	0.0167382	0.00071204	0.000563198	0.000617823	0.00168312	0.00111074	0.00131709
0.00930566	0.0137484	0.000692655	0.000578576	0.0005913	0.00164471	0.0011236	0.00124165
0.00978532	0.0116209	0.000711285	0.000561704	0.000605335	0.00154497	0.00111665	0.00145415
0.0103442	0.0111755	0.000712156	0.000547132	0.000638502	0.0014871	0.00117539	0.00152474
0.0106461	0.0111155	0.000730467	0.000537048	0.000644511	0.00142908	0.00124723	0.00152964
0.0108237	0.0111207	0.000720526	0.000525747	0.000657334	0.00111226	0.00125837	0.00155443
0.0113436	0.0111066	0.000751857	0.000535495	0.000743078	0.000909536	0.00124875	0.00154411
0.011686	0.0114162	0.000773267	0.000520699	0.000792902	0.000899117	0.00119973	0.00146818
0.0112936	0.0123118	0.000779073	0.000531613	0.000825776	0.000914049	0.00144979	0.00147409
0.00928057	0.0125521	0.000796431	0.000534246	0.000815992	0.000913022	0.0015148	0.00146564
0.0081422	0.0122814	0.000793211	0.000541501	0.000798576	0.000901046	0.0015264	0.00146941
0.00721022	0.0135908	0.000793266	0.000531955	0.000755184	0.000902252	0.00150101	0.0014777
0.00687768	0.0152921	0.000825139	0.000522892	0.000752035	0.000840897	0.00144556	0.00149872
0.00686943	0.0137378	0.00091688	0.000538102	0.000838115	0.00081987	0.00121414	0.00156149
0.00536187	0.0132673	0.000897445	0.0005206	0.000847216	0.000787118	0.00124045	0.00183412
0.00391139	0.0131635	0.000869482	0.000525279	0.000841329	0.00070533	0.00119347	0.00173986
0.00324416	0.0129866	0.000831328	0.000514235	0.000853232	0.000618376	0.00120619	0.00158638
0.0028478	0.0128028	0.000792223	0.000514173	0.000842913	0.000585283	0.00113921	0.00144884
0.00276111	0.0128283	0.000858419	0.000497684	0.000868806	0.000570523	0.00120984	0.00145977
0.0020902	0.0128856	0.000825565	0.000497367	0.000847435	0.00058234	0.00122137	0.00148927
0.00142742	0.0125881	0.000837659	0.000496472	0.000834374	0.000586938	0.00123193	0.00151572
0.00121099	0.0116194	0.000870692	0.000509954	0.000799845	0.00061079	0.00100027	0.00151117
0.0010633	0.010797	0.000895722	0.000522724	0.000834908	0.000620277	0.000940803	0.00154999
0.00100098	0.00922498	0.00096701	0.000531204	0.000910103	0.000594789	0.00110921	0.00152191
0.000967548	0.00740543	0.000969534	0.000551088	0.000935384	0.000588756	0.00116566	0.00152869
0.000956127	0.00355675	0.000915224	0.000549686	0.00091341	0.000656693	0.00120202	0.00154839
0.000947742	0.00235772	0.000822229	0.000561264	0.000825229	0.000659774	0.0012407	0.00164435
0.000947845	0.00198929	0.000859403	0.000572522	0.000815436	0.000744976	0.00124936	0.00136803
0.000939036	0.00173117	0.000860514	0.00058005	0.000809325	0.000774209	0.00127707	0.001141
0.000930226	0.0016792	0.000854777	0.000568209	0.000816523	0.000808828	0.00131811	0.00109347
0.000943669	0.00167516	0.000882573	0.000587899	0.000860733	0.000817061	0.0013269	0.00107216
0.000986775	0.0016261	0.000871385	0.000583662	0.000859317	0.000825169	0.00126014	0.00111918
0.000938579	0.00156164	0.000848645	0.000596834	0.000779466	0.000817692	0.00126227	0.00104728
0.000789267	0.00155369	0.000848565	0.000605904	0.000756178	0.000842218	0.00129083	0.000993284
0.000653261	0.00203338	0.000823946	0.000618717	0.000770897	0.000826229	0.00126343	0.000973866
0.00064338	0.00334212	0.000833082	0.000616867	0.000767022	0.000804789	0.00124317	0.000991816
0.00062241	0.00391922	0.000778213	0.00060616	0.000707124	0.000859618	0.00107596	0.000986173
0.000598104	0.00382778	0.000803139	0.000611703	0.000744382	0.000860535	0.000953368	0.00103911
0.000600438	0.00371938	0.000892374	0.000635475	0.000922848	0.000870069	0.000919248	0.00101803
0.000601426	0.00352827	0.000889948	0.00068675	0.000981272	0.00092817	0.000898108	0.000930457
0.000593402	0.00341728	0.000899537	0.000740183	0.000983327	0.0009265	0.000844765	0.000868637
0.000593717	0.0034279	0.000873467	0.000815243	0.000989779	0.0008937	0.000839913	0.000915382
0.000577401	0.00343404	0.000880765	0.000822572	0.000958776	0.000886048	0.000800294	0.000885117
0.000570153	0.00341755	0.000926823	0.00080246	0.000905109	0.000944212	0.00078329	0.000905237
0.000547054	0.00343402	0.000877961	0.000812251	0.000906423	0.000949533	0.000711714	0.000867512
0.000532544	0.00340186	0.00090814	0.000823654	0.000889132	0.00099509	0.000722417	0.000873333
0.000531344	0.00343026	0.000916584	0.000818982	0.000853518	0.000988313	0.000698295	0.000926916
0.000500496	0.0032522	0.000935809	0.00080869	0.000857642	0.0010285	0.000698691	0.00091484
0.000500413	0.00170875	0.000913203	0.000862286	0.000845457	0.00114543	0.000717838	0.000872012
0.000494381	0.000924214	0.000879448	0.000956982	0.000836322	0.00117139	0.000733068	0.000922251
0.00050297	0.000860762	0.000847329	0.00100788	0.000852454	0.00124451	0.000715597	0.000999841
0.000506809	0.000888042	0.000721772	0.0010057	0.000693931	0.00129333	0.000741479	0.00106134
0.000555175	0.00157634	0.000529785	0.000601009	0.000262506	0.000288024	0.00370543	0.0024152
0.000823134	0.00151624	0.000530514	0.000793384	0.000281737	0.000323589	0.00402654	0.00277389
0.000908893	0.0014502	0.000558634	0.000885512	0.00032895	0.000380929	0.00399047	0.00359592
0.000942269	0.0013751	0.000567628	0.000981149	0.000376392	0.000457694	0.00408121	0.00401343
0.000960884	0.00127499	0.000592061	0.00106961	0.00040681	0.000518552	0.00421955	0.00494909
0.00101814	0.00115658	0.000638637	0.00117532	0.000429687	0.000587501	0.00413995	0.00621297
0.00113092	0.00104751	0.000628016	0.00118675	0.000452742	0.000637071	0.00404667	0.00680507
0.00152687	0.000855397	0.000646738	0.00119096	0.00046874	0.000651689	0.00401241	0.00732165
0.00200227	0.00160628	0.000613388	0.00110193	0.000507692	0.000631805	0.00407796	0.00794588
0.00220824	0.00278433	0.000605881	0.00108939	0.000515273	0.00064799	0.00396447	0.00774808
0.00223547	0.00328025	0.000574902	0.00111538	0.000493826	0.000644645	0.00413095	0.00810277
0.00198124	0.00351127	0.000587018	0.00103814	0.00050198	0.000648448	0.00397013	0.00866958
0.00204806	0.00357747	0.000580487	0.00115894	0.000503648	0.000649296	0.003988	0.00823564
0.00218701	0.00377655	0.000637904	0.00115492	0.000482852	0.000636652	0.00371878	0.00825332
0.00220931	0.0046688	0.000634586	0.00114186	0.000493486	0.000636561	0.00365766	0.00839206
0.00218251	0.00647935	0.000636778	0.00111954	0.000542585	0.000674252	0.0038249	0.00780111
0.00211869	0.00689766	0.000653599	0.00112087	0.000553932	0.000654983	0.0038321	0.00755833
0.00205215	0.0072285	0.000651722	0.00107281	0.000551984	0.000669152	0.00381234	0.00757721
0.00153313	0.00667755	0.000648327	0.00109226	0.000540407	0.00066244	0.00377938	0.00661316
0.00169674	0.00536861	0.00066796	0.00108641	0.000527848	0.000656216	0.00394322	0.00660501
0.00180593	0.00483944	0.000686327	0.00100209	0.000518853	0.000643139	0.00374543	0.00589645
0.00189169	0.00472223	0.000705678	0.000969903	0.00054246	0.000654161	0.00332534	0.00563397
0.00190102	0.00519194	0.000692215	0.000867052	0.000538836	0.000654435	0.00327867	0.00601988
0.00180092	0.0052239	0.000671104	0.000854029	0.000549305	0.000648489	0.00338452	0.00623361
0.00174174	0.00476706	0.000652639	0.000828497	0.000622983	0.000658305	0.00323358	0.00577823
0.00184256	0.00303944	0.000635491	0.000839871	0.000639118	0.000595568	0.00298391	0.00560042
0.00191883	0.00253994	0.000603705	0.000888253	0.000604953	0.000601463	0.00284519	0.00560025
0.00168424	0.00212582	0.000598274	0.000966649	0.000597812	0.000618616	0.00262967	0.00516853
0.00163873	0.00207866	0.000604154	0.00104221	0.000586479	0.000629949	0.0025263	0.00558477
0.00127491	0.00204828	0.000572955	0.0010475	0.000597886	0.000631838	0.00233073	0.00542
0.00106435	0.00205037	0.000596652	0.00105142	0.000612887	0.000648565	0.00238934	0.00542178
0.000999474	0.00198469	0.000593643	0.00115814	0.00061188	0.000650108	0.0029706	0.00502083
0.000866822	0.00132064	0.000612764	0.00115681	0.000666363	0.000661815	0.00301944	0.00426499
0.000791837	0.00126012	0.00062988	0.00115265	0.000649442	0.000713562	0.00314643	0.00578779
0.000805244	0.00117619	0.000662653	0.00116426	0.000597035	0.000695473	0.00344026	0.00584602
0.00104591	0.00183772	0.000680044	0.00116955	0.000584814	0.000704662	0.00343579	0.00578386
0.00119136	0.00358472	0.000674989	0.00115172	0.000584452	0.000684174	0.00381909	0.00589303
0.00121776	0.00378238	0.00070944	0.0011271	0.000599943	0.000658582	0.00436627	0.00592726
0.00126625	0.0037641	0.000699448	0.00106344	0.000590835	0.000671775	0.00453371	0.00581269
0.00124629	0.00372022	0.000716587	0.00110059	0.000589176	0.000641215	0.004653	0.00565264
0.0012424	0.00372462	0.000681041	0.00116821	0.000613092	0.000644743	0.00495651	0.00593889
0.0012145	0.00378825	0.000685281	0.0010928	0.000607217	0.000631559	0.00419996	0.00640072
0.0011791	0.00447404	0.000689614	0.00107922	0.000577475	0.000626982	0.00410305	0.00666425
0.00136613	0.00460628	0.000671047	0.00105665	0.00059695	0.000575086	0.00388604	0.00507697
0.00141168	0.0044744	0.000658834	0.00126908	0.00060338	0.000564133	0.00414582	0.00659672
0.00133581	0.00402408	0.000674688	0.00122423	0.000582236	0.000594789	0.00403451	0.00720058
0.001167	0.00219047	0.000668457	0.00121408	0.000581683	0.000595142	0.0039127	0.00667427
0.00153464	0.00198131	0.000701318	0.00115051	0.000556111	0.00061079	0.00336666	0.00713704
0.0017805	0.00199106	0.00068668	0.00114584	0.000557055	0.000587763	0.00324785	0.00684309
0.00181021	0.00200377	0.000701598	0.0010847	0.000530872	0.0006018	0.00323844	0.00697515
0.00181191	0.00198625	0.000708323	0.00102206	0.00051714	0.000621277	0.00304945	0.00687976
0.0018293	0.00195582	0.000717803	0.00103237	0.000517051	0.000640518	0.00322732	0.00710411
0.00185456	0.00125594	0.000694367	0.00123818	0.000499105	0.000622974	0.00333366	0.00707286
0.00169559	0.000963218	0.000694146	0.0013042	0.000492381	0.000627335	0.00348037	0.00730845
0.00161849	0.00179437	0.000712371	0.00113048	0.000492701	0.00063105	0.00293569	0.00578126
0.00150857	0.0029878	0.000709275	0.00116765	0.000485604	0.000616808	0.0028411	0.00591385
0.001375	0.00328717	0.000714807	0.00113809	0.000517056	0.000589822	0.00275146	0.00638225
0.00116245	0.00337453	0.000644681	0.0012405	0.000554201	0.000559882	0.00298162	0.00646313
0.000872396	0.0034289	0.000667174	0.00127584	0.000582082	0.00062423	0.00338733	0.00728994
0.00101372	0.00341648	0.000659445	0.0013182	0.000582848	0.000646383	0.00364103	0.00788636
0.0013467	0.00338941	0.000669053	0.00140375	0.000574048	0.000632062	0.00362336	0.00774994
0.00140107	0.00338832	0.000654624	0.00145923	0.000572526	0.000622592	0.00359963	0.00705719
0.00140785	0.0033735	0.000692619	0.00124758	0.000571727	0.000621694	0.00333648	0.00732856
0.00140367	0.00338932	0.000689682	0.00117141	0.000576005	0.000609968	0.00318336	0.00788814
0.00141484	0.00278666	0.000716442	0.0011502	0.000582263	0.000606303	0.00372739	0.00817834
0.00140906	0.00120801	0.000741626	0.00126062	0.000598979	0.000621468	0.00413545	0.00748795
0.00150119	0.000833363	0.000717957	0.00126913	0.000582848	0.000632693	0.00413827	0.00736674
0.00131651	0.000718818	0.000744723	0.0012923	0.000538525	0.000682261	0.0041741	0.0073317
0.00128631	0.00062302	0.00071581	0.00139003	0.00053195	0.000602872	0.00430658	0.00737551
0.00117191	0.000636453	0.000717447	0.00147555	0.000545785	0.00061539	0.00450292	0.00728112
0.000782625	0.000640446	0.000725864	0.00140536	0.000565406	0.000623687	0.00463464	0.00760733
0.000711614	0.00063829	0.000721756	0.00132387	0.000542917	0.000612998	0.00474028	0.00763136
0.000919065	0.000652187	0.000693889	0.00141008	0.000541497	0.000605945	0.00493969	0.00722449
0.00098229	0.000646411	0.000677362	0.00137763	0.000529381	0.000620247	0.00492224	0.0068545
0.000989369	0.00065121	0.000662239	0.0013854	0.000524229	0.00065142	0.00439017	0.00649653
0.000967712	0.000756005	0.000613992	0.00127198	0.00048927	0.000658376	0.00430993	0.00625949
0.000859931	0.00085137	0.000630999	0.00128615	0.000484803	0.000628223	0.00429242	0.00576013
0.00140457	0.00087567	0.000612845	0.00119828	0.000490754	0.000578386	0.00407192	0.00548823
0.00165974	0.000857225	0.000641736	0.00115935	0.00049984	0.00059981	0.00438482	0.00499332
0.00169921	0.000848971	0.000656007	0.00116962	0.000509003	0.000621527	0.00434089	0.00447891
0.0018126	0.000865014	0.000634103	0.00119538	0.00051917	0.000616228	0.0041285	0.00441734
0.00186861	0.000901514	0.000656527	0.00120864	0.000533336	0.000602771	0.0040267	0.0045563
0.00164284	0.000893867	0.000657724	0.00131708	0.000551007	0.000616188	0.00432502	0.00470825
0.00157535	0.000870285	0.00063652	0.00148608	0.000563537	0.000613116	0.00455402	0.00408773
0.00159893	0.00085036	0.000621972	0.00148238	0.0005609	0.00059174	0.00461344	0.00445895
0.00161209	0.000792275	0.000622829	0.00152408	0.000593161	0.000581096	0.00436679	0.00430113
0.00174037	0.000692364	0.000622397	0.00149941	0.000605662	0.000615541	0.00441113	0.00443795
0.00146612	0.000619625	0.000610686	0.00151925	0.000612743	0.00064393	0.00447046	0.00504251
0.00118451	0.000655284	0.000587893	0.00143463	0.000624444	0.000650542	0.00386348	0.00505466
0.00125322	0.000850773	0.00058845	0.00141533	0.000610756	0.000617096	0.00335023	0.00519968
0.00124024	0.00152657	0.000598513	0.00149177	0.000599282	0.000599291	0.00365553	0.00524752
0.00121649	0.00159825	0.00060591	0.0016281	0.000596078	0.000583502	0.00414116	0.00509076
0.00164288	0.00162046	0.000618784	0.00150582	0.00061678	0.000575177	0.00368919	0.00579355
0.00192544	0.00164885	0.000652193	0.00137795	0.000607976	0.000572927	0.0038186	0.0062298
0.00210531	0.00166977	0.000666184	0.00146656	0.00060167	0.00057023	0.00442907	0.00667174
0.0021529	0.00169968	0.000684762	0.00142431	0.000600572	0.000568422	0.00457707	0.00682436
0.0022201	0.00167565	0.000662159	0.00143615	0.000574472	0.000536128	0.00451863	0.00678886
0.00202659	0.00175042	0.000673199	0.00141297	0.000577763	0.00053137	0.00440302	0.00615167
0.0021625	0.00177122	0.000671174	0.00144422	0.000586609	0.000524902	0.00450779	0.00620932
0.00210407	0.001654	0.000666147	0.00139164	0.000595263	0.000543808	0.00453118	0.00636209
0.00479312	0.0137642	0.000647961	0.0021343	0.000595191	0.00247551	0.0034573	0.00481886
0.00297334	0.0153022	0.000679442	0.00147937	0.000552487	0.00227727	0.00298877	0.00530519
0.00266505	0.0169641	0.000715886	0.00136865	0.0005185	0.00266756	0.00361069	0.0052579
0.00315736	0.0150699	0.000695836	0.00129839	0.000478422	0.00293702	0.00350238	0.00503352
0.00350601	0.0143659	0.000692232	0.00131931	0.000494696	0.00312703	0.00324452	0.00527396
0.00448839	0.0133484	0.000684761	0.00131113	0.000499689	0.00390728	0.00327395	0.00428111
0.00635936	0.0115778	0.00065395	0.0015067	0.000529498	0.00432988	0.00434578	0.00492093
0.00588812	0.0106688	0.000679598	0.0015289	0.000550975	0.005057	0.00439502	0.00440246
0.00583362	0.0080861	0.000653646	0.00157464	0.000545172	0.00534078	0.0043764	0.0041068
0.00606425	0.00688097	0.000597085	0.00149559	0.000548613	0.00502166	0.00455865	0.00374012
0.00667604	0.0061932	0.000593388	0.00135626	0.000555713	0.00411694	0.00377185	0.00371072
0.00662617	0.00771882	0.000637074	0.00134038	0.000573834	0.00380171	0.00364964	0.00366491
0.00666178	0.011786	0.000654175	0.00140385	0.000551906	0.00394234	0.00367951	0.0034099
0.00566712	0.0152777	0.000696909	0.00140959	0.000539934	0.00336559	0.00346594	0.00333288
0.00316538	0.0161482	0.000702983	0.00125571	0.00048834	0.00278553	0.0024013	0.00318073
0.00312157	0.0169267	0.000672009	0.00117292	0.000481962	0.00210077	0.00224149	0.00314425
0.00361256	0.0170816	0.000659305	0.00115403	0.000539	0.00232742	0.00224713	0.00308321
0.00389017	0.0175214	0.00069117	0.00114428	0.000542592	0.00321827	0.00220121	0.00318181
0.00304766	0.0176846	0.000701896	0.00112367	0.000545166	0.00369399	0.00212189	0.00367012
0.00270637	0.0182844	0.000669021	0.00102678	0.000565267	0.0037329	0.00178082	0.00344921
0.0042529	0.0205455	0.000669684	0.000773835	0.000614155	0.00359657	0.00129833	0.00336995
0.006654	0.0189031	0.000657213	0.000667082	0.000629616	0.00359995	0.00122875	0.00296738
0.00701171	0.01985	0.000674128	0.000632669	0.000637079	0.00402277	0.0011697	0.00220908
0.00683984	0.0190453	0.00071765	0.000753897	0.00066808	0.0041081	0.00120458	0.00207817
0.00728673	0.0188728	0.000776851	0.000720018	0.000661395	0.00360721	0.00106889	0.00191018
0.00787295	0.0181542	0.000725958	0.000681268	0.000650546	0.00276871	0.000956037	0.00127174
0.00794514	0.0163726	0.000720153	0.000713789	0.000633339	0.00223645	0.000974689	0.000813344
0.00772901	0.0140118	0.000734773	0.000722331	0.000617998	0.0028378	0.000965451	0.000751127
0.00566668	0.00807147	0.000731974	0.000898625	0.000579214	0.00311972	0.000950771	0.000762089
0.00327172	0.00778017	0.000700548	0.000889187	0.000556081	0.00289806	0.000934686	0.00111278
0.00287573	0.00933335	0.000715647	0.000991757	0.000559915	0.00250287	0.000913402	0.00128871
0.00286403	0.0106895	0.000720504	0.00102852	0.000552948	0.00262779	0.000798838	0.00136016
0.00170284	0.00964062	0.000679855	0.000998347	0.000549602	0.00262899	0.000707011	0.00136368
0.00102341	0.00946561	0.000661857	0.000993539	0.000570921	0.0027733	0.000691599	0.00137625
0.00131371	0.00942785	0.000640651	0.000980278	0.00057914	0.00288398	0.000667763	0.0013843
0.00184401	0.00929606	0.000676551	0.000975554	0.000570167	0.00215787	0.000673136	0.00157667
0.00196633	0.00860785	0.000671661	0.000808538	0.000572942	0.00173117	0.000671436	0.00171097
0.00211814	0.0102694	0.000699236	0.000879177	0.000579901	0.00159921	0.00064474	0.00147268
0.00229536	0.0114128	0.000712612	0.000730523	0.000591764	0.00152932	0.000647856	0.00130972
0.00308251	0.011313	0.000701519	0.000645289	0.000610482	0.0014477	0.000647116	0.00121703
0.00316123	0.0112192	0.000704163	0.000669134	0.000572179	0.00155394	0.000637665	0.00120774
0.0030474	0.010642	0.000739134	0.000660975	0.000542179	0.00133508	0.000646986	0.00119421
0.00253387	0.0114758	0.000741442	0.000644411	0.000560046	0.00139009	0.000689426	0.00106316
0.00280252	0.0133056	0.000691831	0.000649684	0.000571882	0.00144401	0.000646882	0.00102164
0.00274742	0.0138937	0.000691263	0.000689504	0.000547078	0.00148044	0.000661468	0.000877012
0.00286418	0.0123599	0.00068034	0.000607804	0.000551321	0.0015233	0.000662236	0.000803214
0.00285848	0.0107419	0.000655648	0.000597491	0.00054488	0.00176491	0.000661014	0.00076978
0.00277282	0.0108309	0.000680251	0.0005983	0.000514493	0.00169393	0.000711325	0.000763459
0.00391168	0.0111606	0.000668489	0.000611315	0.000549117	0.0015668	0.000723864	0.000743275
0.00413529	0.0119798	0.000628615	0.000635705	0.000572434	0.0016392	0.000725482	0.000789998
0.00426592	0.0141805	0.000624904	0.000667204	0.000543066	0.00166655	0.000664875	0.00090295
0.00393351	0.016329	0.000605392	0.000643648	0.000519402	0.00156936	0.000688251	0.000835193
0.00413352	0.0162865	0.000607295	0.000632551	0.000566861	0.00144761	0.000688373	0.000855
0.00775668	0.0152864	0.000600222	0.000630338	0.000580321	0.00141881	0.000680299	0.000879047
0.00842908	0.0121907	0.000608785	0.000616273	0.000579593	0.0012787	0.000681004	0.000924941
0.00857177	0.0129954	0.000584127	0.00060718	0.000575925	0.00138548	0.000650445	0.00105375
0.00761881	0.0132587	0.000585953	0.000582842	0.000597129	0.00139545	0.000625175	0.00120263
0.00751608	0.0124611	0.000626418	0.000545574	0.000577056	0.00126004	0.000593627	0.00120318
0.00867354	0.0127088	0.000624869	0.000530769	0.000586891	0.00112331	0.000645275	0.00111379
0.0105777	0.0110449	0.000674411	0.000563004	0.000584616	0.00109639	0.000669363	0.00108278
0.0109543	0.00982946	0.000691418	0.000568095	0.000580554	0.00114329	0.000670066	0.00109666
0.00762439	0.0102643	0.000695423	0.000561484	0.000547139	0.0011148	0.000654075	0.00110429
0.00746735	0.0117699	0.00068198	0.000538795	0.000543469	0.000878858	0.000620363	0.00108427
0.00721604	0.0133524	0.000684159	0.000524935	0.00053847	0.000748329	0.000631238	0.000955609
0.00716497	0.0129076	0.000685395	0.000524088	0.000524146	0.000684134	0.000629437	0.000858372
0.00733736	0.0131868	0.000648516	0.000567339	0.000528487	0.00067978	0.000678503	0.000843841
0.00709819	0.0119843	0.000716203	0.000555999	0.000578255	0.000665872	0.000669854	0.000834159
0.00798437	0.0138818	0.000744585	0.000539841	0.000648586	0.000885362	0.000698373	0.00101143
0.00773189	0.0153176	0.000747331	0.000551913	0.000654867	0.00104391	0.00116477	0.000946692
0.00735373	0.0149595	0.000732143	0.000581203	0.000659797	0.00106419	0.00135181	0.000903187
0.00755549	0.013069	0.000758486	0.000576143	0.00072378	0.00107958	0.00151315	0.000957032
0.0070938	0.0109263	0.000836416	0.000605982	0.000792613	0.00108316	0.00196107	0.00123978
0.00697776	0.010538	0.000853668	0.000618701	0.000887043	0.0010993	0.00208377	0.00134
0.00679571	0.0101012	0.000876306	0.000624032	0.000879301	0.00116327	0.00205214	0.00159226
0.00538628	0.00708985	0.000804212	0.000673426	0.00091962	0.0011799	0.00200851	0.00161505
0.002858	0.00574577	0.000812403	0.000656947	0.0009628	0.000916219	0.00195041	0.00143411
0.00239222	0.00472772	0.000838949	0.000680825	0.00109993	0.000782634	0.00172586	0.00170863
0.00225592	0.00624149	0.000943562	0.000662854	0.0013722	0.00103267	0.00197557	0.00181423
0.0015184	0.00712526	0.0010328	0.000750345	0.00142757	0.00121682	0.00213127	0.00177314
0.00150002	0.00881995	0.0010718	0.00077539	0.00149338	0.00121956	0.00204608	0.00152037
0.00138378	0.00963318	0.00106687	0.000750615	0.00142601	0.00120254	0.00216559	0.00136814
0.00109008	0.00986626	0.00112239	0.000742433	0.00142714	0.00115737	0.00247027	0.00112008
0.00101195	0.00945693	0.00114426	0.000719898	0.00135084	0.00110255	0.00260931	0.00128937
0.000853891	0.00765088	0.00108398	0.000756011	0.00135507	0.00109792	0.00266632	0.00134338
0.000764134	0.00719966	0.00102968	0.000735141	0.00118532	0.00107179	0.00249704	0.00111714
0.000681561	0.00559246	0.00101859	0.000732287	0.00101187	0.000850343	0.00206333	0.00102818
0.000609118	0.00455727	0.000909853	0.000684251	0.000871175	0.00072811	0.00178824	0.0010256
0.000546665	0.00261096	0.000828133	0.000701688	0.000811756	0.000705928	0.00145306	0.00103116
0.000530348	0.00200688	0.000857508	0.000829303	0.00105027	0.000738907	0.0012718	0.00107259
0.000537764	0.0036937	0.000808786	0.00085441	0.00106832	0.000682245	0.000980423	0.00106863
0.000531461	0.00403859	0.000799519	0.000826159	0.00103455	0.000746722	0.000840529	0.000941414
0.000532039	0.00406578	0.000790528	0.000825531	0.000925858	0.000830906	0.000764737	0.000866581
0.000510757	0.00439859	0.000764844	0.000814775	0.000921503	0.000833434	0.000733475	0.000833148
0.000501295	0.00466266	0.000718398	0.000810544	0.000877421	0.000871644	0.000724065	0.00081602
0.000513632	0.00476126	0.000669888	0.000850903	0.000846716	0.000905337	0.00073892	0.000807522
0.000546789	0.00470646	0.000625445	0.000851959	0.000788253	0.000979306	0.000777674	0.000799657
0.000548383	0.0043184	0.00060139	0.000744511	0.000536038	0.000960319	0.000814844	0.000704264
0.000556454	0.00258761	0.000601552	0.000755141	0.000512848	0.000995204	0.000848657	0.000686193
0.000555703	0.00228775	0.000605108	0.000809476	0.000493682	0.00101705	0.00086502	0.000634251
0.00053781	0.00211541	0.00062139	0.000804157	0.00057569	0.000965962	0.00112481	0.000722088
0.000555175	0.00157634	0.000529785	0.000601009	0.000262506	0.000288024	0.00370543	0.0024152
0.000842296	0.00147989	0.000534935	0.000821521	0.000299258	0.000346718	0.00399746	0.00297901
0.000924001	0.00140141	0.000556013	0.000900221	0.000354274	0.000419198	0.00396896	0.00367649
0.000968603	0.00129859	0.000581711	0.00105755	0.000402243	0.000506316	0.00415441	0.00476238
0.00102249	0.00114508	0.000640613	0.00118267	0.000431416	0.000602988	0.00415442	0.00631123
0.00123159	0.000934638	0.000632631	0.00122156	0.000461457	0.000638352	0.00395866	0.00716669
0.0018045	0.00119871	0.000625751	0.00114717	0.000473208	0.000638643	0.00395031	0.0078661
0.00221208	0.00276634	0.000602156	0.00109735	0.00051392	0.000648026	0.00401038	0.00784879
0.00223781	0.00331441	0.000572823	0.00110938	0.000500231	0.000637319	0.00410591	0.00812654
0.00199189	0.00358033	0.000567616	0.00108027	0.000495386	0.00064827	0.00402917	0.00852773
0.00215062	0.00364929	0.000615327	0.00118932	0.000485743	0.000634062	0.00386159	0.00821042
0.0022084	0.00458716	0.000634749	0.0011335	0.000491557	0.000634067	0.00365827	0.00837608
0.00214637	0.00667439	0.000632692	0.00110324	0.000554826	0.000661404	0.00376982	0.00757474
0.00218023	0.00713046	0.000647141	0.00108616	0.000544076	0.000676709	0.00386262	0.00763324
0.00164921	0.00681883	0.000645489	0.00108358	0.000552902	0.000665465	0.00380703	0.0067284
0.00170728	0.0053571	0.000666273	0.001087	0.000526823	0.000653278	0.00396023	0.00660729
0.00180749	0.00476791	0.000691808	0.000986212	0.000517738	0.000651027	0.00348161	0.00579397
0.00188974	0.00506582	0.000720812	0.000920935	0.000534564	0.000644342	0.0032376	0.00569543
0.00181725	0.00527846	0.00068615	0.000839455	0.000554064	0.00065711	0.00336872	0.00624556
0.00173992	0.00448471	0.000644359	0.000818816	0.000628285	0.000651752	0.00315382	0.00580385
0.00187149	0.00271577	0.000619113	0.00084184	0.000615259	0.000598915	0.00294058	0.0058327
0.00169662	0.00224712	0.000598919	0.000943567	0.000607029	0.000605796	0.00272364	0.00495836
0.00163828	0.00207541	0.000600979	0.00102888	0.000592075	0.000627241	0.00251857	0.00558606
0.0011997	0.0020614	0.000593961	0.00104507	0.000599514	0.000645317	0.00229436	0.00544914
0.001059	0.00203595	0.000596934	0.00106257	0.000614317	0.000658676	0.00278976	0.00539479
0.000944081	0.00142863	0.000609019	0.00116864	0.00066488	0.000669815	0.00296906	0.00455821
0.000792216	0.0012614	0.000630293	0.00115082	0.000649515	0.000713515	0.00315135	0.00577582
0.000850305	0.00115802	0.00066988	0.00117036	0.000577072	0.000690842	0.00343695	0.00588233
0.00122211	0.0029945	0.000681459	0.0011984	0.000580755	0.000687965	0.00357956	0.00569408
0.00121564	0.00376096	0.000717178	0.00110983	0.000596285	0.000659518	0.00429357	0.00602018
0.00126765	0.00375453	0.000694013	0.00104858	0.000588998	0.000665298	0.00452756	0.00581971
0.00124058	0.00371457	0.00070405	0.00116821	0.000596887	0.000640752	0.00477905	0.00560496
0.00122315	0.00374198	0.000686598	0.00117765	0.000611963	0.000622368	0.0043641	0.00626101
0.0011826	0.00446959	0.000683281	0.00107238	0.000575862	0.00062759	0.00412091	0.00663544
0.00137386	0.0045473	0.000673023	0.00108312	0.000593963	0.000582349	0.00394667	0.00520012
0.00139339	0.00448534	0.000653442	0.00125085	0.000597732	0.000559329	0.00408811	0.00668252
0.00103355	0.00257987	0.000669965	0.0012001	0.000575068	0.000602	0.0040139	0.00688558
0.00152559	0.0019842	0.000699961	0.00115508	0.000556748	0.000611243	0.00338163	0.00714157
0.00179049	0.00200378	0.000694801	0.00114655	0.000546285	0.000593819	0.003228	0.0067894
0.00181608	0.00199803	0.000695939	0.000993399	0.000513491	0.000611274	0.0030897	0.00700417
0.00182485	0.00196241	0.000723303	0.0010117	0.000526902	0.000627311	0.0031735	0.00716026
0.00185565	0.00125712	0.000692074	0.00124924	0.000497418	0.000622609	0.0033249	0.00708554
0.00164294	0.000988617	0.000711746	0.00130052	0.000499344	0.000624051	0.00329703	0.00707016
0.00157417	0.00289497	0.000713451	0.0011693	0.000481906	0.000626508	0.00288555	0.00587998
0.0014584	0.00327589	0.000712616	0.0011383	0.000493258	0.000587426	0.00274755	0.00622709
0.00110716	0.00338226	0.000639785	0.00125269	0.000564766	0.000559929	0.00300181	0.00658171
0.000857629	0.00343226	0.00067276	0.00129143	0.000586159	0.000640159	0.00369337	0.00788784
0.00133408	0.00339569	0.000684766	0.00139964	0.000581879	0.000635694	0.00358765	0.0078102
0.00139882	0.00338904	0.000655497	0.00146356	0.000573836	0.000624855	0.00362173	0.00705459
0.00141063	0.0033769	0.000703274	0.00118837	0.000581494	0.000619797	0.00331047	0.00752921
0.0014143	0.00332777	0.000675948	0.00113004	0.000585286	0.000589761	0.0034852	0.00814426
0.00140508	0.00128042	0.000753257	0.00118834	0.000583538	0.000611985	0.00405205	0.00770316
0.00150442	0.000833423	0.000717057	0.0012684	0.00057724	0.000633568	0.004149	0.00734115
0.00130162	0.00069454	0.000736416	0.00130119	0.000531074	0.000669399	0.00420112	0.00733661
0.00128764	0.000610361	0.000711242	0.00144867	0.000539871	0.000584996	0.00432323	0.007204
0.000796166	0.000641464	0.000722441	0.0014143	0.000560633	0.00061167	0.00469538	0.00757246
0.000718781	0.000642985	0.000721389	0.00132395	0.000542053	0.000617402	0.00483	0.00763319
0.000944165	0.000641251	0.000700943	0.00140889	0.000524732	0.000616881	0.00497545	0.00714389
0.000997274	0.000650463	0.000694129	0.00138655	0.000525319	0.000648738	0.00456518	0.00651427
0.000964224	0.000731898	0.000608544	0.00130058	0.000499408	0.000658046	0.00428539	0.00626942
0.000844586	0.000841641	0.000625735	0.00128065	0.000498611	0.000622147	0.00421801	0.00579174
0.00149932	0.000870112	0.000644574	0.00116819	0.000477947	0.000581832	0.00418634	0.00531233
0.00168212	0.000863357	0.000652275	0.00120516	0.000496441	0.000618777	0.00441837	0.0045355
0.00181186	0.000864045	0.000634356	0.00119582	0.000519653	0.000616815	0.0041282	0.00441444
0.00184334	0.000881318	0.000647314	0.00125249	0.000535595	0.000589426	0.00389617	0.00461637
0.00158987	0.000871099	0.00062808	0.00140314	0.000566549	0.000623889	0.00453707	0.00419714
0.00159402	0.000857011	0.000614287	0.001483	0.000567792	0.000594997	0.00464285	0.00453501
0.00160544	0.000777228	0.000619077	0.00152531	0.000595987	0.000584963	0.00437532	0.00428546
0.00188998	0.000674692	0.000627982	0.00149119	0.000601976	0.00062502	0.00455483	0.00446032
0.00132382	0.000642863	0.000598181	0.0014777	0.000622698	0.000661577	0.0041775	0.00477485
0.00123841	0.000770974	0.000587593	0.00141714	0.000613299	0.000623058	0.00330753	0.00513433
0.00122845	0.00155153	0.000603603	0.00150985	0.000599144	0.000587334	0.00374941	0.00516916
0.00134229	0.00162968	0.000615601	0.00158575	0.000623947	0.00059233	0.00403831	0.00528572
0.00192697	0.00164213	0.000645407	0.00141988	0.000608534	0.000563476	0.00370032	0.00613563
0.00210604	0.00166981	0.000669921	0.00145802	0.00060229	0.000569176	0.00441108	0.00666138
0.0021602	0.00170758	0.000693821	0.00141004	0.000594506	0.000560389	0.00458392	0.00683874
0.0020416	0.00173118	0.000656153	0.00143532	0.000573301	0.000536214	0.00433409	0.00670636
0.00209252	0.00176589	0.000650365	0.00143811	0.000589572	0.000519842	0.00455593	0.00646483
0.00209366	0.00163277	0.000663229	0.00139191	0.000597622	0.000544068	0.00453748	0.00639715
0.00199031	0.000871353	0.000639648	0.00121512	0.000587563	0.000541665	0.0040043	0.00688799
0.00181631	0.000795517	0.000670697	0.00123848	0.000553329	0.000554107	0.0040621	0.00685786
0.00125574	0.000913535	0.000669521	0.00130471	0.000582366	0.000599776	0.00457678	0.00609717
0.00106692	0.00155691	0.000675822	0.00118619	0.000568174	0.000586759	0.00408458	0.00600136
0.00108122	0.00160383	0.00067494	0.00129574	0.000574372	0.000575627	0.00405289	0.00706617
0.0012749	0.00155842	0.000701078	0.00127922	0.000598421	0.00058405	0.00405333	0.00732987
0.00150576	0.00149954	0.000716369	0.00130024	0.000574515	0.000561457	0.00477269	0.00734602
0.00155808	0.00146851	0.000684905	0.00141516	0.000585258	0.000540512	0.00525316	0.0068621
0.00156082	0.0014934	0.000698446	0.00154204	0.000595196	0.000545927	0.00554169	0.0061145
0.00174395	0.00150239	0.000667108	0.00141194	0.00060353	0.000591886	0.00523114	0.00575096
0.00198088	0.0013389	0.000639097	0.0012754	0.000582364	0.00054033	0.00459104	0.00574931
0.00195032	0.00072439	0.000643062	0.00152556	0.000608135	0.00058368	0.00486319	0.00518205
0.00182661	0.000639108	0.000655496	0.0014844	0.000610191	0.000579056	0.00474283	0.00433277
0.00145553	0.000685619	0.000648498	0.00150662	0.00059014	0.000573247	0.00502882	0.00498663
0.00111833	0.000741379	0.000699451	0.00157357	0.000630851	0.000578773	0.00439311	0.00479223
0.00104107	0.000796725	0.000719375	0.00142635	0.000623707	0.000571806	0.00381044	0.00456822
0.00100809	0.0007587	0.000713143	0.00130321	0.000579941	0.00060373	0.00365511	0.00526204
0.000803798	0.000836851	0.00071035	0.00130758	0.00057276	0.000565765	0.00345386	0.00595815
0.00058143	0.0010741	0.000736825	0.0013243	0.000561011	0.000604132	0.00354003	0.00627116
0.000573021	0.00111697	0.000714333	0.00107975	0.000545979	0.000611993	0.00322291	0.00595961
0.000628069	0.00111186	0.00070112	0.00105594	0.000532549	0.000620517	0.00346162	0.00543309
0.00712777	0.0107306	0.000629063	0.00191599	0.000606362	0.0022715	0.00321904	0.00466658
0.00624438	0.0105023	0.000623707	0.0017808	0.000620716	0.00226357	0.00310456	0.0045085
0.0038304	0.00909284	0.000623853	0.0016699	0.00061376	0.00251072	0.00272261	0.0040302
0.00326788	0.00907215	0.000625215	0.00154528	0.000599353	0.00286432	0.00240638	0.00408083
0.0034221	0.0104516	0.000648496	0.00129623	0.000610758	0.00252767	0.00238671	0.00409341
0.00346776	0.0118661	0.000640422	0.00126505	0.000603316	0.00252114	0.00237232	0.00413601
0.00357396	0.0118131	0.000623741	0.0012104	0.000601808	0.00274109	0.00279589	0.00396496
0.00388038	0.008436	0.000595253	0.00106123	0.00059205	0.00245911	0.00310414	0.00379925
0.00358241	0.00799107	0.000617745	0.00113082	0.00057827	0.00282215	0.00342307	0.00385593
0.00215547	0.00810038	0.000650542	0.00134528	0.000545593	0.00314203	0.00388033	0.00367192
0.00232635	0.00818037	0.000647665	0.00154148	0.000546411	0.00328485	0.00418519	0.00355946
0.00231416	0.00833027	0.000657247	0.00143306	0.000530022	0.00334171	0.00408806	0.00399288
0.00209065	0.00826293	0.000637108	0.00141167	0.000524678	0.00308219	0.00401632	0.0041644
0.00201601	0.00817845	0.000633479	0.00142607	0.000503613	0.00278451	0.00402707	0.00415213
0.00210428	0.00846952	0.000617813	0.00140608	0.000496244	0.00330413	0.00398797	0.00434736
0.00261661	0.00792042	0.00060742	0.00134126	0.000514402	0.00375181	0.00369932	0.0046275
0.00293198	0.00797898	0.000626739	0.00126892	0.000548497	0.00367272	0.002943	0.00397339
0.00276552	0.00934581	0.000617918	0.00126372	0.000549815	0.00373372	0.00236897	0.00345516
0.00232718	0.00968149	0.000588432	0.00115678	0.000584658	0.00353372	0.00194812	0.00309155
0.00217503	0.00961033	0.000593893	0.000928403	0.000594933	0.00335986	0.00109971	0.00339678
0.00199542	0.009936	0.000598216	0.000667568	0.00061463	0.00323399	0.000947493	0.00339542
0.00219171	0.00994074	0.000572575	0.000620198	0.000601391	0.00307956	0.0010214	0.00291491
0.00278264	0.0112384	0.000615694	0.000657798	0.000618046	0.00302903	0.00121295	0.00288683
0.00300194	0.0107847	0.000660359	0.000720095	0.000623494	0.00329052	0.00139262	0.00290773
0.00291412	0.010087	0.000653558	0.000720319	0.000618283	0.00287501	0.00146404	0.00275406
0.00251356	0.0110492	0.000672754	0.000716089	0.00061221	0.00223295	0.00143714	0.00244013
0.003173	0.0106899	0.00065705	0.000768174	0.000608239	0.00196582	0.00137368	0.00211108
0.00369206	0.00979873	0.000659846	0.000861232	0.000624559	0.00195333	0.00135061	0.00204114
0.00434665	0.009453	0.000708149	0.000935983	0.000608118	0.00181968	0.00138717	0.00199264
0.00719434	0.00978928	0.000752396	0.000935292	0.000597455	0.00181544	0.00133778	0.00139375
0.00820414	0.0114507	0.000749982	0.000882879	0.000598366	0.00196842	0.00123173	0.00118554
0.00802561	0.0122353	0.000771237	0.000906963	0.000610774	0.00194646	0.00113671	0.00103568
0.00750804	0.0134512	0.000728017	0.000849598	0.000588926	0.00159433	0.000918043	0.0010039
0.0073246	0.0150427	0.000717204	0.000811717	0.000597343	0.00138458	0.000691791	0.00100746
0.00712844	0.0149501	0.000701083	0.000813089	0.000567306	0.00170745	0.000610106	0.000928413
0.00692555	0.0132306	0.000666393	0.000798807	0.000571192	0.00180802	0.00061019	0.000810706
0.00595002	0.0148833	0.000649563	0.000699777	0.000549954	0.00176667	0.000606917	0.000825033
0.00551542	0.01512	0.000640921	0.000619806	0.000515043	0.00161251	0.000605533	0.00087337
0.00555799	0.0150598	0.000613105	0.000556974	0.000532035	0.00163758	0.00060381	0.000920122
0.00329558	0.0144146	0.000561693	0.000534124	0.00052295	0.00171582	0.000616269	0.00116619
0.0024506	0.0127057	0.000577068	0.000558408	0.000539909	0.00166704	0.000609862	0.00121909
0.00251634	0.0116249	0.000555642	0.000538881	0.000533828	0.0016437	0.000621258	0.00120942
0.00255261	0.0102032	0.000590917	0.000548567	0.000542079	0.00167636	0.000608988	0.00109551
0.00253496	0.0104943	0.000589327	0.00054462	0.000542301	0.00161112	0.000602074	0.00103889
0.00270245	0.0142251	0.000619136	0.000573431	0.000565096	0.0012449	0.000637312	0.00104342
0.00300271	0.0134806	0.000644095	0.000580458	0.000561493	0.00122253	0.000630393	0.0010599
0.00277969	0.0119521	0.000649702	0.000616492	0.000575697	0.00124072	0.000627057	0.0010519
0.00267708	0.0120571	0.00065361	0.000609294	0.00058891	0.00121449	0.000613423	0.00100609
0.00177141	0.0128527	0.000643283	0.000619951	0.000577647	0.0011377	0.000571083	0.000990997
0.00160775	0.0143104	0.000665527	0.000658141	0.000570668	0.00119588	0.000553082	0.000984874
0.00290487	0.0143235	0.000637571	0.000617217	0.000561396	0.00117154	0.000557504	0.00121474
0.00331106	0.0149045	0.000602884	0.000647561	0.000600368	0.00115757	0.000579188	0.00135936
0.0032841	0.0143304	0.00063145	0.000616949	0.000589109	0.00110438	0.000589753	0.00140966
0.00339161	0.0129701	0.00063825	0.000609302	0.000594655	0.00104586	0.000576778	0.0014543
0.00352255	0.0122581	0.000656882	0.000583952	0.000581192	0.00105673	0.000554578	0.00148809
0.00336894	0.0129936	0.00064443	0.000566894	0.000599923	0.000958459	0.00054468	0.00182862
0.00335583	0.0120564	0.000652088	0.000578062	0.000625133	0.000925268	0.000537469	0.00224893
0.00363289	0.0114151	0.000637505	0.000566629	0.000606968	0.000897827	0.000564615	0.00228622
0.00405041	0.0109364	0.000649277	0.00055524	0.000613205	0.000860822	0.000549886	0.00226992
0.00378359	0.010378	0.000659964	0.000496249	0.00059266	0.00095999	0.000570702	0.00198214
0.00240779	0.0103939	0.000752656	0.000579054	0.00061485	0.00110703	0.00073612	0.00199112
0.00199677	0.0104742	0.0007748	0.000532892	0.000618779	0.00116268	0.000879974	0.00203462
0.00216864	0.0107857	0.000750817	0.000538601	0.00062533	0.00123193	0.00105303	0.00199544
0.00221285	0.00998848	0.000763928	0.00057889	0.000689924	0.00122763	0.00113117	0.00196908
0.00198047	0.0115439	0.000766286	0.000614441	0.000905147	0.00123636	0.00123115	0.00192186
0.001904	0.0120011	0.000743941	0.000617952	0.000916918	0.00125633	0.00124797	0.00146204
0.00187987	0.0134637	0.000828277	0.000653006	0.000933089	0.00131086	0.00124887	0.00117393
0.00143135	0.0138285	0.00093169	0.000646028	0.00108586	0.0013628	0.00123938	0.00113737
0.0011211	0.0128235	0.000943874	0.000638736	0.00111975	0.0012973	0.0013176	0.00118344
0.00106646	0.012666	0.000916657	0.000646228	0.0011954	0.00103711	0.00132503	0.00118634
0.00107123	0.0129655	0.000839722	0.000617525	0.00115551	0.000924093	0.0011176	0.00092905
0.0016546	0.0122663	0.000835457	0.000626615	0.00114534	0.000904149	0.000972721	0.000899525
0.00160314	0.0113456	0.000870798	0.000636861	0.00116212	0.000875063	0.00084424	0.00100726
0.00139709	0.0105576	0.000898646	0.000594894	0.00116519	0.00095094	0.000801154	0.00107457
0.00133101	0.00663134	0.000944327	0.000591783	0.00109669	0.00105087	0.000755001	0.0012888
0.00134155	0.0057906	0.000969128	0.000577977	0.00107888	0.00101669	0.000773065	0.00130544
0.00133117	0.00544672	0.000955963	0.000526797	0.00110006	0.00101596	0.000781877	0.00143705
0.00132209	0.00513921	0.000941994	0.00052016	0.000997028	0.00101246	0.000762947	0.00146031
0.00130017	0.00502461	0.000949211	0.000521921	0.000986885	0.00107068	0.000695635	0.00142479
0.00132494	0.00507393	0.000981442	0.000526337	0.000949977	0.00107107	0.00068627	0.00140976
0.00133533	0.00423438	0.0010012	0.000533543	0.00102632	0.00107795	0.000683293	0.00141591
0.000658463	0.00371236	0.0010187	0.000550256	0.001057	0.00117292	0.000689974	0.00130303
0.000524271	0.0037338	0.000971987	0.000544898	0.00103007	0.00116492	0.000662354	0.00117699
0.000516956	0.00377749	0.000935136	0.000563471	0.000895307	0.00107564	0.000686498	0.00104242
0.00052415	0.00371311	0.000867807	0.000582909	0.000812228	0.00105446	0.000711912	0.000885532
0.000536365	0.00219793	0.000878509	0.000614017	0.000851332	0.0010888	0.000692661	0.000928488
0.000555768	0.00148824	0.000742671	0.000632078	0.000781898	0.00108115	0.00071833	0.000800923
0.000569489	0.00169554	0.000745477	0.000657409	0.000842575	0.00104718	0.000712034	0.000799136
0.000569487	0.00213351	0.000754619	0.000710498	0.000850701	0.00105102	0.000688949	0.000799266
0.000585739	0.0024216	0.000733463	0.000740458	0.000830872	0.00117213	0.000684345	0.000896077
0.000584169	0.00254166	0.000697208	0.000737373	0.000778612	0.00115026	0.000705212	0.000920425
0.000568695	0.00251627	0.000654093	0.000742052	0.000778733	0.00108926	0.000695614	0.000998581
0.000569533	0.00244031	0.000645821	0.000740753	0.000812771	0.00120209	0.000705632	0.00103839
0.000568732	0.00229124	0.000679602	0.000722521	0.000855566	0.00118849	0.000654622	0.00103938
0.000560744	0.00219778	0.000662495	0.000702475	0.000907216	0.00127798	0.000586235	0.00103258
0.000542817	0.00220582	0.000663075	0.000688994	0.000855337	0.00134978	0.000625936	0.00105872
0.000532119	0.00227994	0.000669018	0.000728396	0.000886779	0.00133578	0.000593605	0.00109261
0.000532171	0.00186656	0.000647367	0.00074405	0.0009324	0.00126777	0.000634485	0.00108446
0.000530093	0.00147846	0.000650074	0.000716348	0.000952828	0.00117697	0.000637508	0.0010419
0.000527218	0.001088	0.000659624	0.00073841	0.00092277	0.00112991	0.000614727	0.000947879
0.000555175	0.00157634	0.000529785	0.000601009	0.000262506	0.000288024	0.00370543	0.0024152
0.000869864	0.00147329	0.000540315	0.000847692	0.000308536	0.000356415	0.00392256	0.00338988
0.000939103	0.0013786	0.00056749	0.000974497	0.00037403	0.000454155	0.0040647	0.00400484
0.000965586	0.0012203	0.000618012	0.00113603	0.00041722	0.00055689	0.00422672	0.00567505
0.00112313	0.00107193	0.000623986	0.00119153	0.000453531	0.000641926	0.00408847	0.00672823
0.00174705	0.000902058	0.000631215	0.00115791	0.000475445	0.000642789	0.00391698	0.00759137
0.00221322	0.00276657	0.000601918	0.00109634	0.000514661	0.000648059	0.00400697	0.00783992
0.00220306	0.00341989	0.000577963	0.00108628	0.000499531	0.000635985	0.00394406	0.00836769
0.00205511	0.00356234	0.000582657	0.00113068	0.00049826	0.000653012	0.00402681	0.00820722
0.00218771	0.00407791	0.000639603	0.00113573	0.000476295	0.000634702	0.00355751	0.00850378
0.00221484	0.00626344	0.000627505	0.0011287	0.000526688	0.000676663	0.00379971	0.00793719
