"Time","17 Hipy (cm)","25 toey (cm)"
0.000,10.085319,8.155668
0.001,10.090527,8.156924
0.002,10.096283,8.159810
0.003,10.102039,8.162697
0.004,10.107796,8.165584
0.005,10.113573,8.168180
0.006,10.119396,8.170163
0.007,10.125218,8.172146
0.008,10.131042,8.174128
0.009,10.137031,8.176330
0.010,10.143372,8.178996
0.011,10.149713,8.181664
0.012,10.156054,8.184330
0.013,10.161540,8.186975
0.014,10.165211,8.189576
0.015,10.168880,8.192176
0.016,10.172550,8.194777
0.017,10.177193,8.196710
0.018,10.183902,8.197225
0.019,10.190610,8.197741
0.020,10.197319,8.198256
0.021,10.202800,8.199121
0.022,10.205673,8.200731
0.023,10.208547,8.202342
0.024,10.211420,8.203952
0.025,10.214471,8.203477
0.026,10.217900,8.198572
0.027,10.221329,8.193667
0.028,10.224757,8.188763
0.029,10.226708,8.184922
0.030,10.225521,8.183344
0.031,10.224333,8.181766
0.032,10.223145,8.180187
0.033,10.222180,8.180189
0.034,10.221687,8.183547
0.035,10.221194,8.186906
0.036,10.220701,8.190264
0.037,10.219745,8.192341
0.038,10.217801,8.191693
0.039,10.215857,8.191047
0.040,10.213913,8.190399
0.041,10.212241,8.189916
0.042,10.211147,8.189778
0.043,10.210052,8.189640
0.044,10.208959,8.189503
0.045,10.208724,8.188766
0.046,10.210314,8.186752
0.047,10.211905,8.184740
0.048,10.213495,8.182727
0.049,10.214788,8.180950
0.050,10.215452,8.179675
0.051,10.216115,8.178400
0.052,10.216778,8.177125
0.053,10.216770,8.175118
0.054,10.215335,8.171556
0.055,10.213901,8.167994
0.056,10.212466,8.164431
0.057,10.211061,8.160570
0.058,10.209719,8.156076
0.059,10.208377,8.151583
0.060,10.207034,8.147088
0.061,10.204162,8.142372
0.062,10.198035,8.137182
0.063,10.191910,8.131992
0.064,10.185784,8.126802
0.065,10.179989,8.124508
0.066,10.174894,8.128366
0.067,10.169800,8.132225
0.068,10.164705,8.136085
0.069,10.160752,8.138968
0.070,10.159225,8.139782
0.071,10.157699,8.140594
0.072,10.156172,8.141408
0.073,10.152971,8.141111
0.074,10.146216,8.138454
0.075,10.139462,8.135798
0.076,10.132707,8.133142
0.077,10.126209,8.129743
0.078,10.120258,8.124767
0.079,10.114306,8.119791
0.080,10.108356,8.114815
0.081,10.101404,8.111551
0.082,10.092331,8.111928
0.083,10.083257,8.112305
0.084,10.074183,8.112681
0.085,10.064363,8.113407
0.086,10.052954,8.114875
0.087,10.041544,8.116343
0.088,10.030135,8.117810
0.089,10.020786,8.118587
0.090,10.015817,8.117890
0.091,10.010847,8.117195
0.092,10.005877,8.116499
0.093,9.999907,8.114083
0.094,9.991809,8.108011
0.095,9.983711,8.101940
0.096,9.975614,8.095868
0.097,9.968451,8.090102
0.098,9.963277,8.084987
0.099,9.958102,8.079871
0.100,9.952928,8.074756
0.101,9.948866,8.070135
0.102,9.947171,8.066567
0.103,9.945477,8.062999
0.104,9.943782,8.059431
0.105,9.941804,8.054804
0.106,9.939227,8.047926
0.107,9.936650,8.041048
0.108,9.934073,8.034169
0.109,9.930832,8.027316
0.110,9.926176,8.020514
0.111,9.921520,8.013711
0.112,9.916865,8.006908
0.113,9.912647,8.001313
0.114,9.909361,7.998284
0.115,9.906075,7.995254
0.116,9.902787,7.992224
0.117,9.899183,7.989341
0.118,9.894903,7.986770
0.119,9.890624,7.984199
0.120,9.886345,7.981628
0.121,9.882467,7.980266
0.122,9.879445,7.981474
0.123,9.876423,7.982683
0.124,9.873402,7.983891
0.125,9.870007,7.983994
0.126,9.865820,7.981750
0.127,9.861633,7.979506
0.128,9.857446,7.977262
0.129,9.852903,7.973164
0.130,9.847607,7.965126
0.131,9.842309,7.957088
0.132,9.837011,7.949050
0.133,9.830973,7.943130
0.134,9.823359,7.941711
0.135,9.815744,7.940293
0.136,9.808130,7.938874
0.137,9.801095,7.937017
0.138,9.795291,7.934230
0.139,9.789487,7.931443
0.140,9.783683,7.928656
0.141,9.778182,7.926383
0.142,9.773323,7.925199
0.143,9.768464,7.924015
0.144,9.763605,7.922831
0.145,9.759083,7.920714
0.146,9.755277,7.916614
0.147,9.751471,7.912514
0.148,9.747664,7.908414
0.149,9.743348,7.903716
0.150,9.737948,7.897744
0.151,9.732549,7.891772
0.152,9.727149,7.885800
0.153,9.723082,7.884147
0.154,9.721844,7.891673
0.155,9.720606,7.899199
0.156,9.719368,7.906724
0.157,9.718226,7.912587
0.158,9.717287,7.914916
0.159,9.716348,7.917244
0.160,9.715409,7.919572
0.161,9.714632,7.925696
0.162,9.714199,7.939888
0.163,9.713766,7.954079
0.164,9.713333,7.968270
0.165,9.713130,7.978765
0.166,9.713414,7.981404
0.167,9.713699,7.984044
0.168,9.713984,7.986684
0.169,9.712963,7.988028
0.170,9.709167,7.986616
0.171,9.705373,7.985204
0.172,9.701577,7.983792
0.173,9.698059,7.982440
0.174,9.695129,7.981215
0.175,9.692201,7.979990
0.176,9.689271,7.978766
0.177,9.685702,7.976615
0.178,9.680777,7.972496
0.179,9.675851,7.968377
0.180,9.670924,7.964257
0.181,9.666104,7.961402
0.182,9.661510,7.961231
0.183,9.656915,7.961061
0.184,9.652319,7.960890
0.185,9.648085,7.958719
0.186,9.644616,7.952298
0.187,9.641149,7.945877
0.188,9.637680,7.939455
0.189,9.634700,7.935403
0.190,9.632758,7.936388
0.191,9.630816,7.937371
0.192,9.628874,7.938355
0.193,9.627725,7.937434
0.194,9.628263,7.932466
0.195,9.628800,7.927496
0.196,9.629338,7.922528
0.197,9.629215,7.920007
0.198,9.627691,7.922688
0.199,9.626166,7.925368
0.200,9.624642,7.928049
0.201,9.623070,7.932695
0.202,9.621395,7.941519
0.203,9.619720,7.950343
0.204,9.618045,7.959167
0.205,9.616251,7.966149
0.206,9.614203,7.969221
0.207,9.612156,7.972292
0.208,9.610108,7.975363
0.209,9.607914,7.976337
0.210,9.605406,7.972857
0.211,9.602899,7.969377
0.212,9.600390,7.965897
0.213,9.597345,7.964314
0.214,9.593160,7.966763
0.215,9.588973,7.969213
0.216,9.584786,7.971662
0.217,9.580160,7.974574
0.218,9.574597,7.978468
0.219,9.569036,7.982363
0.220,9.563473,7.986257
0.221,9.557316,7.988881
0.222,9.549893,7.988803
0.223,9.542472,7.988727
0.224,9.535049,7.988649
0.225,9.527806,8.011256
0.226,9.520941,8.082065
0.227,9.514076,8.152874
0.228,9.507212,8.223682
0.229,9.500800,8.258316
0.230,9.495353,8.216078
0.231,9.489905,8.173840
0.232,9.484457,8.131600
0.233,9.477998,8.103218
0.234,9.469388,8.104280
0.235,9.460777,8.105341
0.236,9.452168,8.106402
0.237,9.442896,8.218903
0.238,9.432217,8.568210
0.239,9.421538,8.917517
0.240,9.410859,9.266824
0.241,9.400611,9.509634
0.242,9.391275,9.526137
0.243,9.381940,9.542641
0.244,9.372604,9.559144
0.245,9.364717,9.453668
0.246,9.359902,9.088982
0.247,9.355088,8.724297
0.248,9.350274,8.359611
0.249,9.344582,8.111180
0.250,9.337019,8.109792
0.251,9.329457,8.108403
0.252,9.321895,8.107015
0.253,9.315752,8.198776
0.254,9.312624,8.488480
0.255,9.309497,8.778184
0.256,9.306370,9.067888
0.257,9.304170,9.263596
0.258,9.303940,9.259561
0.259,9.303710,9.255526
0.260,9.303481,9.251491
0.261,9.304914,9.326860
0.262,9.309882,9.570965
0.263,9.314849,9.815069
0.264,9.319817,10.059175
0.265,9.328338,10.227051
0.266,9.344412,10.232942
0.267,9.360485,10.238833
0.268,9.376559,10.244724
0.269,9.394994,10.074084
0.270,9.418447,9.528315
0.271,9.441898,8.982545
0.272,9.465351,8.436775
0.273,9.485415,8.065768
0.274,9.498278,8.066132
0.275,9.511141,8.066495
0.276,9.524003,8.066858
0.277,9.536776,8.069125
0.278,9.549355,8.075438
0.279,9.561934,8.081752
0.280,9.574512,8.088065
0.281,9.586513,8.096286
0.282,9.597282,8.108561
0.283,9.608052,8.120834
0.284,9.618822,8.133108
0.285,9.631372,8.132435
0.286,9.647705,8.104246
0.287,9.664039,8.076058
0.288,9.680372,8.047870
0.289,9.696385,8.041901
0.290,9.711718,8.083149
0.291,9.727051,8.124396
0.292,9.742383,8.165645
0.293,9.756879,8.188148
0.294,9.769595,8.170822
0.295,9.782311,8.153495
0.296,9.795028,8.136168
0.297,9.804722,8.129826
0.298,9.807993,8.146823
0.299,9.811264,8.163821
0.300,9.814535,8.180819
0.301,9.818460,8.199612
0.302,9.823773,8.222221
0.303,9.829087,8.244830
0.304,9.834400,8.267440
0.305,9.837863,8.270870
0.306,9.837392,8.233544
0.307,9.836920,8.196218
0.308,9.836449,8.158893
0.309,9.837106,8.129535
0.310,9.840159,8.117110
0.311,9.843214,8.104685
0.312,9.846268,8.092260
0.313,9.847439,8.078684
0.314,9.844606,8.062661
0.315,9.841774,8.046638
0.316,9.838942,8.030614
0.317,9.833930,8.017276
0.318,9.824286,8.009645
0.319,9.814641,8.002012
0.320,9.804996,7.994381
0.321,9.794528,7.987682
0.322,9.782308,7.982965
0.323,9.770087,7.978247
0.324,9.757867,7.973529
0.325,9.747652,7.969433
0.326,9.741700,7.966657
0.327,9.735748,7.963881
0.328,9.729797,7.961104
0.329,9.724632,7.959069
0.330,9.721138,7.958607
0.331,9.717645,7.958146
0.332,9.714150,7.957684
0.333,9.711425,7.960286
0.334,9.710331,7.969400
0.335,9.709238,7.978514
0.336,9.708144,7.987628
0.337,9.706262,7.992408
0.338,9.702703,7.987977
0.339,9.699145,7.983545
0.340,9.695587,7.979114
0.341,9.693027,7.981543
0.342,9.692588,7.998553
0.343,9.692149,8.015563
0.344,9.691710,8.032573
0.345,9.693250,8.046093
0.346,9.698995,8.052198
0.347,9.704740,8.058303
0.348,9.710485,8.064408
0.349,9.716134,8.070248
0.350,9.721579,8.075523
0.351,9.727023,8.080799
0.352,9.732469,8.086075
0.353,9.739712,8.095313
0.354,9.750777,8.112969
0.355,9.761843,8.130627
0.356,9.772908,8.148283
0.357,9.782462,8.163138
0.358,9.788806,8.172039
0.359,9.795149,8.180940
0.360,9.801492,8.189840
0.361,9.807342,8.200130
0.362,9.812144,8.213370
0.363,9.816947,8.226610
0.364,9.821750,8.239850
0.365,9.825280,8.249639
0.366,9.826109,8.252094
0.367,9.826938,8.254549
0.368,9.827766,8.257005
0.369,9.829051,8.255661
0.370,9.831304,8.246242
0.371,9.833555,8.236823
0.372,9.835808,8.227404
0.373,9.836121,8.215436
0.374,9.832313,8.198051
0.375,9.828505,8.180668
0.376,9.824697,8.163283
0.377,9.819865,8.127419
0.378,9.812860,8.052285
0.379,9.805854,7.977151
0.380,9.798848,7.902017
0.381,9.791010,7.856289
0.382,9.781401,7.873050
0.383,9.771792,7.889811
0.384,9.762183,7.906571
0.385,9.754659,7.928126
0.386,9.751561,7.959869
0.387,9.748465,7.991613
0.388,9.745367,8.023356
0.389,9.742599,8.042372
0.390,9.740526,8.034341
0.391,9.738454,8.026309
0.392,9.736382,8.018278
0.393,9.733065,8.010056
0.394,9.727101,8.001431
0.395,9.721137,7.992804
0.396,9.715174,7.984178
0.397,9.710846,7.977788
0.398,9.709995,7.976151
0.399,9.709145,7.974513
0.400,9.708294,7.972875
0.401,9.708842,7.972215
0.402,9.712363,7.973629
0.403,9.715885,7.975045
0.404,9.719407,7.976460
0.405,9.723454,7.976956
0.406,9.728614,7.975500
0.407,9.733774,7.974043
0.408,9.738935,7.972586
0.409,9.744102,7.973110
0.410,9.749285,7.977840
0.411,9.754468,7.982572
0.412,9.759650,7.987302
0.413,9.764520,7.990631
0.414,9.768722,7.990978
0.415,9.772924,7.991324
0.416,9.777126,7.991672
0.417,9.780977,7.981946
0.418,9.784084,7.950816
0.419,9.787191,7.919686
0.420,9.790298,7.888556
0.421,9.792177,7.877993
0.422,9.791448,7.911132
0.423,9.790717,7.944272
0.424,9.789988,7.977411
0.425,9.788188,7.999823
0.426,9.784117,7.999439
0.427,9.780046,7.999055
0.428,9.775974,7.998672
0.429,9.772161,7.998104
0.430,9.768896,7.997146
0.431,9.765631,7.996188
0.432,9.762365,7.995231
0.433,9.758435,7.994862
0.434,9.753092,7.995744
0.435,9.747748,7.996627
0.436,9.742405,7.997509
0.437,9.737776,7.998509
0.438,9.734665,7.999757
0.439,9.731554,8.001004
0.440,9.728442,8.002252
0.441,9.725969,8.001339
0.442,9.724854,7.995836
0.443,9.723737,7.990333
0.444,9.722620,7.984830
0.445,9.720450,7.981839
0.446,9.716043,7.984185
0.447,9.711637,7.986532
0.448,9.707230,7.988879
0.449,9.704130,7.991624
0.450,9.703807,7.995218
0.451,9.703484,7.998812
0.452,9.703160,8.002406
0.453,9.702942,8.004179
0.454,9.702946,8.002084
0.455,9.702950,7.999989
0.456,9.702953,7.997894
0.457,9.703094,7.996005
0.458,9.703524,7.994554
0.459,9.703954,7.993102
0.460,9.704384,7.991651
0.461,9.704717,7.990820
0.462,9.704842,7.991307
0.463,9.704967,7.991794
0.464,9.705092,7.992281
0.465,9.705181,7.992059
0.466,9.705193,7.990328
0.467,9.705203,7.988597
0.468,9.705215,7.986867
0.469,9.705412,7.986422
0.470,9.706005,7.988708
0.471,9.706599,7.990994
0.472,9.707192,7.993281
0.473,9.707759,7.994157
0.474,9.708267,7.992037
0.475,9.708776,7.989916
0.476,9.709285,7.987795
0.477,9.710155,7.986773
0.478,9.711793,7.988082
0.479,9.713431,7.989392
0.480,9.715070,7.990702
0.481,9.716128,7.990978
0.482,9.715956,7.989056
0.483,9.715782,7.987134
0.484,9.715610,7.985211
0.485,9.715634,7.983094
0.486,9.716080,7.980562
0.487,9.716525,7.978030
0.488,9.716970,7.975497
0.489,9.717629,7.974180
0.490,9.718740,7.975446
0.491,9.719851,7.976712
0.492,9.720962,7.977977
0.493,9.721389,7.978116
0.494,9.720365,7.975861
0.495,9.719340,7.973605
0.496,9.718315,7.971349
0.497,9.716539,7.970638
0.498,9.713166,7.973209
0.499,9.709793,7.975780
0.500,9.706419,7.978352
0.501,9.702742,7.979586
0.502,9.698418,7.977981
0.503,9.694094,7.976375
0.504,9.689770,7.974769
0.505,9.686169,7.973230
0.506,9.684105,7.971833
0.507,9.682041,7.970437
0.508,9.679977,7.969039
0.509,9.679187,7.968955
0.510,9.681103,7.971657
0.511,9.683019,7.974360
0.512,9.684935,7.977063
0.513,9.686737,7.978418
0.514,9.688300,7.976911
0.515,9.689863,7.975404
0.516,9.691426,7.973897
0.517,9.694733,7.972518
0.518,9.701743,7.971413
0.519,9.708755,7.970307
0.520,9.715766,7.969202
0.521,9.722629,7.968019
0.522,9.729177,7.966672
0.523,9.735724,7.965326
0.524,9.742271,7.963979
0.525,9.748230,7.963931
0.526,9.752935,7.966643
0.527,9.757641,7.969355
0.528,9.762347,7.972066
0.529,9.767743,7.974256
0.530,9.774605,7.975334
0.531,9.781467,7.976413
0.532,9.788329,7.977492
0.533,9.795079,7.978635
0.534,9.801591,7.979913
0.535,9.808102,7.981191
0.536,9.814613,7.982470
0.537,9.820580,7.983415
0.538,9.825390,7.983652
0.539,9.830200,7.983888
0.540,9.835010,7.984125
0.541,9.839058,7.983865
0.542,9.841487,7.982548
0.543,9.843915,7.981232
0.544,9.846344,7.979915
0.545,9.848014,7.978841
0.546,9.848070,7.978280
0.547,9.848125,7.977719
0.548,9.848182,7.977159
0.549,9.848188,7.976050
0.550,9.848092,7.973779
0.551,9.847995,7.971507
0.552,9.847898,7.969235
0.553,9.847855,7.967107
0.554,9.847924,7.965286
0.555,9.847995,7.963464
0.556,9.848065,7.961642
0.557,9.847915,7.959933
0.558,9.847297,7.958463
0.559,9.846678,7.956992
0.560,9.846060,7.955522
0.561,9.845716,7.954560
0.562,9.845956,7.954677
0.563,9.846195,7.954794
0.564,9.846435,7.954912
0.565,9.845651,7.954740
0.566,9.842693,7.953952
0.567,9.839735,7.953165
0.568,9.836777,7.952377
0.569,9.833851,7.951572
0.570,9.830994,7.950729
0.571,9.828136,7.949886
0.572,9.825278,7.949044
0.573,9.822618,7.948405
0.574,9.820375,7.948199
0.575,9.818133,7.947993
0.576,9.815891,7.947787
0.577,9.814762,7.948216
0.578,9.816000,7.949996
0.579,9.817237,7.951776
0.580,9.818475,7.953556
0.581,9.818851,7.953469
0.582,9.817401,7.949417
0.583,9.815950,7.945364
0.584,9.814499,7.941312
0.585,9.813500,7.938282
0.586,9.813461,7.937421
0.587,9.813422,7.936561
0.588,9.813384,7.935700
0.589,9.813122,7.934488
0.590,9.812387,7.932529
0.591,9.811651,7.930570
0.592,9.810915,7.928611
0.593,9.811049,7.927429
0.594,9.813033,7.927901
0.595,9.815016,7.928372
0.596,9.816999,7.928844
0.597,9.818906,7.929070
0.598,9.820649,7.928773
0.599,9.822393,7.928477
0.600,9.824137,7.928181
0.601,9.826575,7.928718
0.602,9.830492,7.931024
0.603,9.834408,7.933330
0.604,9.838325,7.935636
0.605,9.842120,7.936974
0.606,9.845659,7.936255
0.607,9.849199,7.935536
0.608,9.852738,7.934818
0.609,9.856883,7.935758
0.610,9.862312,7.940221
0.611,9.867742,7.944685
0.612,9.873171,7.949149
0.613,9.878633,7.951709
0.614,9.884167,7.950226
0.615,9.889700,7.948744
0.616,9.895233,7.947261
0.617,9.900932,7.945334
0.618,9.906984,7.942463
0.619,9.913036,7.939592
0.620,9.919088,7.936721
0.621,9.924587,7.934695
0.622,9.928910,7.934462
0.623,9.933233,7.934229
0.624,9.937556,7.933996
0.625,9.941514,7.934267
0.626,9.944694,7.935607
0.627,9.947873,7.936947
0.628,9.951053,7.938288
0.629,9.954193,7.939017
0.630,9.957251,7.938448
0.631,9.960307,7.937880
0.632,9.963365,7.937311
0.633,9.966458,7.935928
0.634,9.969631,7.932813
0.635,9.972803,7.929698
0.636,9.975975,7.926584
0.637,9.980096,7.923331
0.638,9.986234,7.919785
0.639,9.992371,7.916239
0.640,9.998508,7.912693
0.641,10.004257,7.909749
0.642,10.009182,7.908084
0.643,10.014106,7.906419
0.644,10.019031,7.904755
0.645,10.024073,7.903239
0.646,10.029366,7.902040
0.647,10.034657,7.900841
0.648,10.039950,7.899641
0.649,10.046078,7.900707
0.650,10.053980,7.906585
0.651,10.061881,7.912464
0.652,10.069783,7.918343
0.653,10.077840,7.925948
0.654,10.086226,7.937223
0.655,10.094612,7.948499
0.656,10.102998,7.959774
0.657,10.110566,7.980810
0.658,10.116394,8.022585
0.659,10.122222,8.064361
0.660,10.128050,8.106136
0.661,10.135063,8.140389
0.662,10.144594,8.158660
0.663,10.154125,8.176929
0.664,10.163655,8.195199
0.665,10.169923,8.210504
0.666,10.169254,8.219508
0.667,10.168587,8.228513
0.668,10.167918,8.237517
0.669,10.167407,8.251648
0.670,10.167229,8.276671
0.671,10.167050,8.301695
0.672,10.166872,8.326718
0.673,10.165251,8.351231
0.674,10.160563,8.374655
0.675,10.155874,8.398079
0.676,10.151186,8.421503
0.677,10.150754,8.438406
0.678,10.159369,8.441452
0.679,10.167983,8.444498
0.680,10.176598,8.447544
0.681,10.185984,8.456312
0.682,10.197010,8.477241
0.683,10.208035,8.498169
0.684,10.219062,8.519097
0.685,10.225672,8.535551
0.686,10.222896,8.542497
0.687,10.220119,8.549441
0.688,10.217343,8.556387
0.689,10.216907,8.562434
0.690,10.221437,8.566572
0.691,10.225969,8.570710
0.692,10.230501,8.574848
0.693,10.236170,8.577355
0.694,10.244254,8.576395
0.695,10.252339,8.575435
0.696,10.260424,8.574474
0.697,10.265224,8.573051
0.698,10.263046,8.570645
0.699,10.260868,8.568240
0.700,10.258689,8.565834
0.701,10.255447,8.561987
0.702,10.249945,8.555075
0.703,10.244443,8.548163
0.704,10.238940,8.541251
0.705,10.234204,8.531329
0.706,10.231094,8.515009
0.707,10.227985,8.498688
0.708,10.224875,8.482368
0.709,10.221925,8.460687
0.710,10.219311,8.427616
0.711,10.216697,8.394546
0.712,10.214084,8.361475
0.713,10.207880,8.326776
0.714,10.194049,8.288615
0.715,10.180219,8.250456
0.716,10.166388,8.212296
0.717,10.151336,8.177964
0.718,10.133689,8.151768
0.719,10.116043,8.125570
0.720,10.098396,8.099374
0.721,10.084793,8.082507
0.722,10.079779,8.085468
0.723,10.074764,8.088428
0.724,10.069750,8.091389
0.725,10.063136,8.091963
0.726,10.053123,8.087467
0.727,10.043109,8.082972
0.728,10.033095,8.078476
0.729,10.023260,8.074662
0.730,10.013803,8.072300
0.731,10.004346,8.069938
0.732,9.994889,8.067575
0.733,9.985687,8.065770
0.734,9.977029,8.065150
0.735,9.968369,8.064530
0.736,9.959710,8.063910
0.737,9.951463,8.062905
0.738,9.944088,8.061080
0.739,9.936714,8.059255
0.740,9.929339,8.057429
0.741,9.922527,8.057307
0.742,9.916911,8.060803
0.743,9.911294,8.064300
0.744,9.905677,8.067796
0.745,9.899969,8.070576
0.746,9.894068,8.071834
0.747,9.888165,8.073092
0.748,9.882264,8.074348
0.749,9.876698,8.075518
0.750,9.871844,8.076497
0.751,9.866990,8.077477
0.752,9.862136,8.078457
0.753,9.857717,8.078680
0.754,9.854219,8.077295
0.755,9.850722,8.075911
0.756,9.847225,8.074526
0.757,9.842472,8.073608
0.758,9.835050,8.073684
0.759,9.827627,8.073759
0.760,9.820205,8.073833
0.761,9.814425,8.073357
0.762,9.812134,8.071707
0.763,9.809843,8.070057
0.764,9.807552,8.068407
0.765,9.805050,8.065018
0.766,9.802097,8.057929
0.767,9.799144,8.050841
0.768,9.796191,8.043753
0.769,9.793410,8.040195
0.770,9.790998,8.044140
0.771,9.788584,8.048085
0.772,9.786171,8.052030
0.773,9.783422,8.054952
0.774,9.779962,8.055701
0.775,9.776501,8.056451
0.776,9.773040,8.057200
0.777,9.770002,8.056774
0.778,9.767865,8.053850
0.779,9.765727,8.050926
0.780,9.763590,8.048003
0.781,9.761886,8.046587
0.782,9.761103,8.048374
0.783,9.760320,8.050161
0.784,9.759537,8.051950
0.785,9.758423,8.054547
0.786,9.756606,8.058870
0.787,9.754789,8.063192
0.788,9.752973,8.067515
0.789,9.751536,8.070572
