"Time"	"IP"	"VL"	"BF"	"ST"	"GA"	"TA"
"1"	1	0.262163200892226	0.145275827569546	0.0993434518185019	0.110100337710987	0.486769346291974	0.106844691179841
"2"	2	0.288564970244013	0.171292234617569	0.105731381411645	0.122304681389018	0.49511754297351	0.105994245020308
"3"	3	0.31960483211416	0.199331383462116	0.113026917981153	0.133630420167973	0.496463593854732	0.104733738727266
"4"	4	0.353720204354258	0.227841748993992	0.120917082848855	0.143429495659362	0.490869158832648	0.103141813506862
"5"	5	0.389265333023334	0.255477085435169	0.129105166375632	0.151109295541691	0.478976372758968	0.101311664941421
"6"	6	0.424653082621616	0.281211531065425	0.137347455643594	0.15619318818915	0.46202268941423	0.0993403872626667
"7"	7	0.458487267086939	0.304411882737994	0.145487365789033	0.158374460340148	0.441768375235619	0.0973203644608719
"8"	8	0.489657754206909	0.324849413018879	0.153479241869678	0.157550496682211	0.420332914416286	0.0953335052828794
"9"	9	0.517381781833063	0.342644338529648	0.161395970386541	0.153829370471314	0.399965995698486	0.0934483881632053
"10"	10	0.541197523067889	0.358156896636423	0.169416860647617	0.147511096897058	0.382797799551233	0.0917202027213419
"11"	11	0.560930869641345	0.371854258150066	0.177792451397459	0.139054829349904	0.370599112805842	0.0901921691406676
"12"	12	0.576636926577815	0.384172666932559	0.186787760445203	0.129029903329763	0.364588848767237	0.0888972169254634
"13"	13	0.588539944205419	0.395404177289643	0.196614615345757	0.118064944633189	0.365305535721421	0.0878585678200101
"14"	14	0.596987209390291	0.405625314234966	0.207367500301043	0.106798997184369	0.372553463471017	0.0870893298783814
"15"	15	0.602430158131443	0.414683525709917	0.218978160660271	0.0958361650547515	0.385434282612557	0.0865917421654464
"16"	16	0.605430451405092	0.422247655856832	0.231200750346242	0.0857041573205704	0.40246722205543	0.0863564995349654
"17"	17	0.606671389259423	0.427910470969136	0.243631592381714	0.0768189775223525	0.42178605704072	0.0863626224125228
"18"	18	0.606945654561936	0.431315035150218	0.255759015740512	0.0694605357505002	0.441382139187267	0.0865786262617418
"19"	19	0.607099153521691	0.432272254503553	0.267031254507705	0.063761261319519	0.459359074752573	0.0869651968378262
"20"	20	0.607926119686068	0.430831687214697	0.276925366583505	0.0597105730289396	0.474172521192071	0.0874789704223306
"21"	21	0.610032401298558	0.427285657000702	0.285002431572844	0.0571742063968337	0.48481404485347	0.0880755216794333
"22"	22	0.613691408688074	0.422118166180176	0.290947157235272	0.0559228066212603	0.490902118982721	0.0887102705809101
"23"	23	0.61873707159472	0.415923913267717	0.294592858334534	0.055667195545995	0.492659615846519	0.0893379826952386
"24"	24	0.624539714675438	0.409324229166453	0.295935188829651	0.0560951221908333	0.490800910533242	0.0899124446136726
"25"	25	0.630082702587282	0.40289271347593	0.2951332672228	0.0569046716091924	0.486364095776216	0.0903875204689493
"26"	26	0.634123164729866	0.397094793067429	0.292493340715395	0.0578312141803699	0.480518836114449	0.0907197993845304
"27"	27	0.635394635299034	0.392239311072347	0.288435056749894	0.0586665035534217	0.47437826005132	0.0908724756553596
"28"	28	0.632819119978562	0.388441220091207	0.283447642191655	0.0592696278524352	0.468840809531544	0.090819471329911
"29"	29	0.62568949174106	0.38560587327643	0.278042379423628	0.0595684660529044	0.464491634819083	0.0905479471528727
"30"	30	0.613795801542806	0.383444527895851	0.272711526037834	0.0595529336430669	0.461577224129446	0.0900595793293571
"31"	31	0.59746043039315	0.381529600349552	0.267891821592213	0.0592627799156297	0.460039945476131	0.0893711036191644
"32"	32	0.577480349737391	0.379380710325772	0.26393439060872	0.0587729614294906	0.459583028831465	0.0885144423389391
"33"	33	0.55500145615947	0.376562443882852	0.261088593882103	0.0581788741659552	0.459739879469134	0.0875355048305973
"34"	34	0.531358129003141	0.37278188416654	0.259506736853515	0.0575827739795246	0.459939880168365	0.0864908396022315
"35"	35	0.507905360611454	0.367976254786437	0.259267366298101	0.0570824539007702	0.459574807494001	0.0854421067939867
"36"	36	0.485858420575596	0.362371303936932	0.260401108437733	0.0567628457726012	0.458068586381238	0.0844487566756553
"37"	37	0.466168070758347	0.356483038634795	0.262912433639983	0.0566920714821164	0.454938238799141	0.0835599711126411
"38"	38	0.449464473606066	0.351068680267199	0.266789349248978	0.0569218148832375	0.449841754197267	0.0828072550488111
"39"	39	0.43608080699404	0.347043561711644	0.272010254720789	0.0574913449195119	0.442615417004763	0.0821989139102595
"40"	40	0.426139776534635	0.345384967336776	0.278548266865438	0.0584337858636704	0.433297414933598	0.0817175935343651
"41"	41	0.419661840366525	0.347033273954491	0.28636888588526	0.0597830034195833	0.422122640778117	0.0813213121187137
"42"	42	0.416651207477408	0.352788172985538	0.295416980889895	0.0615797453038389	0.409479378044727	0.080947930786752
"43"	43	0.417138572391343	0.363198301031131	0.305589646033847	0.0638759491272215	0.395842387929514	0.0805226610374922
"44"	44	0.4211708004684	0.378446101920769	0.316695075780465	0.0667351157972014	0.381709567449017	0.0799679302547766
"45"	45	0.428758813476981	0.398268972346056	0.328415517288837	0.0702295100295613	0.367557720447143	0.0792144369215231
"46"	46	0.43978543058788	0.421933369429156	0.340288079686245	0.0744331706175478	0.35382703325115	0.0782118218967845
"47"	47	0.453907575770215	0.448277326318867	0.35171454853046	0.0794114346764476	0.340924503802277	0.0769373956591751
"48"	48	0.470497256003403	0.475821209443889	0.36200626921141	0.0852078233046787	0.329228716190564	0.0754017396741818
"49"	49	0.488647455704557	0.502929043118363	0.37046561679515	0.0918293847899435	0.319084837936974	0.0736502035638604
"50"	50	0.507238386951838	0.527988869904283	0.376494545277235	0.0992330086266743	0.310792658156834	0.0717596754552204
"51"	51	0.525035401277755	0.549577278415018	0.379705604567192	0.107316980134696	0.30459440791396	0.0698309196959756
"52"	52	0.5407912796099	0.566589238828273	0.380006767839679	0.11592049682537	0.30065991133689	0.0679777867254531
"53"	53	0.553339891993554	0.57832320721372	0.377626943127014	0.12483284048354	0.299069478946289	0.0663148860540136
"54"	54	0.561677342576199	0.584518583269045	0.373075663965854	0.133809789150091	0.299798203572089	0.0649458620296256
"55"	55	0.565041632110878	0.585348537072622	0.367063964300951	0.142592747212555	0.302704163643251	0.0639535390221505
"56"	56	0.562988029385244	0.581357375790992	0.360407728160368	0.150925752831815	0.307528928872718	0.0633931015422536
"57"	57	0.555447335809867	0.573357190633431	0.353925774221394	0.158565895718339	0.313911264433702	0.0632887210675415
"58"	58	0.542743766725716	0.5623035023149	0.348337490224096	0.165285005735925	0.321407517705743	0.063633571207519
"59"	59	0.525561159992721	0.549170544860056	0.344167847516284	0.170863873375094	0.329512198141351	0.0643928865115359
"60"	60	0.50487332935756	0.534849863250617	0.341670614408676	0.175082939957053	0.337676942167937	0.0655093881870679
"61"	61	0.48186203348392	0.520086103605523	0.34077756453897	0.177715743204383	0.345329519779575	0.0669103302910043
"62"	62	0.457833698463319	0.505448778281363	0.341086838356071	0.178525630388974	0.351889752759898	0.0685158562364296
"63"	63	0.434148555756888	0.491322010824886	0.341888649779372	0.177271142721311	0.356780289509038	0.0702463520238101
"64"	64	0.412149037823681	0.477891921558059	0.342225530030459	0.173719033619815	0.359436766243817	0.0720281077603266
"65"	65	0.393088866721647	0.465138723362171	0.340982709816345	0.16766584371021	0.359329001377899	0.0737964758157749
"66"	66	0.378072305513383	0.452841559310289	0.337007138671494	0.158967421142342	0.356005260227047	0.0754967571019642
"67"	67	0.368006814875555	0.440589288575199	0.329244637153896	0.147578043327514	0.349157829024826	0.0770833182281414
"68"	68	0.363561296169579	0.427798599409093	0.316876090885388	0.13359832116618	0.338690079524644	0.078517522385538
"69"	69	0.365108805889171	0.413762096818718	0.299453370894011	0.117332321277226	0.324769494960186	0.0797655739952024
"70"	70	0.372691683256038	0.397735539701723	0.277002518682456	0.0993299010303167	0.30782763471567	0.0807959841533445
"71"	71	0.385997770545454	0.379056701407884	0.250105730116463	0.0804144582982697	0.288517586715889	0.0815777265884676
"72"	72	0.404371352892814	0.357273920107827	0.219942926315312	0.0616852202654281	0.267639034494301	0.0820790465594142
"73"	73	0.42686200698273	0.33226011330642	0.188286200146015	0.044497625812539	0.24605477956004	0.0822670181600605
"74"	74	0.452310424613441	0.30428224337479	0.157440651718407	0.0304236467324338	0.224608681535172	0.0821079154983964
"75"	75	0.479462442382442	0.273997849329603	0.130125199162773	0.0211922490450733	0.204051211341192	0.0815687130860628
"76"	76	0.507095507164918	0.242374594371307	0.109294318419842	0.0186127235843472	0.184983999975268	0.0806202901008327
"77"	77	0.534134865328515	0.210563280528142	0.097897649925294	0.024468644976997	0.167831251130776	0.0792437988866762
"78"	78	0.559733483277881	0.179755831761295	0.0986201110416132	0.0404028955414295	0.152845681794238	0.0774389907007716
"79"	79	0.583298113175707	0.151059798033841	0.113621970866696	0.0677847982555131	0.140140128184078	0.075234384048756
"80"	80	0.604472945441526	0.125401772961842	0.144300210774863	0.107563795706923	0.129732969916537	0.0726975341164325
"81"	81	0.623103800682244	0.103466544861278	0.191095115531008	0.160118988242335	0.121595440510842	0.069944190716892
"82"	82	0.639196853243358	0.0856702520911136	0.2533615383489	0.225116966926391	0.115692065512539	0.0671454365050869
"83"	83	0.652867306295313	0.0721595445010724	0.329322115978415	0.301402843745087	0.112008161568214	0.0645317298805248
"84"	84	0.66426692679398	0.0628303113732049	0.416117919948809	0.386955897082837	0.110558199940446	0.0623931035681836
"85"	85	0.673487064609036	0.057359597017137	0.509955775458421	0.478924588695164	0.111367271082331	0.0610742110304199
"86"	86	0.680450461281973	0.0552536685912607	0.606370800909367	0.573767356109624	0.114433195289769	0.0609639300100709
"87"	87	0.68482511027519	0.0559053264890151	0.700573227667397	0.667483242867034	0.119684369800351	0.0624809636098366
"88"	88	0.685991969288623	0.0586493781032105	0.787834165882682	0.755903458272053	0.126943979484539	0.0660547481893427
"89"	89	0.683088777736533	0.0628146855379769	0.863859757888243	0.835014445817156	0.135910141211925	0.0721033350498954
"90"	90	0.675142285950028	0.0677683950871098	0.925100492141726	0.90127379691957	0.146153720629005	0.0810095042018417
"91"	91	0.661272393384891	0.0729511582078277	0.968979888666587	0.951891693283552	0.157134155591591	0.0930970068191597
"92"	92	0.640918339436292	0.0779030997188508	0.994040209638381	0.985046548500312	0.168232286487661	0.10860929684668
"93"	93	0.61401516923971	0.0822799308652724	1	1	0.178794376513832	0.127690840087154
"94"	94	0.581071465651169	0.0858593775318872	0.987724540917812	0.997090950937278	0.188179017190978	0.150368831409512
"95"	95	0.543139610547592	0.0885360129130316	0.959069254384496	0.977573257316657	0.19579366992939	0.176543834951163
"96"	96	0.501730881994867	0.0903074851976636	0.916676755908784	0.943392370061242	0.201119060323346	0.205977616216001
"97"	97	0.458689462596777	0.09125305354289	0.863719199421953	0.896931871100956	0.20372810125632	0.238282461128211
"98"	98	0.416040545520749	0.0915066397113427	0.803607006165487	0.840799692841058	0.203308660552584	0.272912838821721
"99"	99	0.375815228411911	0.0912278770257838	0.739696887743765	0.777687776825936	0.199693409744897	0.309165955106208
"100"	100	0.339861670020011	0.09057562457048	0.675055017821249	0.710293281241666	0.192891261275698	0.346196673177308
"101"	101	0.337808404296513	0.0905261366712476	0.671083294823542	0.706031954483297	0.192367900782152	0.348498127006096
"102"	102	0.320901658700917	0.0900609255698023	0.63686151326317	0.668710619576623	0.18732828460118	0.368495721746061
"103"	103	0.305884471449561	0.0895469584422477	0.6035945517398	0.631352544332848	0.181479034483301	0.388265156216789
"104"	104	0.292885186623056	0.0889981140469996	0.57158574687343	0.594327593111513	0.174894058998455	0.407646957485425
"105"	105	0.281988635361575	0.0884246867328261	0.541096717106365	0.557974581478217	0.167659451357173	0.426483851406139
"106"	106	0.273229030018962	0.0878334847914931	0.512342940955809	0.52259156533006	0.159873158143805	0.444626330615407
"107"	107	0.266589237335408	0.0872279651177924	0.4854909857039	0.4884255928688	0.151641532481471	0.46193845472848
"108"	108	0.262012844391242	0.0866085077389817	0.460667659737948	0.455672915026055	0.143074064733984	0.478297653465972
"109"	109	0.259410051449576	0.085972815704901	0.437966362703551	0.424481124574065	0.134281404494574	0.49359360067436
"110"	110	0.258642557169479	0.0853165804623301	0.417428037313009	0.394933101720138	0.125374616774052	0.507739613408872
"111"	111	0.259548500978063	0.0846339221832914	0.39906511494277	0.367064762965452	0.116460164424082	0.520661686597198
"112"	112	0.261944408683618	0.0839179668951741	0.382863817942449	0.340869267820722	0.107639270366448	0.532296609760231
"113"	113	0.26562667377397	0.08316152650465	0.368783640776599	0.316300074886233	0.0990064592165354	0.542591753196646
"114"	114	0.270376069299554	0.0823578844750677	0.356757461436885	0.293276253196028	0.0906471491893911	0.551505168666518
"115"	115	0.275970125851126	0.0815011692445297	0.346707136842719	0.271700740677916	0.0826380368586664	0.558994906187561
"116"	116	0.282186320069273	0.0805867824351499	0.338547551761975	0.251469769208974	0.0750480328474294	0.565014084679307
"117"	117	0.288802077986861	0.0796124296689637	0.332171895158474	0.23246943539027	0.0679341543382368	0.569522050157408
"118"	118	0.295605809720751	0.0785780851887346	0.327468441700891	0.214593912304054	0.0613446010486784	0.5724719558581
"119"	119	0.302399250229513	0.0774863319416857	0.324319030305169	0.197748872250187	0.0553191902375206	0.573811423759916
"120"	120	0.309000718764704	0.0763427444272576	0.322595326986254	0.181852525091956	0.0498887105981784	0.573486811419698
"121"	121	0.315251050248025	0.0751562517479145	0.322153167376185	0.166834074046471	0.0450724154445784	0.571453506234834
"122"	122	0.321015354344728	0.073938936935124	0.322840575595047	0.152640018697825	0.0408819987060075	0.567669439177943
"123"	123	0.326183280003805	0.0727063278660831	0.324494950616424	0.13923320546634	0.037322153036799	0.562098360444863
"124"	124	0.330675129092961	0.0714776533677533	0.326934497780672	0.126585447282467	0.0343856955750719	0.554728635999096
"125"	125	0.334438025712559	0.0702757436317279	0.329965015722463	0.114680913030077	0.0320579018732989	0.545565883140206
"126"	126	0.337442947029466	0.069127308856298	0.333378967088745	0.103514114107366	0.0303170207776081	0.53463527341299
"127"	127	0.339681869148977	0.0680632295969987	0.336954837296038	0.0930869938522793	0.0291339858712071	0.521985399464879
"128"	128	0.341167849881975	0.0671179878699151	0.340460242943813	0.0834024162169986	0.0284699771866367	0.507698553428313
"129"	129	0.341924684220566	0.0663303096207468	0.34365731091396	0.0744673098425692	0.0282812242569586	0.491877613135775
"130"	130	0.341983066160186	0.0657437084446624	0.346304690355498	0.0662905093167526	0.0285190172991282	0.474646524540165
"131"	131	0.341381912062815	0.0654050698600123	0.348167923486624	0.0588756183300862	0.0291275302643014	0.456158017569918
"132"	132	0.340162185993042	0.0653651441523804	0.349025850621492	0.0522230197338274	0.030047148657625	0.436582775509239
"133"	133	0.338364827741592	0.0656789120984943	0.348675995525945	0.0463295809654055	0.0312155510261718	0.416105276615377
"134"	134	0.336030576192592	0.066405746650474	0.346940853645765	0.0411876857019986	0.032568229092336	0.394921501108268
"135"	135	0.333203871032237	0.0676056571869856	0.343686366501144	0.0367793266051477	0.0340387242886589	0.373238587925199
"136"	136	0.32992907641982	0.0693421061257366	0.33881658044844	0.0330823083665698	0.0355615496661354	0.35126408865434
"137"	137	0.326252469475047	0.0716818831006041	0.332278165688035	0.0300695124240199	0.0370725065990551	0.32920469303241
"138"	138	0.32222569834919	0.0746908839113248	0.324073405599635	0.0277051315302661	0.0385100256661186	0.307262383702651
"139"	139	0.317905124897696	0.0784347236343684	0.314255579675755	0.0259476394866558	0.0398168636921181	0.285628285445103
"140"	140	0.313352308986514	0.0829795830966651	0.302924184293732	0.0247516083348194	0.0409408377651371	0.264479931971385
"141"	141	0.308635262942046	0.0883926952959492	0.290221782851574	0.024068466499328	0.0418352973054519	0.243979944584807
"142"	142	0.303829979590867	0.0947335570149825	0.276340297071461	0.0238431656113203	0.0424624300411725	0.224266775407208
"143"	143	0.299018600399138	0.102061215435306	0.261500593908753	0.0240202115313391	0.0427920573777452	0.205458880876756
"144"	144	0.294290063189097	0.110433095530482	0.245949035047986	0.0245434035892006	0.0428023381717511	0.18765461371475
"145"	145	0.289738863388991	0.119899195814336	0.229953129091794	0.0253551186611477	0.0424820207430262	0.170927467230998
"146"	146	0.285462898693014	0.13050246656441	0.213789645901347	0.0263983513859725	0.0418305519886674	0.15532791615103
"147"	147	0.28156232638095	0.142281176923468	0.197735962915388	0.0276182588939448	0.0408574205427293	0.140888203169635
"148"	148	0.278138978169993	0.155270223417461	0.182065685130321	0.0289626505011814	0.0395820054809411	0.127626241776451
"149"	149	0.275288265262073	0.169487263593312	0.167036209737434	0.0303816918522077	0.0380366717031582	0.115535209609719
"150"	150	0.273101085720346	0.184944026326901	0.152885496862444	0.0318300162520268	0.0362632331288963	0.104598056762202
"151"	151	0.271661254404575	0.201642434250766	0.139828559337744	0.033266505910294	0.0343135591941618	0.0947872577550093
"152"	152	0.271040170891939	0.219567342593671	0.12804902763425	0.0346546862022982	0.0322498860431462	0.0860623994943514
"153"	153	0.271293693563632	0.238683545344858	0.117693917936575	0.0359633504638144	0.0301434968836017	0.0783725205111499
"154"	154	0.272463179775234	0.258936780617625	0.108876605336434	0.037166439214768	0.0280734482797005	0.0716620903614975
"155"	155	0.274575475236048	0.280250882724634	0.101679489261844	0.0382426068263194	0.0261265740864098	0.0658739542675579
"156"	156	0.27763089848532	0.302512609288661	0.0961361188733996	0.0391766289979874	0.0243945970840881	0.0609417320145267
"157"	157	0.281611393929567	0.325579426202795	0.0922486669060879	0.0399580058562545	0.0229734763801259	0.056801597698781
"158"	158	0.286477398058083	0.349273347481292	0.0899870994646922	0.0405808236813232	0.0219625175933802	0.0533920414836383
"159"	159	0.292163714463731	0.373376238254542	0.0892865095547576	0.0410439469894508	0.0214617573999939	0.0506534163717468
"160"	160	0.298577963053766	0.397630474141581	0.0900479898091702	0.0413509695528269	0.0215683914755713	0.0485289922842757
"161"	161	0.305604696851876	0.421742132433927	0.0921494275397799	0.0415090842842063	0.022377422307907	0.0469694191470304
"162"	162	0.313105818079947	0.445380100827484	0.0954489839929953	0.0415286684804581	0.0239818131841906	0.0459338641287816
"163"	163	0.320918872424937	0.468186720293426	0.0997777739489078	0.0414242592222627	0.026462747347336	0.0453859437358394
"164"	164	0.328865926200382	0.489783158384571	0.104955366534644	0.0412129288606408	0.0298943987010979	0.0452989150912855
"165"	165	0.336756415529763	0.509775769350045	0.110791456764283	0.0409142282210253	0.0343423921701548	0.0456550648792461
"166"	166	0.344391842636918	0.527768428667122	0.117087980797166	0.0405501751079262	0.0398604722785494	0.0464445558049975
"167"	167	0.35157418413506	0.543384156826303	0.123643768054722	0.04014500275995	0.0464853248528486	0.047663548214482
"168"	168	0.358110445280397	0.556265766339977	0.130261785508368	0.03972449688401	0.0542418578992898	0.049315776364356
"169"	169	0.363815570555091	0.566081914450991	0.136751186834621	0.0393160675491751	0.0631434666595756	0.0514117201711116
"170"	170	0.368525351097602	0.572566052194512	0.142933342080947	0.0389483411427098	0.0731817330189552	0.053963439973258
"171"	171	0.37209626281825	0.575507102151668	0.148646273114196	0.0386508005910746	0.0843345935612552	0.0569860584811404
"172"	172	0.374408311398807	0.574757080240041	0.153747103295925	0.0384537513062346	0.0965665073385407	0.0604961165816696
"173"	173	0.375369693434172	0.570243517924554	0.158115573085516	0.0383880828378373	0.109827442821245	0.0645091993084053
"174"	174	0.374927041794155	0.561994391781234	0.16166134269773	0.03848406525735	0.124049322657912	0.0690354473582005
"175"	175	0.373058238617973	0.550115172224681	0.164320875310706	0.0387718326090829	0.139154651642072	0.0740810388476324
"176"	176	0.369773389353229	0.534790255939688	0.166057582890453	0.0392813482162531	0.155057323250086	0.0796463319095752
"177"	177	0.365126044215375	0.516306015042835	0.166869052058096	0.0400401801615363	0.171658765895969	0.0857200190918291
"178"	178	0.359204288198196	0.49502324081699	0.16678109669752	0.0410739320079838	0.188855350895613	0.0922803501276094
"179"	179	0.352128315453911	0.471367277491618	0.165845430462309	0.0424059380270027	0.206540666258363	0.0992939690188232
"180"	180	0.344049279410452	0.445820707011894	0.164138327180613	0.044056503086822	0.224606888799382	0.106714238471312
"181"	181	0.335150968527576	0.418918177115046	0.161762182655517	0.0460398445371569	0.242945391963778	0.114478242684893
"182"	182	0.325636825670002	0.391214855157679	0.158835688969104	0.0483656865823484	0.261452016389403	0.122510056421669
"183"	183	0.315727989485677	0.363278429803121	0.155491931286097	0.0510383003090246	0.280027277385625	0.130720022849735
"184"	184	0.305660820650655	0.335674859061498	0.151877193174812	0.0540533254332701	0.29857724528612	0.139004548717042
"185"	185	0.295678614280316	0.308948357150796	0.148144185980688	0.0573983683207944	0.317015333876018	0.147249224714431
"186"	186	0.286028022508042	0.283611727637163	0.144448505023084	0.0610528639999181	0.335262149310397	0.155330554665192
"187"	187	0.276957179887638	0.260139832565626	0.140946365169813	0.0649874508584648	0.353244800653725	0.163117357772658
"188"	188	0.268705535122381	0.238942238962176	0.137788594234143	0.0691616346707362	0.37089920997878	0.170477009032748
"189"	189	0.261504502386611	0.220371936820091	0.135118693077013	0.0735265130513774	0.388167331815579	0.177276689970469
"190"	190	0.255575729044167	0.204722853163014	0.133071305973416	0.0780243212742772	0.40499601922112	0.183385935240861
"191"	191	0.251120411384609	0.19221110292072	0.131766111530237	0.0825883758201438	0.42133879278303	0.188684322645896
"192"	192	0.248316896075369	0.182979496596795	0.131305901390948	0.0871450934871213	0.437154891068756	0.193064884818507
"193"	193	0.247321665205468	0.177107559041198	0.131776938689961	0.0916154117867139	0.452407997348425	0.196435489145512
"194"	194	0.248270001028646	0.174619266818629	0.133249417445651	0.0959156215385499	0.46706563243564	0.198720225635308
"195"	195	0.251253915390032	0.175455350258217	0.13576647048083	0.099961520870001	0.48110558914303	0.199873135126613
"196"	196	0.256338960978574	0.179514188822757	0.139353659769456	0.103669339835663	0.49451045688558	0.199869391435565
"197"	197	0.263559708635106	0.186653271655045	0.144017750087032	0.106957531149028	0.507268574792262	0.198707589561135
"198"	198	0.27290822898888	0.196683659504544	0.14974229190805	0.109750998818475	0.519376958758158	0.196414824792364
"199"	199	0.284334365788092	0.20938264640866	0.156489379634526	0.111983891890298	0.530840708712518	0.193044415751583
"200"	200	0.297752220263539	0.224511049785554	0.164204245238106	0.113600026597024	0.541670361694918	0.188670215269332
"201"	1	0.299413977074707	0.226391006768536	0.165148252924106	0.113743731755333	0.542872694901535	0.188108089847095
"202"	2	0.324649293388396	0.25495595708354	0.17926561335471	0.114809743710735	0.55860223306949	0.179243739028844
"203"	3	0.353793607870477	0.287836460441536	0.195219827716923	0.114130366236164	0.572877636226879	0.168601774110825
"204"	4	0.385968845673768	0.324003845235574	0.212568142265485	0.111712542959897	0.585774648827957	0.156701178826451
"205"	5	0.420159945114435	0.362447737993232	0.230812181491089	0.107667555722288	0.597330293241807	0.144087803882628
"206"	6	0.455276178114362	0.402174145696069	0.249419434243708	0.102206909371797	0.607500536963076	0.131299197961333
"207"	7	0.490215098439221	0.442189099766667	0.267845764205021	0.0956349043552204	0.616126299510554	0.118833774147199
"208"	8	0.523931431504221	0.481489577720648	0.285562615400229	0.0883241308523221	0.622906655947341	0.107124935737641
"209"	9	0.555491529615056	0.519052530666792	0.302082040728472	0.0806922061216881	0.62740217120043	0.0965245495516926
"210"	10	0.584115427259904	0.553832618833077	0.31697793756461	0.0731762747400973	0.62906479536045	0.0872942502301296
"211"	11	0.609218690686711	0.584782975539941	0.329905961502642	0.0662067032126208	0.627308426796898	0.0795984099216364
"212"	12	0.63043011596494	0.610877766933123	0.340607898900809	0.0601824800324769	0.62159300455291	0.0735093589286202
"213"	13	0.647603098777112	0.631151819576692	0.348913078364252	0.055451134259452	0.611523740492902	0.0690155753407255
"214"	14	0.660819797093674	0.644757700553823	0.354737778358592	0.0522928082681487	0.596940140745866	0.0660337132329442
"215"	15	0.670396973065064	0.651060955526069	0.358090281408337	0.0509036729374892	0.577986327986273	0.0644192778738997
"216"	16	0.676863553981708	0.649727044630111	0.35906735558058	0.0513879167852384	0.555122493324854	0.0639833385678265
"217"	17	0.680920118064989	0.640796524532156	0.357850069274342	0.0537550618275461	0.529092178174642	0.0645081507469881
"218"	18	0.683381229488408	0.624731680453118	0.354698362453383	0.0579209989560802	0.500858257631055	0.0657608803583569
"219"	19	0.685101282609338	0.602424054174305	0.349941818066168	0.0637111132713738	0.471518625384678	0.0675057073812541
"220"	20	0.686885327167977	0.575132146362583	0.343957325813982	0.0708715379065236	0.442205971491631	0.0695166500206302
"221"	21	0.689405085578988	0.544366932173113	0.337136892946072	0.0790867230277511	0.413995643757375	0.0715886027975737
"222"	22	0.693131483377985	0.511762703595226	0.329853588703485	0.0879979683099282	0.387832813819117	0.0735454341382004
"223"	23	0.69828878941031	0.478938795620905	0.322429176064089	0.0972249969093994	0.364477354247267	0.0752462815691166
"224"	24	0.704838492504619	0.447364177035684	0.315109316217933	0.106390368324276	0.344466721541964	0.0765898699262261
"225"	25	0.712502363073682	0.418252963582288	0.308052107899119	0.115142345962535	0.328110677241949	0.0775149795512963
"226"	26	0.720812039300577	0.392500300426044	0.301331077968739	0.123172460435192	0.315499250283901	0.0779990110444531
"227"	27	0.729180544426724	0.370657622411218	0.294950740738911	0.130228310289494	0.30652758337353	0.0780544449814262
"228"	28	0.736986827710075	0.352936962126619	0.288871584731459	0.136123668198888	0.300925857777235	0.0777242471633049
"229"	29	0.743657767065864	0.339262906176385	0.283041129778585	0.140738894051883	0.298310805613396	0.0770739976027644
"230"	30	0.748734496449561	0.329324692162555	0.277420873720304	0.14402100034281	0.298223479660858	0.0761848128638153
"231"	31	0.751916689425252	0.322636722489555	0.27200449985035	0.145979598256407	0.300166583807339	0.0751457068236631
"232"	32	0.753094005100396	0.318592881198625	0.266823488051644	0.146684451618075	0.303631316261413	0.074046625349399
"233"	33	0.752350158546443	0.316543364940176	0.261943638733756	0.146251348369324	0.308130883448224	0.0729716561447008
"234"	34	0.749964646367705	0.315855463884184	0.257454915875105	0.144830793432339	0.313216669254007	0.0719943885015172
"235"	35	0.746402990863791	0.315972458283819	0.253460433905159	0.142593842786765	0.318486515125664	0.0711746470097681
"236"	36	0.742302096891067	0.316456682440846	0.250062504251127	0.139724390062863	0.323583435673663	0.0705557419310581
"237"	37	0.738431559810079	0.317018780613926	0.247352215667796	0.136409839456553	0.32819033012047	0.0701646093257188
"238"	38	0.735641336350551	0.317517461708694	0.245395907715386	0.13284134964143	0.332021953319628	0.0700127138606458
"239"	39	0.734786455325106	0.317935585726989	0.244222647990506	0.129216822251005	0.334818040364669	0.070098471446503
"240"	40	0.736624898867534	0.318334189045061	0.243809773032365	0.125745431383702	0.336345023664971	0.0704093444108232
"241"	41	0.741723280152872	0.318790003989125	0.244077253961871	0.122649428971069	0.336396036608421	0.0709255963266719
"242"	42	0.750368995366182	0.319329686215057	0.244885351623509	0.120160016308423	0.334797170481754	0.0716229498487365
"243"	43	0.762509052627253	0.319874045555055	0.246039538938114	0.118504770223104	0.331413694739939	0.0724750965504641
"244"	44	0.777709485132518	0.320204055137633	0.247300651178172	0.117884542543861	0.326163551349063	0.0734550637344415
"245"	45	0.795170259850484	0.319956760682104	0.248402928644802	0.118450920176817	0.319021566680024	0.0745363047372639
"246"	46	0.813773250771128	0.318651355049721	0.249075791020381	0.120284709576454	0.310022970511031	0.0756921632006165
"247"	47	0.832166769378765	0.315741495487658	0.249068408625158	0.123380020220894	0.299262841761557	0.0768943337107755
"248"	48	0.848882264878308	0.310692468346	0.248176131463351	0.127632595303389	0.286897717495594	0.0781109123955928
"249"	49	0.86247083578104	0.3030627397877	0.246260342291293	0.132840955011565	0.273138877434049	0.0793051282420164
"250"	50	0.871632803015518	0.29257617891021	0.243257988541537	0.138715943524185	0.258242619945608	0.0804349888107788
"251"	51	0.875330224512429	0.279175463930526	0.239180665621038	0.144898514387464	0.242497780802487	0.0814541601923939
"252"	52	0.872878018663353	0.263049202859952	0.234105715258717	0.150987005234526	0.226210321901555	0.082314428406909
"253"	53	0.863987605892281	0.244616149080225	0.228158692887187	0.15657418107487	0.20968389966885	0.0829695120767599
"254"	54	0.848758687816416	0.22447528147557	0.221491934918809	0.161286469530087	0.19320392039465	0.0833796927775453
"255"	55	0.827646894021668	0.203344020718273	0.214266275653624	0.16482099677705	0.177029382879673	0.0835175527763706
"256"	56	0.80141055472937	0.18199052236215	0.206638288532923	0.166976133720612	0.161390597431601	0.0833741450956719
"257"	57	0.771039259020546	0.161165962533525	0.198755218805149	0.167671511298772	0.146489340764685	0.0829641629870987
"258"	58	0.737657963405155	0.14154867479519	0.190757938494005	0.166952585269735	0.132500530612773	0.0823275529344398
"259"	59	0.702437432927445	0.123703763840891	0.182792648148546	0.164990742468214	0.119569266313945	0.0815278175683282
"260"	60	0.666498948074368	0.108056540265973	0.175028692112241	0.162077002464927	0.107804960882223	0.0806457128481667
"261"	61	0.63082556799218	0.0948749246713291	0.167680712864499	0.158610738756678	0.0972730935979721	0.0797695560239939
"262"	62	0.596197964564384	0.0842763827653817	0.161035537797676	0.155078406033134	0.0879958947955362	0.0789841533483078
"263"	63	0.563168333123641	0.0762386096510369	0.155479251094775	0.15202852922424	0.0799540440093292	0.078360611935268
"264"	64	0.532067633769161	0.0706208330694496	0.15152108713415	0.150037894937324	0.0730945009012186	0.0779475439231041
"265"	65	0.503031104059257	0.067182353937996	0.14979830705842	0.149666035929927	0.0673374007078665	0.0777633958305168
"266"	66	0.476049819399786	0.0656185151190007	0.151072212307168	0.151415712754296	0.0625908140483342	0.0777925958547789
"267"	67	0.451016196287677	0.0655858397913744	0.15619525462399	0.155693362715006	0.058759213547872	0.0779833128698426
"268"	68	0.427771728582074	0.066729571637054	0.166063217259443	0.162780382469238	0.0557531398290173	0.0782479098095267
"269"	69	0.406146181553001	0.0687030353082795	0.181522945609407	0.172798230775395	0.0534938158770505	0.0784661715659436
"270"	70	0.386011447254063	0.0711915390708699	0.203307223438179	0.185708213234347	0.0519225789898706	0.0784925145626179
"271"	71	0.367322214040601	0.0739242694990613	0.231946474577533	0.201312667904683	0.0510037685007435	0.0781656594971534
"272"	72	0.35014841746595	0.0766826413027986	0.267699437909455	0.219278129232232	0.0507265595449924	0.0773206279003389
"273"	73	0.334678900329868	0.0793036964698739	0.3104648120206	0.239164230304654	0.0511002252065837	0.0758058211506579
"274"	74	0.321207981196908	0.0816787216355661	0.359756351548333	0.260479260195882	0.0521493511064337	0.073498901751419
"275"	75	0.310096669897488	0.0837470521263517	0.414678571135004	0.28273084470451	0.053904291727598	0.0703249030910624
"276"	76	0.301725312220932	0.0854869988225722	0.473940855996518	0.305475834232255	0.0563917435096686	0.066273453592842
"277"	77	0.296431692074061	0.0869065770185336	0.535895578655669	0.328361624859896	0.0596230423600255	0.0614178343258526
"278"	78	0.294463492624066	0.0880324062945128	0.598635057828546	0.351157898702473	0.0635868570781535	0.0559271167164984
"279"	79	0.295935351078662	0.0888998300955755	0.660099956792986	0.373769201602858	0.0682423003475103	0.0500764065309768
"280"	80	0.300797195481773	0.0895442458667099	0.718195765575138	0.396228689186952	0.0735145812796162	0.0442529168856819
"281"	81	0.308802939197216	0.0899947157998307	0.770918558610805	0.418672881181935	0.0792923635775154	0.0389555861584338
"282"	82	0.319499525867528	0.0902690361907161	0.816464811829861	0.441298460452119	0.0854310565265654	0.034785852624811
"283"	83	0.332227626650093	0.0903713977608666	0.853316658890866	0.464308959643484	0.0917591580536032	0.0324324366548113
"284"	84	0.346137505205445	0.0902926027163996	0.880312645092137	0.487860449185208	0.0980866000883119	0.0326487112624778
"285"	85	0.360225902830184	0.0900129583811624	0.896722238187963	0.512014831475579	0.104213966267917	0.0362161977436536
"286"	86	0.373400369069956	0.0895071601134409	0.902291022776246	0.536709822358712	0.109941116386328	0.0438999965922526
"287"	87	0.384557490592462	0.0887503995822182	0.897240751602956	0.561747941741473	0.115072791324963	0.0564051762514149
"288"	88	0.392668694735238	0.0877255138799376	0.882248145829103	0.586799305345265	0.119422663184288	0.0743256132880526
"289"	89	0.396870322321667	0.0864301125523324	0.858389416204709	0.611417785853683	0.122818228549734	0.0980874970727853
"290"	90	0.396546945888903	0.0848824825675066	0.827051429241879	0.635070438491225	0.125108732525736	0.127892261211765
"291"	91	0.391377752678527	0.083124711110244	0.789802500866113	0.657168332496435	0.126172671151348	0.163685746064473
"292"	92	0.381363293744421	0.081224092591232	0.748283740748005	0.677091932142805	0.125929562198548	0.20512489600152
"293"	93	0.366822074777475	0.079271503775078	0.704102409915215	0.694207957130963	0.12435135124838	0.251561616509258
"294"	94	0.348367636886988	0.0773766484488728	0.658739641297348	0.707889215267071	0.121473095301543	0.302039000433961
"295"	95	0.326845262972881	0.07566097975867	0.613475508688331	0.717520789590196	0.117392127893763	0.355330864090184
"296"	96	0.303271984765716	0.0742494368499182	0.569357522277553	0.722518375198686	0.112265984130877	0.409984372483863
"297"	97	0.278763337722256	0.0732613426695422	0.527197948169616	0.722347811170381	0.106302348893958	0.46438761377944
"298"	98	0.254453482957288	0.0727991234106877	0.487586872526117	0.716570899609655	0.0997452192013245	0.51686229050328
"299"	99	0.231411601865928	0.0729403579573331	0.450933535807589	0.704861021390375	0.0928527351559073	0.565764192459884
"300"	100	0.210573851325933	0.0737291270625662	0.417502070535814	0.687035038692305	0.0858788304193147	0.609579050451619
"301"	101	0.209166759273914	0.0738121039757869	0.415202442480881	0.68549894926098	0.0853751989532308	0.612528558655489
"302"	102	0.196747227881314	0.0747600942971771	0.39445813920847	0.66946609085691	0.080694062856074	0.638523242103366
"303"	103	0.185902983945222	0.0759994923166367	0.375310773204999	0.650613188237229	0.076155488898447	0.661156548167169
"304"	104	0.176754590243739	0.0775076003171238	0.35776410906716	0.629018586479799	0.0718143553839481	0.680154561288394
"305"	105	0.169360407153703	0.0792496648298383	0.341799381356373	0.604810635487822	0.0677147444613723	0.695326886858266
"306"	106	0.163716102643186	0.0811794516236413	0.32737755461045	0.578165024169232	0.0638891747185835	0.706568309132379
"307"	107	0.159768242009671	0.0832406961166525	0.314451690770156	0.549287249135278	0.0603608147984012	0.713828120227683
"308"	108	0.157391731158265	0.0853657993885351	0.302946184157722	0.518444166430555	0.057139532629239	0.717165280554102
"309"	109	0.15641921500051	0.0874785539822582	0.292780911955942	0.485928583579425	0.054227179749534	0.716682995865979
"310"	110	0.156630284825269	0.0894945671570439	0.283858503046563	0.45207694068886	0.0516155030157483	0.712562972251312
"311"	111	0.157764377888853	0.0913235682218183	0.276071361815194	0.417257226358064	0.0492882684265093	0.705046666835201
"312"	112	0.15953328358414	0.0928695198754583	0.269311041374426	0.381859014139607	0.0472242897119235	0.694408365554223
"313"	113	0.161623059937311	0.0940364397202352	0.263458689956753	0.346292096563229	0.0453956058727827	0.680986579935614
"314"	114	0.163712565717765	0.0947262306292986	0.258403059218672	0.310969946235225	0.0437727881356429	0.665131423542207
"315"	115	0.165480796743457	0.0948455486928122	0.254033310096571	0.276301224370869	0.0423238778818958	0.647227424298732
"316"	116	0.166620564532922	0.0943076982074039	0.250245158667437	0.242676773523448	0.0410169440925745	0.627672783887989
"317"	117	0.16684459448434	0.093032691395299	0.246943391228758	0.210466484558885	0.039821801972567	0.606867716580853
"318"	118	0.165906793421683	0.0909593031293577	0.244036335082798	0.179993428144625	0.0387100344977214	0.585219467833242
"319"	119	0.163597733356119	0.0880381284367384	0.241441153272035	0.151547795415566	0.0376574305799442	0.56311828686234
"320"	120	0.15976700674875	0.0842446709245764	0.239078003410025	0.125360584516554	0.0366438006497302	0.540937757355175
"321"	121	0.154323804916002	0.0795784381188203	0.236871230847213	0.10160973609335	0.0356539495183792	0.519020715299112
"322"	122	0.147238096765679	0.0740646301888252	0.234748523389229	0.0804253305890557	0.0346778450735039	0.497673936491398
"323"	123	0.138559859471337	0.0677656368110243	0.232640455473696	0.0618644756123913	0.0337104979538153	0.477153651273883
"324"	124	0.128398551693223	0.0607732520156857	0.230481856259554	0.0459477121448958	0.0327518764337224	0.457668175721013
"325"	125	0.116940708431107	0.0532203376074126	0.228212977733419	0.0326300957380504	0.0318063354979949	0.43936248615368
"326"	126	0.104434655085732	0.0452766389630234	0.225780840953181	0.0218252587722321	0.0308820580477109	0.422322587909565
"327"	127	0.0911870849563048	0.0371507555150082	0.223140154656088	0.0134113401369612	0.0299904177157532	0.406577018755898
"328"	128	0.0775609510489922	0.0290900708222505	0.220256672071996	0.0072184857415924	0.0291448591384678	0.392088850133456
"329"	129	0.0639614090452294	0.0213789309556467	0.217105765849595	0.00306430911683495	0.0283605797068426	0.378776451307755
"330"	130	0.0508295230006343	0.0143332020881847	0.213677183363035	0.000732799716830985	0.0276529889136345	0.366504582031598
"331"	131	0.0386308105860144	0.00829776634211409	0.209974154016239	0	0.0270373770760584	0.35510395331611
"332"	132	0.0278477860721149	0.00364277157992463	0.206014919953409	0.000636016281129921	0.026528200129782	0.34437829644378
"333"	133	0.0189562202039403	0.000745126797378203	0.201834755497692	0.00240352765034249	0.0261376500854681	0.334111973416345
"334"	134	0.01243440754901	0	0.197482803303181	0.00507736666165594	0.0258764787156543	0.324087338676814
"335"	135	0.0087210003390014	0.0017837185731762	0.193023153693177	0.00843538641291704	0.0257518179393624	0.314091508869791
"336"	136	0.00822556086907126	0.00646397271219738	0.188530497119527	0.0122725621477475	0.0257681029379359	0.303930464142949
"337"	137	0.0113097659221229	0.0143822913965232	0.184088143874477	0.0164003622882998	0.0259263188182443	0.293437306839591
"338"	138	0.0182546881995768	0.0258227787333461	0.179784041541636	0.0206490776512833	0.0262229876565747	0.282483176077688
"339"	139	0.0292924322929352	0.0410384662782468	0.175709142919677	0.024870890725658	0.0266514463449162	0.270978016543497
"340"	140	0.044538325564642	0.0601853223121688	0.17195145993701	0.0289402679153789	0.0271997166561941	0.258881091403711
"341"	141	0.0640316860152494	0.0833550038821529	0.16859571080309	0.0327539624293082	0.0278519977978639	0.24619482305062
"342"	142	0.0877090169235376	0.110544442938625	0.165719420923903	0.036230523574757	0.0285879842345806	0.232965432574404
"343"	143	0.115387321097024	0.141633070249134	0.163387827989149	0.0393111076525416	0.0293829602924236	0.21927978257655
"344"	144	0.146805099618149	0.176416422891522	0.161656905716026	0.0419538011467265	0.0302087703241932	0.205254459479533
"345"	145	0.181567029290237	0.214545651621868	0.160561814204137	0.0441382509501411	0.031033888872567	0.191033803011449
"346"	146	0.219199373199461	0.255577037607289	0.160122588888735	0.0458577099365358	0.0318247211086014	0.17677735656905
"347"	147	0.259131425666776	0.29894960897202	0.160337922359898	0.0471199612253484	0.0325465330922143	0.162654281084562
"348"	148	0.30070685725069	0.343993926077496	0.161182781204812	0.047945845966913	0.033165253924021	0.148834131268311
"349"	149	0.343209185006606	0.389957267468167	0.162614115048092	0.0483628737912103	0.0336478455383871	0.135483970097122
"350"	150	0.385859552974954	0.436003189063516	0.164562216033551	0.0484096325662727	0.0339659918459943	0.122755880027043
"351"	151	0.427846169065397	0.481244377703862	0.16694129458068	0.0481276563247322	0.0340956845711595	0.1107898430933
"352"	152	0.468337543668753	0.524761292675987	0.169647414070381	0.047563064990485	0.0340201904734772	0.0997057405188049
"353"	153	0.506512434532629	0.565639232723204	0.172563421507466	0.0467644711820367	0.0337318109818444	0.0895997258195253
"354"	154	0.541557905534962	0.60296977217222	0.175564734208659	0.0457798168410041	0.0332314261479818	0.0805518752137916
"355"	155	0.572739338570569	0.635933630619211	0.178523031229503	0.0446580984658881	0.0325328607681986	0.0726097999522197
"356"	156	0.599372600623379	0.663772007188368	0.181312624199253	0.0434455874420488	0.0316604465309547	0.0658058027043766
"357"	157	0.620881459892531	0.685853323566111	0.183815669664043	0.0421865911728742	0.030651543140893	0.0601471656118276
"358"	158	0.636814994993884	0.701693115498756	0.185927981433114	0.0409222381412169	0.0295560049075248	0.0556196212908689
"359"	159	0.646823562856028	0.710926297781251	0.187560135697386	0.0396902166766934	0.0284356798455377	0.0521970077642476
"360"	160	0.650753088609512	0.713409967943945	0.188647540047626	0.0385240015504295	0.0273640983358524	0.0498284666561261
"361"	161	0.648565188995037	0.709131071272171	0.189145386360135	0.0374532363655071	0.0264254101560249	0.048457273098751
"362"	162	0.640406076288334	0.69827887532333	0.189035237222407	0.0365029749134819	0.0257126377117003	0.0480120026163482
"363"	163	0.626584457505938	0.681215792727449	0.188322631193038	0.0356937440351564	0.0253256505171853	0.0484127883201311
"364"	164	0.607538392295736	0.658436496040589	0.187032008837485	0.0350424542724059	0.0253715131921362	0.0495772249762359
"365"	165	0.583883773056777	0.630616776499171	0.185210334820859	0.0345606381392501	0.0259567669932543	0.0514132765313333
"366"	166	0.556322457331802	0.598510040360927	0.182914990834517	0.0342570321276689	0.0271915458169519	0.0538315749220434
"367"	167	0.525668394848995	0.562974387796192	0.180215313778411	0.0341360182436073	0.0291805071979577	0.0567394211921939
"368"	168	0.492793534492972	0.524913354651655	0.177185397413978	0.0341988816607193	0.0320221340806416	0.0600456824394191
"369"	169	0.458596548203879	0.485242090500441	0.173899524448581	0.0344448827196344	0.0358090530623111	0.0636625308486897
"370"	170	0.423983171771942	0.444870325765785	0.170431103678871	0.0348698459194389	0.0406147934314837	0.0675034299241473
"371"	171	0.3898241806255	0.404657509638575	0.166846742949584	0.0354691492073011	0.0465042595730213	0.0714877205871429
"372"	172	0.356931673416818	0.365395012052544	0.163206193667716	0.0362360902389628	0.0535187833913758	0.0755388876526285
"373"	173	0.326034232212788	0.32778292808131	0.159559951224402	0.037163525411141	0.0616806750463273	0.0795866905563406
"374"	174	0.297767831493626	0.292424397587698	0.155949256891722	0.0382444523170514	0.0709932331288562	0.0835672525362198
"375"	175	0.27263722621629	0.25979484660604	0.152406033590024	0.039471029143299	0.0814293355481529	0.0874246021695033
"376"	176	0.251046496151001	0.230271645181115	0.148954749019099	0.0408367656486723	0.0929455207834998	0.0911100833890603
"377"	177	0.233256017665502	0.20410012043873	0.145613292917287	0.042334811437499	0.10546794154436	0.0945847983892296
"378"	178	0.219412834879756	0.181423502168438	0.14239592530373	0.0439590661871834	0.118901906764396	0.0978190878179889
"379"	179	0.209557922214718	0.162292248896141	0.139316009395345	0.0457038615759161	0.133131531025094	0.100792976435897
"380"	180	0.203608393577918	0.146649960935387	0.136387761595285	0.0475627682724697	0.148016062475698	0.103498674501011
"381"	181	0.201420269230289	0.134390143777239	0.13363096926782	0.0495295404082886	0.163400451291105	0.105937633112871
"382"	182	0.202754313965357	0.125325289715097	0.131071576705496	0.0515960298346111	0.179110404409418	0.108124077168953
"383"	183	0.207331446645007	0.119235417725422	0.128745651289578	0.0537525696198162	0.194961368459878	0.110081914628258
"384"	184	0.214840997789704	0.11587391468308	0.126700963320753	0.0559869363299371	0.210760659779727	0.111844422852073
"385"	185	0.224943546642688	0.114967383553439	0.124995789063154	0.0582832934615689	0.226314168962698	0.113453382158249
"386"	186	0.237316824704793	0.116256425311369	0.123702277859247	0.0606223250667114	0.241429462286833	0.114954850014127
"387"	187	0.251633992866036	0.119472503878714	0.122899077222677	0.0629801141173502	0.255926825860935	0.116398024371927
"388"	188	0.267598285720791	0.124369580290352	0.122672447467032	0.0653284787099759	0.269640621078017	0.117830749165655
"389"	189	0.284937322317238	0.130717838936381	0.123110242718674	0.0676347757303488	0.282425907514472	0.119296852319725
"390"	190	0.303400718080723	0.138300614343863	0.124292948884934	0.0698627225151426	0.294167578605302	0.120832560986832
"391"	191	0.322770771697942	0.146926896918736	0.126295788160657	0.0719722024231841	0.304771584992126	0.122464465421456
"392"	192	0.342844879457148	0.156412680071836	0.129170846562437	0.0739218601188111	0.314182320917047	0.124205939035146
"393"	193	0.363443337815763	0.166591264230697	0.132951847435677	0.0756689291137858	0.322368029704593	0.126056657799383
"394"	194	0.384399560423319	0.177303320796827	0.137644415908892	0.0771714970839955	0.329326877796488	0.128001027076292
"395"	195	0.405556522447907	0.188393440872735	0.143220265733629	0.0783912870514581	0.335088847418981	0.130008003822922
"396"	196	0.426764588826139	0.199710433804035	0.149624123584519	0.0792925370480117	0.339702053001521	0.132032423462615
"397"	197	0.447876969626871	0.211100986905291	0.156760571076657	0.0798486224065127	0.343248604812204	0.134016363336662
"398"	198	0.468747785170537	0.222411606404397	0.16450732541699	0.0800390826444927	0.345825655044236	0.135891952207166
"399"	199	0.48923026930575	0.233487276476016	0.172712003419672	0.0798534441319058	0.347551154866834	0.137584669054282
"400"	200	0.50917802035304	0.244174921557212	0.181197892602218	0.0792924664661345	0.348559695877682	0.139018130740877
"401"	1	0.511261476762677	0.245282222731157	0.182108977612515	0.0792109722142767	0.348630451979792	0.139152083255393
"402"	2	0.546522083931512	0.263613420764251	0.198067146563949	0.0771204867376598	0.349003828138651	0.140798636952373
"403"	3	0.578366520519439	0.279129188057853	0.21290436321518	0.0739286589090505	0.348410804340543	0.140823310933719
"404"	4	0.605919495404519	0.291206765508687	0.225345735008375	0.0699061768880081	0.347833408903093	0.138958893748237
"405"	5	0.628464757255853	0.299610557720699	0.234377229146683	0.0653907098608236	0.348189875065782	0.135144942849376
"406"	6	0.645490011365573	0.304575156468915	0.239404333993158	0.06074543748067	0.350294581091718	0.129545332395413
"407"	7	0.656653320826922	0.306776006604866	0.240313308414375	0.0563186585369156	0.354831542551757	0.122519263328871
"408"	8	0.661767025776947	0.307228905585163	0.237459155652192	0.0524098469631369	0.362310965519241	0.114569806371281
"409"	9	0.660792646218797	0.307124088209922	0.231560243100206	0.0492429039289373	0.373021037257734	0.106267624270713
"410"	10	0.653874798486114	0.307658177524738	0.223559308744639	0.0469518477750616	0.386981217180511	0.0981785198139171
"411"	11	0.641432652437005	0.309871536971886	0.214493121291766	0.0455727313689808	0.403881976048016	0.0908007331077536
"412"	12	0.624189407116629	0.314502918142837	0.205356546232099	0.0450530399174559	0.42305816738363	0.0845205362469099
"413"	13	0.603166015124937	0.321854531247822	0.19699073203461	0.0452651697937597	0.443465487227001	0.0795861978195701
"414"	14	0.579566859427017	0.33168449724621	0.189976091229515	0.0460265932963739	0.463713156715792	0.076097612157688
"415"	15	0.554574766458621	0.343187005072693	0.184565254754847	0.0471261089941858	0.482171493330661	0.0740191927130504
"416"	16	0.529160905564726	0.355063898875706	0.180666439610925	0.0483476943684261	0.497148242831124	0.0731970390424479
"417"	17	0.503958989513477	0.365711215972926	0.177896126930786	0.0494946780529097	0.507099227304305	0.0733899003397206
"418"	18	0.47925105682706	0.373469031708666	0.1756863469411	0.0504076424566084	0.510810136813984	0.0743045946175873
"419"	19	0.455054727562503	0.376915298313696	0.173425257604528	0.0509767822077322	0.507564646436566	0.0756280351059657
"420"	20	0.431285089157763	0.375110518873466	0.170611194455897	0.0511452005670952	0.49719963033397	0.0770607989797998
"421"	21	0.40791946834815	0.367768484401576	0.166975081135399	0.0509070708606471	0.480119236354697	0.0783401036647347
"422"	22	0.385098523743178	0.35530415609539	0.162539509519462	0.0503023486146113	0.457256052342811	0.0792581594627254
"423"	23	0.363140995139028	0.338711738354329	0.157589337964069	0.049407082178438	0.42996158693331	0.0796720101222948
"424"	24	0.342492856059285	0.319378066883771	0.15258467022032	0.0483241096448197	0.399900338043668	0.0795082506045623
"425"	25	0.323654091164896	0.298854260546866	0.148043145399545	0.047171369894012	0.368896642619024	0.0787598616424985
"426"	26	0.30711453083967	0.278661046211681	0.14442780788046	0.0460707566587958	0.338771700619327	0.0774755663868365
"427"	27	0.293288477718324	0.260136848454404	0.142053876652466	0.045137728068883	0.311177224887724	0.0757483873151608
"428"	28	0.282471865944844	0.24433172564215	0.141037541058301	0.0444735412688928	0.287458992990674	0.0737003164385925
"429"	29	0.274795289264422	0.231939832588247	0.141281162421048	0.0441605500307898	0.268568559638768	0.0714715911989202
"430"	30	0.270178855191525	0.223249042778776	0.142495848618932	0.0442584108749263	0.255025197481314	0.0692112412439155
"431"	31	0.268320169055317	0.218147266274574	0.144263919395301	0.0448034321364254	0.246968010815546	0.0670681643223331
"432"	32	0.268693246188984	0.216159139736976	0.146116582085153	0.0458067728451882	0.244215277743662	0.0651824374985071
"433"	33	0.27059233341763	0.216540613139497	0.147617952189706	0.047254878110643	0.24633901949484	0.0636752563856062
"434"	34	0.273212736893717	0.218398809848433	0.14842947774871	0.0491115425486358	0.252723125679942	0.0626401337079174
"435"	35	0.275761951211091	0.220805813032874	0.148352907846487	0.0513187959787128	0.262579352346361	0.062132751374944
"436"	36	0.27759886376935	0.222917373130891	0.147347733898302	0.0538023369981053	0.274989955352209	0.0621657892947915
"437"	37	0.278360303770062	0.224073178434386	0.145535768931277	0.056476980075399	0.288931120854399	0.0627054724485476
"438"	38	0.278044380472656	0.223879650872494	0.143188746852211	0.059253388439256	0.303292092731297	0.0636725809181507
"439"	39	0.277005458983602	0.222240907827144	0.140685126317864	0.0620460028586403	0.31689559276938	0.0649519205659562
"440"	40	0.275876013815343	0.219343810625681	0.138443212391093	0.0647795819453295	0.328536937504543	0.0664043881126042
"441"	41	0.275444684322923	0.215600579533935	0.13683883728603	0.0673935382528295	0.337079567109248	0.0678843030132931
"442"	42	0.276535818819704	0.211573263385788	0.136133602922198	0.0698398209581659	0.341594685973959	0.0692571730507456
"443"	43	0.279881635528903	0.207891506444005	0.136421752660956	0.0720747913073294	0.341547325297026	0.0704155374769637
"444"	44	0.28599603220647	0.205153787227881	0.137615301753925	0.0740473833651108	0.336918686033483	0.0712887927187985
"445"	45	0.295053299851596	0.203820980179084	0.13945940013026	0.0756912177291419	0.328237537828543	0.0718462458606214
"446"	46	0.306799639577737	0.20411663738324	0.141573834343149	0.0769261689051964	0.316492428156363	0.0720951781666785
"447"	47	0.320556109584256	0.205977585289741	0.143513176292422	0.0776686627972804	0.302923762669649	0.0720727213203111
"448"	48	0.335291334501322	0.209049180945812	0.144827746000168	0.0778546397919776	0.288801791877157	0.0718371215995627
"449"	49	0.349769598078198	0.212731750612327	0.145122923321034	0.0774690365968825	0.275218213663649	0.0714569664454707
"450"	50	0.362723415162961	0.21625474533778	0.144103051311299	0.0765739742646836	0.262945155899619	0.0710001876331815
"451"	51	0.373035245675598	0.218766832394717	0.141607133163783	0.0753290519832622	0.252369361181022	0.0705253280586668
"452"	52	0.379890936068118	0.219444264809242	0.137624447474823	0.0739846583274284	0.243523256412704	0.0700756178003333
"453"	53	0.382891542666591	0.217607355714979	0.13230295396235	0.0728490737589763	0.236191521048078	0.0696774751839016
"454"	54	0.382127093404285	0.212839138058843	0.125948169874906	0.0722341400330963	0.230061044059718	0.0693429489393153
"455"	55	0.378160852293267	0.205054029420721	0.118994605180902	0.0723986549873145	0.224878713801195	0.069076199169857
"456"	56	0.371961127383322	0.19453107652892	0.111959665013734	0.073498345147664	0.220547004074387	0.0688813553255352
"457"	57	0.364772935820677	0.181879289059179	0.105372665798013	0.0755528280603607	0.217141051730231	0.068769730169702
"458"	58	0.357986013728377	0.167938061946621	0.0996998428139001	0.0784372932092436	0.214859720171174	0.0687651242710716
"459"	59	0.353021766686517	0.153647956669457	0.0952747856750283	0.0818933880652575	0.213939058271995	0.0689054519127093
"460"	60	0.351225287925352	0.139906022578327	0.0922540868291867	0.0855680256172296	0.2145732867626	0.0692407313887127
"461"	61	0.353739022771624	0.127451319258266	0.0905965152379934	0.089063995069233	0.216855707007044	0.0698271408314624
"462"	62	0.361326407000346	0.116781884821055	0.0900634399965957	0.0919964789702112	0.220739871606727	0.0707169249353583
"463"	63	0.374230237923387	0.108126947405919	0.0902583842680157	0.0940400623027786	0.226030035966208	0.0719478097785432
"464"	64	0.392045903527133	0.101455749646441	0.0906932933664579	0.0949625717893239	0.232367710221444	0.0735302872372835
"465"	65	0.41366412124562	0.0965267162845333	0.0908901347859571	0.0946434085826066	0.23922499837075	0.0754369561748133
"466"	66	0.437299963574857	0.0929663780837561	0.0904973409225846	0.0930772209094702	0.245906376774197	0.0775957056092744
"467"	67	0.460609178859074	0.0903490519253245	0.0894022343384749	0.0903803033224202	0.251568806408445	0.0798839330895556
"468"	68	0.480934713013428	0.0882761344135916	0.0878101533797399	0.0867900626749231	0.255275865097724	0.0821265908354775
"469"	69	0.495624398147259	0.0864266396627289	0.0862795013939493	0.0826691625385474	0.256086293965487	0.0840965203635381
"470"	70	0.502428162559898	0.08458161744886	0.0857059549111861	0.078509349136829	0.253189025634371	0.0855245647199082
"471"	71	0.499850362485599	0.0826280604677183	0.0872619712980217	0.0749306198548851	0.24602761117205	0.0861190748948329
"472"	72	0.487459197003514	0.0805468717332085	0.0922959470831635	0.072683103864954	0.234428203535348	0.0855996340271258
"473"	73	0.466026002611741	0.0783913139963298	0.102192746736738	0.072643083277691	0.218685921699893	0.0837423746386304
"474"	74	0.43741574424811	0.0762605498588066	0.11823221477631	0.0758102609906715	0.199578511153693	0.0804279609583024
"475"	75	0.404309341769746	0.0742750515517892	0.141416634924362	0.0832753466407747	0.178334615425642	0.0756996461253881
"476"	76	0.369746643977148	0.0725585538816599	0.17234643707479	0.0961755809701555	0.156513614347698	0.069808647396321
"477"	77	0.33667591721276	0.0712296489558286	0.211135752292754	0.115619660430101	0.135843289644927	0.0632490077537271
"478"	78	0.307559516103942	0.0703981138556833	0.257349088282335	0.142541145172911	0.11801722810773	0.0567732145025014
"479"	79	0.284120801666518	0.0701658422763998	0.310049751056321	0.177565473198304	0.10450115820565	0.0513767302538252
"480"	80	0.267223550822597	0.0706224652868437	0.36785129769975	0.220822157626601	0.096359183136765	0.04825568696842
"481"	81	0.256877903596626	0.0718355185908443	0.429014254742055	0.27176654595783	0.0941241802819144	0.048724547756413
"482"	82	0.252373474227101	0.0738385136172062	0.491548042103063	0.329065106428246	0.0977523172945099	0.0541166907234603
"483"	83	0.25243899943106	0.0766133631779606	0.553271030919234	0.390525061183384	0.106610554470308	0.0656399981388369
"484"	84	0.255448231492558	0.0800791177384649	0.611865785617882	0.453181554393405	0.119553270451006	0.0842421085786344
"485"	85	0.259603480842402	0.0840852017939291	0.664919713259129	0.513483433361208	0.135037594239249	0.110487370665182
"486"	86	0.26311483371454	0.0884100582657234	0.710025877930445	0.567592695962171	0.151273700280171	0.144420851863703
"487"	87	0.264388074217299	0.092772191109243	0.744876291451245	0.611720665272416	0.16642645837741	0.185530470630026
"488"	88	0.262197907696328	0.0968457467746383	0.767408128166222	0.642505707290664	0.1788172126274	0.232717966528269
"489"	89	0.255836206094097	0.100284569474267	0.775976166677452	0.65741523608152	0.187124059052583	0.284338577439007
"490"	90	0.245178863839081	0.102747755645956	0.769502275669558	0.655049201759365	0.190514498947484	0.338309140670027
"491"	91	0.230702184931916	0.103931076735821	0.747733609655618	0.635427414279425	0.188723489738155	0.392239305734816
"492"	92	0.213405785992436	0.103595100170953	0.711419157008307	0.600004229708761	0.182021642173216	0.443617925708582
"493"	93	0.194666001447588	0.101589859091915	0.662390867984652	0.551454066115745	0.171105657100012	0.490011271218404
"494"	94	0.176032680095911	0.0978861487292751	0.603509352711832	0.493336294105533	0.156969144816866	0.529318162171515
"495"	95	0.158995602294149	0.0925895339298596	0.53828064513179	0.429579800941625	0.140740301440247	0.5599838429723
"496"	96	0.14479381331437	0.0859585878613206	0.470425062485675	0.364066611011691	0.123564751847969	0.581180021886202
"497"	97	0.134283401024129	0.0784145209965821	0.403439194285119	0.300261402798866	0.106500715063534	0.592850083511392
"498"	98	0.12789673934545	0.0705389495799923	0.340286634171925	0.240962438493265	0.090435187116554	0.595540432960987
"499"	99	0.125642953403827	0.0630648432738149	0.283238117450393	0.188167969603138	0.0760218617520106	0.590156473125241
"500"	100	0.127166898031582	0.0568479961879244	0.233851207127221	0.143072759186766	0.063648624205006	0.577657317560783
"501"	101	0.127354707692525	0.0565520725668575	0.231300915377465	0.140758481938763	0.0630116448762115	0.576752259726398
"502"	102	0.128756486670666	0.0548688138775725	0.215946099822333	0.126850201059954	0.0591768369554594	0.570618498048123
"503"	103	0.130515466052666	0.053513402599024	0.201707039542536	0.113984750695521	0.0556152594904022	0.56372171278379
"504"	104	0.132593486884103	0.0525289737830183	0.188597182686015	0.102155092786612	0.0523209229343099	0.556086198808345
"505"	105	0.134951221348328	0.0519590762113224	0.176624829555371	0.0913489261440606	0.0492853490859371	0.547731303086801
"506"	106	0.137547866797254	0.0518464761151724	0.165790882663186	0.0815468539783468	0.0464972593069042	0.538673866626308
"507"	107	0.140340665257234	0.0522289111910954	0.156081421308187	0.0727164381017896	0.0439414336044154	0.528933693051082
"508"	108	0.143288295882153	0.0531438163403758	0.147481324698129	0.0648245552280777	0.0416020292832767	0.51852644886272
"509"	109	0.146350549234712	0.0546286041531415	0.139974347467762	0.0578373456843067	0.0394626703955898	0.507465080205207
"510"	110	0.149487620226313	0.056713469653486	0.133530875000476	0.0517104419181633	0.037504584191969	0.495768425475963
"511"	111	0.152661965358235	0.0594243349501086	0.128116253055341	0.0463964680579693	0.0357086694397533	0.483457503567418
"512"	112	0.155838684846805	0.0627838957059967	0.123693501579725	0.041847439863338	0.0340562252309898	0.470555101401039
"513"	113	0.158985254589037	0.0668144575015797	0.120227464489737	0.0380179363050158	0.0325296431478282	0.457084418474831
"514"	114	0.1620726864113	0.0715233508965618	0.117665624811765	0.0348511563769254	0.0311103145716986	0.443081401912729
"515"	115	0.165075248224007	0.0769162798075533	0.115958595526914	0.0322947553665783	0.0297817008286561	0.42858327956003
"516"	116	0.167970210429199	0.0829939300789965	0.115055323882713	0.0302972745987873	0.0285288056596194	0.413632049667378
"517"	117	0.170737920220483	0.0897498945324725	0.114901196177133	0.0288070338082742	0.0273382155098402	0.3982759910172
"518"	118	0.173362767166537	0.0971657644042022	0.115433950724767	0.0277698119168367	0.0261981090212928	0.382571684412707
"519"	119	0.17583143492342	0.105218816545834	0.116592710945314	0.027135140318197	0.0250991763993608	0.366578904030538
"520"	120	0.178132294188521	0.113881375897428	0.118316956454212	0.0268555530222973	0.0240345957212999	0.350361412598533
"521"	121	0.180257043917196	0.12311370495455	0.120540373780586	0.0268828860686505	0.0229998218977492	0.333988840382425
"522"	122	0.182199343860753	0.132868849266934	0.123196008160996	0.0271716605523172	0.0219929972486883	0.317533328884261
"523"	123	0.183954049692703	0.143093997478104	0.126217402816306	0.0276797237557671	0.0210150539205115	0.301068617272629
"524"	124	0.185516014607229	0.153731835876094	0.129539345616987	0.0283686447765629	0.0200699533568341	0.28467048411675
"525"	125	0.186883924972888	0.164712840263746	0.133092549857771	0.0292004206053421	0.0191640177299327	0.268413801933316
"526"	126	0.188056195076947	0.175964920242852	0.136810797619467	0.0301415508609918	0.0183065185038072	0.252372358697509
"527"	127	0.189031760516065	0.187411166934013	0.140629006399208	0.0311617129027229	0.0175095849943944	0.23661871952144
"528"	128	0.189810555309335	0.198969703507029	0.144483120931445	0.032233446683238	0.0167880783958364	0.221223045433734
"529"	129	0.190394950668266	0.210554988723647	0.148311260139599	0.0333321481691072	0.016158738296488	0.206248835085017
"530"	130	0.190787615450709	0.222080295414177	0.152054668450408	0.0344365766476924	0.0156408345265424	0.191756321100038
"531"	131	0.190991764014157	0.233456981425654	0.155656917861465	0.0355282786636677	0.0152563804366242	0.177803196802321
"532"	132	0.191013561879363	0.244597576490664	0.159066119291733	0.0365916557569824	0.0150283441715466	0.164437794616858
"533"	133	0.190860980745253	0.255417347871072	0.16223513257036	0.0376139356109226	0.0149809525872019	0.151701771432591
"534"	134	0.190543641682352	0.265834652008633	0.165121215765496	0.0385848246183982	0.0151398498329691	0.139631564198556
"535"	135	0.190072516710198	0.275768973725657	0.167684334061316	0.039495915548574	0.0155332152450014	0.128261978027244
"536"	136	0.189463264395146	0.285152979396441	0.169894510035399	0.0403418102466815	0.0161863396023731	0.117611397249616
"537"	137	0.188733104737929	0.293924370102669	0.171725615854333	0.0411187104736777	0.0171258751016135	0.107696247499314
"538"	138	0.18790188552556	0.302028350471098	0.173156621318481	0.0418244173319545	0.0183787456298431	0.0985282579079607
"539"	139	0.186992498896823	0.309420086914258	0.17417261927259	0.0424583063464678	0.019971135051091	0.090112962678024
"540"	140	0.186031004755635	0.316071087893373	0.174767932561078	0.0430216317568649	0.0219253477569447	0.0824447723474787
"541"	141	0.18504543134336	0.321961422656669	0.174941190016547	0.0435164844906436	0.0242632773608437	0.0755161208555131
"542"	142	0.184066011787801	0.327079465872526	0.174695100911226	0.0439456438211902	0.0270064546812838	0.0693177621896916
"543"	143	0.183124592008852	0.331430768467169	0.174041035559136	0.0443131550926554	0.0301709046140619	0.0638308183485254
"544"	144	0.182253596662548	0.335032121349865	0.172995540022168	0.044623642886889	0.0337693087350617	0.0590326102837858
"545"	145	0.181485565074179	0.337908881244081	0.171578882922891	0.0448820212459802	0.0378117202254513	0.054898783557784
"546"	146	0.180853450030473	0.340091148957527	0.169813191915581	0.0450932010664891	0.042307406363393	0.051406416971031
"547"	147	0.180386689472487	0.341626641478935	0.167728867842469	0.0452628901733663	0.0472550634200526	0.0485214793119142
"548"	148	0.180112919978937	0.342564489077287	0.165356441730723	0.0453964506265648	0.0526519272143893	0.0462128658862959
"549"	149	0.180056921213065	0.342957579550319	0.162727916375733	0.0454990854342536	0.0584914427683573	0.0444494970654265
"550"	150	0.180239376027788	0.342862629458585	0.159876871384976	0.0455758412714616	0.0647619345399733	0.0431993320824946
"551"	151	0.180674195619502	0.342341228391302	0.156838849951086	0.0456316341211706	0.0714436645685548	0.0424267195744081
"552"	152	0.181370693475745	0.341452696248533	0.153648115026799	0.0456708847647453	0.0785138199029338	0.0420987369437635
"553"	153	0.182333309428772	0.340254059560232	0.15033781090748	0.0456975677393649	0.0859460320648575	0.0421848099166342
"554"	154	0.183558148740762	0.338802362365076	0.146940763467935	0.0457153150531389	0.0937062849426948	0.0426522802142418
"555"	155	0.185034740871641	0.337150727620363	0.143487746088482	0.0457272642098645	0.10175609069358	0.0434699517801431
"556"	156	0.186746729489423	0.335347291672589	0.140007112194994	0.0457360617121527	0.110053391258129	0.0446089699031725
"557"	157	0.188672782236422	0.33343472070692	0.136524914671956	0.0457439078232975	0.11855320661152	0.046043899209255
"558"	158	0.190782687477573	0.331451603154771	0.13306453546416	0.0457525813535392	0.12720424269305	0.0477469091662494
"559"	159	0.193042617444361	0.329429619605594	0.129646404523068	0.0457634451296846	0.135954055160517	0.0496941173424744
"560"	160	0.195414412299751	0.327394397418629	0.126288329019158	0.0457775167353786	0.144748015901035	0.0518638517015172
"561"	161	0.197855925293866	0.325365579176788	0.123005484633554	0.0457955094175701	0.153529619877306	0.054235992568162
"562"	162	0.200322147668023	0.323356632912563	0.119809823458079	0.0458178448168731	0.162242181825037	0.0567907846815723
"563"	163	0.202767224223537	0.321375288556577	0.116711164654973	0.0458447512763569	0.170829642870436	0.059511056463111
"564"	164	0.205144682820637	0.319424189931062	0.113717671640754	0.0458763182369881	0.17923627917401	0.0623816973196334
"565"	165	0.207409563978431	0.317501135012727	0.110834905642508	0.0459124859743812	0.187409846800834	0.0653877890775939
"566"	166	0.209519894058645	0.31560013306757	0.108066797854749	0.0459531172405809	0.195302064693455	0.0685156550203465
"567"	167	0.211437426909031	0.313712432845689	0.105416288546758	0.0459980375781428	0.202868741510367	0.0717528712197877
"568"	168	0.213127296420217	0.311827445307969	0.102886263666782	0.0460470709720876	0.210068450110595	0.0750883124271941
"569"	169	0.214564165645717	0.309933891607409	0.100477387544006	0.04609996698886	0.2168713930539	0.0785099774130918
"570"	170	0.215728681240247	0.308021106986892	0.0981909267791777	0.0461564915350192	0.223252851043399	0.0820068624683531
"571"	171	0.21660901961446	0.306079998990465	0.0960285439003282	0.046216402946839	0.229195179113135	0.0855681025234826
"572"	172	0.217202263363434	0.30410414875897	0.0939923347965715	0.0462794366619109	0.234689460931908	0.0891825245082477
"573"	173	0.217516865727915	0.302091060774268	0.092084225774433	0.0463452785631577	0.239739183701663	0.0928382150030614
"574"	174	0.217569415187502	0.30004245101985	0.090307684502264	0.0464135911626596	0.244355231717075	0.0965229472041444
"575"	175	0.217384970333355	0.297964830579504	0.0886680411085863	0.0464839950609795	0.248556200538646	0.10022372941779
"576"	176	0.216999647168921	0.295870256397595	0.0871711353350942	0.0465560340078909	0.252373138736298	0.103926471905559
"577"	177	0.216458070241254	0.293776148293684	0.0858243539066128	0.0466291866651494	0.255845895160377	0.107616178235085
"578"	178	0.215812490433487	0.291705305027991	0.0846371216669443	0.0467028619528475	0.259021767673766	0.111276800738328
"579"	179	0.215122745801851	0.289686410313448	0.0836219488006933	0.0467763857419351	0.261954399201209	0.114890739067046
"580"	180	0.214455943352624	0.287752499124361	0.0827908510263715	0.0468490093197548	0.264707491440675	0.118439938532612
"581"	181	0.213884001295807	0.285941278441341	0.082158791691895	0.0469199175474175	0.267348116115511	0.121905132891107
"582"	182	0.213483745120129	0.284294771036324	0.0817430388448828	0.046988227318799	0.269947496986567	0.125265892385749
"583"	183	0.21333572986797	0.282858403891908	0.0815626665659912	0.04705300158242	0.272580125828875	0.128500906034892
"584"	184	0.213520014580036	0.281677966755471	0.0816364944127349	0.0471133046778083	0.275320956071936	0.131589362825392
"585"	185	0.214117544733883	0.280800892308761	0.0819855294412297	0.0471681844267491	0.278244098630639	0.134509795870103
"586"	186	0.215210475730202	0.280276149620963	0.0826331401180561	0.0472166754707602	0.281422812662968	0.137239918066788
"587"	187	0.216874893836438	0.280148930770395	0.0836012581068629	0.0472578995834076	0.284924807491064	0.139759182764049
"588"	188	0.219181727309339	0.280461236852454	0.0849117295956239	0.0472910587156637	0.288811452587911	0.142048124898315
"589"	189	0.222197164674264	0.28125189629575	0.086586745754787	0.0473154356949751	0.293137429757551	0.144088119916983
"590"	190	0.225985827479138	0.282558330516426	0.0886504811103888	0.0473303625876918	0.297952290598092	0.145860262052694
"591"	191	0.230593031505567	0.284404511165807	0.0911203784441663	0.0473354417734077	0.303288624189878	0.14735141479111
"592"	192	0.236059342690082	0.286810510930058	0.0940145368447331	0.0473303712008887	0.309170882386076	0.148549105003794
"593"	193	0.242416687230887	0.289789651765367	0.0973496948641231	0.0473149989669075	0.315612719042783	0.149442848335866
"594"	194	0.24968538408556	0.293346413425678	0.101139749874413	0.0472893648842325	0.322614961077382	0.1500250882434
"595"	195	0.257866796695448	0.297471821553407	0.105391933686875	0.047253785674122	0.33016137353474	0.150293638105563
"596"	196	0.266953389453093	0.302149846372795	0.110111625130687	0.0472087474360554	0.338225246121386	0.150248172544417
"597"	197	0.276928175783563	0.307356874878798	0.115302046793514	0.047154927894331	0.346769075102584	0.149890259372589
"598"	198	0.287754180311867	0.313055572806454	0.120958416393335	0.0470933078000294	0.355739504395538	0.149226959242854
"599"	199	0.299381147587321	0.319199339247489	0.127070947057479	0.047025100095854	0.365072266883476	0.148268462956497
"600"	200	0.31174769963523	0.325733817800584	0.133625694353252	0.0469517333433734	0.374694100151218	0.147027221645527
"601"	1	0.313783155892504	0.326807784438689	0.1347105542834	0.0469396655360204	0.376249501038053	0.146804033233519
"602"	2	0.347497682929957	0.344443528573145	0.152970493208781	0.0467455122837289	0.400943399916864	0.142489859752321
"603"	3	0.383747329648042	0.362868344079933	0.173349613835828	0.0465631882240971	0.425376471395273	0.136839712937464
"604"	4	0.420711453716647	0.380778805979757	0.19517036083777	0.0464281892085608	0.448034720280542	0.1302109435318
"605"	5	0.456368020371081	0.396874702580962	0.217559700194886	0.046375171902167	0.467521359030524	0.122981329331741
"606"	6	0.488675253084192	0.410022136038351	0.239491997753807	0.0464313075002282	0.482744694942484	0.115511555988342
"607"	7	0.515740582008494	0.419375894743131	0.259849184505427	0.0466099251622864	0.493037968024796	0.108115037465173
"608"	8	0.536005930056422	0.424478575413764	0.277506926713332	0.0469044247627879	0.498242342451153	0.101039860364202
"609"	9	0.548369347143282	0.425275273814443	0.291426937018273	0.0472857455346979	0.498670090380184	0.0944619412320293
"610"	10	0.552277923015191	0.422086767411924	0.300750558566888	0.0477028811342416	0.495014636870133	0.0884896214850936
"611"	11	0.547824181740857	0.41556505715706	0.304906392288455	0.0480870850702089	0.488239195983638	0.0831725563911812
"612"	12	0.535740064085586	0.406604753887749	0.303658657945609	0.048359114457731	0.479433835693906	0.0785197358390298
"613"	13	0.517404554917064	0.396274624855877	0.297161999490014	0.0484384761477599	0.469713334969846	0.0745135699517661
"614"	14	0.494742559316538	0.385721229431097	0.285955596149778	0.0482534723109538	0.460114574121188	0.0711254038336227
"615"	15	0.470065572979038	0.37607127503216	0.270912542251563	0.0477494061316236	0.451520260714617	0.0683293884968873
"616"	16	0.445885458488304	0.368327812635729	0.253188351019765	0.0468976837121276	0.444591954072832	0.066108162662051
"617"	17	0.424678517555278	0.363286970534274	0.234105634429057	0.0456996710921658	0.439730811996784	0.0644606173118353
"618"	18	0.408653871874636	0.36146418040333	0.215051220913963	0.0441909038179406	0.437054884046659	0.0634012429416597
"619"	19	0.399512007244608	0.363037721077858	0.197351012440275	0.0424428646975904	0.436401333632202	0.0629559719748543
"620"	20	0.398288024181315	0.367845023976448	0.182162530365221	0.0405616413088271	0.437361868075653	0.0631577621799663
"621"	21	0.405214972702622	0.375396986725598	0.170378400260749	0.0386861635805841	0.439325550337361	0.0640349220397568
"622"	22	0.419733502981211	0.384962057129322	0.162576563476331	0.0369826115115861	0.441557368174643	0.0656022505609525
"623"	23	0.440575677301105	0.39567311649627	0.159007171844735	0.0356377238690867	0.443285535762943	0.067850414727343
"624"	24	0.465900530814465	0.406642884484714	0.159593703761269	0.0348470566545039	0.443803338304492	0.0707336261806606
"625"	25	0.49351832657588	0.417062417035425	0.163996100596974	0.0348041910726836	0.442558876419215	0.0741651596580639
"626"	26	0.521083706846408	0.426250578776787	0.171659523825482	0.0356842603600294	0.439225509296168	0.0780111226553468
"627"	27	0.546313394174	0.4336711415451	0.181891613198589	0.0376274942439642	0.433725885388931	0.082091917149733
"628"	28	0.567170858779449	0.438921965170735	0.193943495679737	0.0407262936384787	0.426204854923758	0.086189019487279
"629"	29	0.582059342637532	0.441730688099686	0.207068124586617	0.0450046262858174	0.416983780347331	0.0900576587865346
"630"	30	0.58992630019154	0.441923443298717	0.220579061432191	0.0504115705664038	0.406473615216009	0.0934450435390838
"631"	31	0.590321751809211	0.439411664351803	0.233872474323417	0.0568115435077991	0.395101208148206	0.0961112653378032
"632"	32	0.583382571208048	0.434189518681213	0.246435527066032	0.0639820335702526	0.383248896507004	0.0978538996604778
"633"	33	0.56971611777087	0.426320510830705	0.257835982205184	0.0716233768452123	0.37121951511677	0.0985266049656657
"634"	34	0.550314144591785	0.415947012187974	0.267712685625176	0.0793717119677458	0.359233262300827	0.0980617031807023
"635"	35	0.526417947460201	0.403289362758944	0.27576496510084	0.0868251620085139	0.347444658780551	0.0964796492218195
"636"	36	0.499412899219823	0.388656524030123	0.281751756207747	0.0935734253432109	0.335972354808981	0.0938902356639428
"637"	37	0.470742888170482	0.37246026865122	0.285512182924433	0.0992379750853788	0.324925677047706	0.0904863472761019
"638"	38	0.441812127549332	0.35519595358582	0.28697232594312	0.103507704258433	0.314427438326242	0.0865189325412641
"639"	39	0.413914375950102	0.33741237672736	0.286164864309437	0.106179282344336	0.304626854155278	0.0822731147528147
"640"	40	0.388156355935503	0.319655957053936	0.283229940256383	0.107186460463481	0.295705876898055	0.0780382878645003
"641"	41	0.365409178663298	0.302420012381844	0.278398453663423	0.106608348317956	0.287879206265291	0.074081837410147
"642"	42	0.346258070016136	0.286104798589428	0.27198247207531	0.104671449638435	0.281371469308146	0.0706253825742581
"643"	43	0.331000410889417	0.27099655184397	0.264339341877471	0.101719258613198	0.276392112097534	0.0678295294086221
"644"	44	0.319647133416999	0.257253565422126	0.255836942822116	0.0981799549027306	0.273102453788221	0.0657850175182249
"645"	45	0.31193909671386	0.244899262008236	0.24681000330048	0.0945246893924195	0.271587195990219	0.0645101852382923
"646"	46	0.307404822103283	0.233840519907004	0.23752115147668	0.0912243941918452	0.271847749842245	0.0639600140797141
"647"	47	0.305414467611393	0.223894740941861	0.228142324186283	0.0887104273691488	0.273793193377631	0.0640345433819265
"648"	48	0.305277174718035	0.214838870978978	0.218751457104285	0.087341528604054	0.277250611075479	0.0645954220942706
"649"	49	0.306336133976121	0.206455076320001	0.20934686878029	0.0873825033363921	0.281977512719885	0.0654821102242363
"650"	50	0.30804767942936	0.198559172404252	0.199872426977885	0.0889831014009912	0.287670112609691	0.066526894605894
"651"	51	0.310042580507793	0.191017425757655	0.190246447156697	0.0921788935293615	0.293980830438082	0.0675712200659658
"652"	52	0.312136515989917	0.183745176991009	0.180387929475541	0.0968882988738909	0.300522510491533	0.0684774056443991
"653"	53	0.314293500716262	0.176696085530693	0.170232363727147	0.102919370293338	0.306873367994326	0.0691385481840358
"654"	54	0.316553376301094	0.169843454113241	0.159730281198095	0.109982608551783	0.312581128086531	0.0694833763742846
"655"	55	0.318952589409257	0.163160934911634	0.148838043148305	0.117698101466732	0.3171852844055	0.0694800620092548
"656"	56	0.321463778493634	0.156615022939435	0.137507407735872	0.125616411199642	0.320252750301935	0.069134535598716
"657"	57	0.323961482889001	0.150170099064342	0.125686870995328	0.133234951560487	0.321426399565911	0.0684882752866275
"658"	58	0.326212975026078	0.14380576323496	0.113336998256138	0.140019844086017	0.320475254836043	0.0676142043052454
"659"	59	0.327890940621813	0.137540929877021	0.100454866697753	0.145423312331689	0.31731016585345	0.0666091580033911
"660"	60	0.328616200062965	0.131454005753171	0.0871111821575021	0.148909854657239	0.311985973327977	0.0655864986805847
"661"	61	0.328027749774024	0.125688907461328	0.0734871006645403	0.149985059274526	0.304668534926048	0.0646660662017883
"662"	62	0.325864681864492	0.120442086922942	0.0599095775092904	0.148231539993153	0.295592255622632	0.0639645100669864
"663"	63	0.322048208040914	0.115930407185744	0.0468765905406078	0.143375510491981	0.28502335747345	0.0635839181474521
"664"	64	0.316716869218904	0.112356915410886	0.035069087481629	0.135334767634307	0.273209579013379	0.0636032995669679
"665"	65	0.310238572965443	0.109872333418749	0.0253453710127824	0.12428930347998	0.260354144584071	0.0640692843103001
"666"	66	0.303190995135661	0.108544058991567	0.0187140188722661	0.110728415783615	0.246600358090115	0.0649887518009832
"667"	67	0.296328565302428	0.108341407952544	0.0163049658629711	0.0954599070609587	0.23203036335759	0.0663251727739335
"668"	68	0.290539001069174	0.109126334881768	0.0192950595718837	0.0795971389285097	0.216686611679752	0.0679944356468949
"669"	69	0.286777714708413	0.110668835005331	0.028851884892439	0.0644963319389979	0.200601198061215	0.0698681863690693
"670"	70	0.285976227665072	0.112669330946967	0.0460488687719806	0.0516848726560532	0.183840308989738	0.071778782215953
"671"	71	0.288921478847456	0.114792467932786	0.0717479986574706	0.0427599276488757	0.166554003756552	0.0735294317712369
"672"	72	0.296163399935707	0.11670802565401	0.106532295459878	0.0393022471367127	0.149016977067695	0.0749078300623713
"673"	73	0.307916734675715	0.118130048645173	0.150574579256115	0.0427594012376788	0.131654991361114	0.0757050427639734
"674"	74	0.324018705358135	0.118849095588832	0.203561556715592	0.0543518525202122	0.115040372588034	0.0757371581361772
"675"	75	0.343928767612363	0.118749098593773	0.264639258205409	0.0750033872727541	0.0998654543792652	0.074866720221075
"676"	76	0.366743969594377	0.117817132667985	0.332340665035409	0.10522394056818	0.086881891155949	0.0730308568275688
"677"	77	0.391288507290392	0.116133611443288	0.404640044342341	0.145102629357605	0.0768380774185861	0.0702589968037653
"678"	78	0.416205772036999	0.113858197730216	0.479000397521224	0.19425282384551	0.0703962340223048	0.0666941393052544
"679"	79	0.440087319957302	0.111202910407001	0.552512455480479	0.251805915165024	0.068050044508278	0.0626049257212013
"680"	80	0.461595813784668	0.108397828063335	0.622073301738049	0.316459781728035	0.0700711501537686	0.0583877322507468
"681"	81	0.479585027620405	0.105658704949082	0.684622419925727	0.386488927218711	0.0764418570823097	0.0545608036071453
"682"	82	0.493164967306292	0.103158516960931	0.73736906852584	0.459835192727363	0.0868486624171176	0.0517449231300362
"683"	83	0.501723969616994	0.101009934989643	0.778009111496594	0.534175763473691	0.100684674590684	0.050636981710965
"684"	84	0.504926785724434	0.0992566080003793	0.804947786655787	0.607023761181684	0.117075798591539	0.0519651538874476
"685"	85	0.502646459249548	0.0978778215013901	0.817360883553982	0.675838308117759	0.134953900741781	0.0564511909832435
"686"	86	0.494931990889803	0.0967992049321331	0.815275268415538	0.738145547705779	0.153130182885204	0.0647495797163523
"687"	87	0.481968087396301	0.0959118519946006	0.799497553047049	0.791660951885467	0.170397971431998	0.0773955377455779
"688"	88	0.464056721388834	0.0950937393033983	0.771461775810708	0.834388525794879	0.185628089370062	0.0947647134728755
"689"	89	0.44165155655875	0.0942301837618783	0.733113628979859	0.864803929326943	0.197872746099131	0.117004698146563
"690"	90	0.415345095465585	0.0932308744969559	0.686652110157277	0.881911643183437	0.206427526887238	0.144026000541262
"691"	91	0.385887936882059	0.0920400874661252	0.634388042685704	0.885346204155029	0.210879594929845	0.175469760033676
"692"	92	0.354184541451395	0.0906408344893275	0.578608431944711	0.875396780119999	0.211120209309202	0.210703468624701
"693"	93	0.321268545065361	0.0890524272223118	0.521477305130545	0.852919094722588	0.207308268616418	0.248849885151774
"694"	94	0.288269711390041	0.0873254245346551	0.464984183333038	0.819302437612158	0.199844942181379	0.288809305014657
"695"	95	0.256341136911001	0.0855318542795093	0.410885887415185	0.776301815832884	0.189302963058858	0.329329716377959
"696"	96	0.226578562662143	0.0837543580120257	0.360670493033049	0.725909383158174	0.176368382954061	0.369080766736303
"697"	97	0.199926867340912	0.0820739767226732	0.315507638869009	0.670233851541685	0.161786399633818	0.406752177709707
"698"	98	0.177125980915853	0.0805587953991173	0.276245572445187	0.611343298920999	0.146298728380793	0.441138907719859
"699"	99	0.158663487092839	0.0792533309354169	0.243386546326861	0.551178069164137	0.130605754909483	0.471221136920944
"700"	100	0.144768082110042	0.0781702371341836	0.21709744890126	0.491465549049419	0.115328785622534	0.496216022530655
"701"	101	0.144035082135695	0.0781081149506608	0.21563648284117	0.487693325350663	0.114377477486695	0.497629257893183
"702"	102	0.139018779712994	0.0776563643523898	0.205271222775161	0.458964930768211	0.107197895765358	0.507720785764955
"703"	103	0.135086505444719	0.0772462025042916	0.196422255250554	0.430880619507728	0.10030396126524	0.516403860469024
"704"	104	0.132204237272447	0.0768691643340028	0.189031409024322	0.403574615523313	0.0937379904644966	0.523657074141601
"705"	105	0.130331357654139	0.0765150514023666	0.183032454997523	0.377168870607321	0.0875359584179668	0.529468003088962
"706"	106	0.129412580678189	0.076172032751018	0.178339834110847	0.351764692300881	0.0817240723693521	0.533845542901083
"707"	107	0.129385944163119	0.0758273077899287	0.174859606146239	0.327447418055059	0.0763208919528244	0.536809846176541
"708"	108	0.130186228046348	0.0754674591405024	0.172493852494067	0.304290814977782	0.0713390770809674	0.538386907053678
"709"	109	0.131741564667398	0.075078923263599	0.171135874737046	0.28235240919478	0.0667838701611803	0.538614166916032
"710"	110	0.133972892850912	0.0746488024587666	0.170669505384031	0.261669246252726	0.0626521749031825	0.537543203234279
"711"	111	0.136800356452106	0.074165196197044	0.170977639673249	0.242267718013903	0.0589363860165303	0.535228634306416
"712"	112	0.140142492119954	0.0736176028943232	0.171941134423155	0.224164290002676	0.0556247676253291	0.53172862213717
"713"	113	0.143911089959658	0.0729983946871037	0.173432752970751	0.207349889550526	0.0526971574355447	0.527118681064614
"714"	114	0.148018910568455	0.0723025730551935	0.175327594442129	0.191807801797286	0.0501310460205564	0.521475495857535
"715"	115	0.152378135258848	0.0715282577349899	0.177501544018056	0.177513428810346	0.0479015398352661	0.514879003038841
"716"	116	0.156898356943818	0.0706781141132393	0.179830040835547	0.164421245531172	0.0459782681064264	0.507422667345376
"717"	117	0.161490432286315	0.0697590342786042	0.182193505710317	0.152477947501508	0.0443294070871129	0.499203336116786
"718"	118	0.166066344505047	0.068782451877223	0.184477705720514	0.14162513363811	0.0429223583425422	0.490320388289268
"719"	119	0.17053999527582	0.0677650667035037	0.186575695435158	0.131794002086424	0.0417227258351156	0.480879073834964
"720"	120	0.174829759034349	0.0667287897125326	0.18839133919425	0.122908261910939	0.0406954200903401	0.470987358156895
"721"	121	0.178858947091911	0.0657006370187524	0.189839588706775	0.114892121752179	0.0398063511981662	0.460750994348053
"722"	122	0.18255684696919	0.0647131038517467	0.190847803340405	0.10766992234615	0.0390222894021219	0.45027326166738
"723"	123	0.185864232592302	0.0638033566710787	0.191362195097644	0.101161556828785	0.0383107393788312	0.439653730764997
"724"	124	0.188731515181782	0.0630132657858139	0.191344243442603	0.0952933463469952	0.0376416736989428	0.428982813398148
"725"	125	0.191119185457526	0.0623899538000104	0.190770494363188	0.0899982690876829	0.0369873616126456	0.418341151460772
"726"	126	0.193005899641248	0.0619828809671897	0.189640384278655	0.0852097671800196	0.0363227020580559	0.407796514945822
"727"	127	0.194383792370864	0.061844821101058	0.187968884227029	0.0808698962819957	0.0356259124054339	0.397401789266542
"728"	128	0.195258818636833	0.0620319759875317	0.185785520433026	0.0769286022699502	0.0348784092549031	0.387194544604117
"729"	129	0.195654690927184	0.0626006818689431	0.183136811799843	0.0733406484400457	0.0340654255149671	0.37719470228764
"730"	130	0.195610275918499	0.0636066528409225	0.180082017163759	0.0700671623713104	0.0331762220418165	0.367404778677394
"731"	131	0.195176222440071	0.0651060456486639	0.176689026358126	0.0670764827079176	0.0322038099985779	0.357811659486496
"732"	132	0.194414981952075	0.0671533007843497	0.173033744065267	0.0643424056651529	0.0311452574865682	0.348387175767254
"733"	133	0.193400033475793	0.069795854551149	0.169198378709236	0.0618422567733308	0.0300023179560396	0.339089509432144
"734"	134	0.192210491047047	0.0730777558824124	0.165266477738091	0.059558507556173	0.0287806196719079	0.329867697372388
"735"	135	0.190930286949971	0.0770400955574451	0.161322224955505	0.0574780091434129	0.0274896752791822	0.320663967739503
"736"	136	0.189646990278477	0.0817089219678359	0.157448041193198	0.0555882415392913	0.0261438823703871	0.311417383607416
"737"	137	0.188447956204078	0.0871042002995316	0.153722068569407	0.0538797512004551	0.0247613049557492	0.302068189396262
"738"	138	0.187420367036505	0.0932379738472863	0.150218076657644	0.0523449748618391	0.0233640444447384	0.292560204532902
"739"	139	0.186647947689984	0.100106415139912	0.147001906899082	0.0509760513209493	0.0219782954618252	0.282845617040504
"740"	140	0.18620967241283	0.107693561840397	0.144131000820449	0.0497654325208313	0.0206338376134089	0.272887228948617
"741"	141	0.186180157479798	0.115972882972193	0.141655110983312	0.0487058645129116	0.0193642246762087	0.262659421164207
"742"	142	0.186627088943752	0.124903424679822	0.139614156207923	0.0477892775260068	0.0182065438770872	0.252150717571409
"743"	143	0.187607729200809	0.134428280735039	0.13803592183344	0.0470061985786505	0.0172003714688697	0.241365582944665
"744"	144	0.189171634993555	0.144479885383115	0.136939236599937	0.0463466844141159	0.016388380223164	0.230322325488304
"745"	145	0.191360402267838	0.154979391173454	0.136334063320217	0.0458000804504158	0.0158167311449192	0.219053120504981
"746"	146	0.194198702136673	0.165832733491242	0.136215314102857	0.0453537456752963	0.0155313533831518	0.207605686353554
"747"	147	0.197701734722824	0.17693840588481	0.13656955186177	0.0449947154925055	0.0155803843825177	0.196038594375405
"748"	148	0.201874624565915	0.188186842614165	0.137374717471738	0.044709550283018	0.0160144216723125	0.184420799428431
"749"	149	0.20670437853179	0.199461042738629	0.138595461189197	0.0444837644883014	0.0168813663596819	0.172830049979174
"750"	150	0.212166009971346	0.210641213258857	0.140188240086129	0.0443029046683506	0.0182287192352802	0.161349455991512
"751"	151	0.218223332115549	0.221605507114827	0.142102172426117	0.0441527291010821	0.0201040853254141	0.150066423665402
"752"	152	0.224825291610478	0.232233224456727	0.144277687340952	0.0440192651095042	0.0225512406515355	0.139069682236896
"753"	153	0.231907198394784	0.24240898786725	0.146648476066731	0.0438893353737462	0.0256085775939042	0.128445941322547
"754"	154	0.23939459140256	0.252022437352347	0.149144099649615	0.0437509243832316	0.0293118985486174	0.118280184578021
"755"	155	0.247202467797042	0.26096980218634	0.151690210564884	0.0435933637997963	0.0336929624054111	0.108654457865115
"756"	156	0.255234372166045	0.269163052318264	0.154210373979452	0.0434079365774933	0.0387720693975733	0.0996406871124606
"757"	157	0.263387888283122	0.276524392515223	0.156628579960765	0.0431879682316909	0.0445648458529832	0.0913053971778356
"758"	158	0.271554373172502	0.282985784233108	0.158869401095281	0.0429289396285365	0.0510821970855295	0.0837105058887625
"759"	159	0.279621329694473	0.288502554630967	0.160862521373404	0.0426292701021066	0.0583199877632071	0.0769024799247283
"760"	160	0.287475786559753	0.29304362231486	0.162542872608864	0.0422900172762087	0.0662674863043795	0.0709205874498404
"761"	161	0.295004877333671	0.296591429419905	0.16385114080579	0.0419150041916801	0.0749068994803759	0.0657973664253481
"762"	162	0.30210084151673	0.299149803298115	0.164738069021181	0.0415111880328948	0.0842077723048504	0.0615519089848859
"763"	163	0.308664174053255	0.300740463583435	0.165165163741878	0.0410884489921447	0.0941294897964295	0.0581922983705075
"764"	164	0.314603620995491	0.30139755507956	0.16510329143432	0.0406594264084201	0.10462424652679	0.0557199688410224
"765"	165	0.319840042687237	0.30116950654741	0.164534548013909	0.0402395292830504	0.11563502471408	0.054127181942359
"766"	166	0.324314416133255	0.300121937528635	0.163455871663022	0.0398464686164204	0.127093586525266	0.05339207088604
"767"	167	0.327983923827985	0.298327014778985	0.161874292399579	0.0394999727195305	0.138926130739027	0.053487261581797
"768"	168	0.330822301885598	0.295861365985248	0.159806143087604	0.039221877009139	0.151053306587931	0.0543810455358431
"769"	169	0.332834734634865	0.292813499457183	0.157284049084491	0.0390345010547414	0.163387381239415	0.0560258905848206
"770"	170	0.334046199105727	0.289270810772112	0.154348634451438	0.0389610407165299	0.175838750626123	0.0583715799699016
"771"	171	0.334503456023337	0.28532035747414	0.151049239499628	0.0390253473548744	0.188315458514676	0.0613637210773378
"772"	172	0.334281425952001	0.281050934550294	0.147446376152052	0.0392500436599792	0.200724900680854	0.0649385201324748
"773"	173	0.333475879534676	0.276548389551129	0.143607769132036	0.0396565095445335	0.212976961708719	0.0690281764428606
"774"	174	0.332199383219326	0.271894707429764	0.139606973897796	0.0402650098217952	0.224984822163724	0.0735627096561517
"775"	175	0.330580739221233	0.267168736190687	0.135523553452198	0.0410932996651795	0.236667468815695	0.0784680891864566
"776"	176	0.328760051504373	0.26244510233245	0.131441109922958	0.0421551401653869	0.247953671550134	0.0836668284863147
"777"	177	0.326881595034974	0.257793803812183	0.127445566757453	0.0434614868702754	0.258781033689972	0.0890815261658377
"778"	178	0.325091570766388	0.253281600742817	0.123625501552948	0.0450201523433522	0.269096401699982	0.0946343663107464
"779"	179	0.323531270556267	0.248970102945194	0.120068194277703	0.0468322029430069	0.278863569904375	0.100246918113588
"780"	180	0.322333361515189	0.244917740541143	0.116860481646904	0.0488949713271858	0.288057003078221	0.10584321677641
"781"	181	0.321620704775633	0.241181309114938	0.114089416026489	0.0512016089951535	0.296661422584592	0.111349069431082
"782"	182	0.321497192330362	0.237812725239299	0.111836111500443	0.0537381615274619	0.304677889567276	0.116694261805767
"783"	183	0.322048785409659	0.234862052882341	0.110178040477115	0.0564859036447592	0.312117241186134	0.121813336355969
"784"	184	0.323344133024806	0.232379560336303	0.109190041357143	0.0594215311876704	0.318997839124589	0.1266453301526
"785"	185	0.325429432586195	0.230413968210423	0.108939616985872	0.0625160460621895	0.325347551754233	0.131136201063984
"786"	186	0.328327921732029	0.229012721509391	0.109485106668244	0.0657354996867452	0.331201669122531	0.135240424907241
"787"	187	0.332045976984462	0.228226364841182	0.110879753616497	0.0690423126903222	0.3365981047438	0.138919313935933
"788"	188	0.336573493557742	0.228109236766447	0.113170364956297	0.0723951944812063	0.341577123417351	0.142141712047757
"789"	189	0.341878743102905	0.228713619177321	0.116387996637094	0.0757498479735896	0.346183456650886	0.144888848646536
"790"	190	0.347920296812912	0.230097617136971	0.120557459106089	0.0790605072706331	0.350460411066061	0.147149341542115
"791"	191	0.354649317114391	0.232327016889058	0.125697880736403	0.082279930901841	0.354449814037908	0.148918667534167
"792"	192	0.362003329613441	0.235463655948555	0.131809378632627	0.0853618680940237	0.35819509358795	0.150205494793508
"793"	193	0.369917649971908	0.239574656729131	0.138884785427319	0.0882613859289193	0.361737109810655	0.151025100120385
"794"	194	0.378326540002049	0.244732583064532	0.146909521840979	0.0909351576503962	0.365114687929921	0.15139889074621
"795"	195	0.387161237710479	0.251006134142141	0.155854222559605	0.0933441591483377	0.368365834383363	0.151357009860415
"796"	196	0.396353972805863	0.258460625586128	0.165678133341718	0.0954543636545839	0.371526687338884	0.150935456497578
"797"	197	0.405840642464175	0.267161379853446	0.176333295891547	0.0972359270167638	0.374631144252482	0.150173102879159
"798"	198	0.415560024049216	0.277167784356656	0.187761596503615	0.0986644095751772	0.377711230867312	0.149111765466628
"799"	199	0.425453327566559	0.288521415610989	0.199890888687507	0.0997234980916399	0.380796588061079	0.147796088998148
"800"	200	0.435466104698373	0.301254484978779	0.212642486420264	0.10040181142401	0.38391376216034	0.146269282820664
"801"	1	0.436773040577219	0.303011501931342	0.21434056565952	0.100461510471805	0.384322349634789	0.146057561545881
"802"	2	0.454464928460498	0.329026038767975	0.238032750443807	0.100627612385691	0.389948824830807	0.142964030095295
"803"	3	0.472069395540738	0.359204754154439	0.26277360095484	0.0996273574490202	0.395836373799561	0.139563262247449
"804"	4	0.489296530239367	0.393181530958833	0.287930568679658	0.0975267546272437	0.402015089182049	0.136011566423677
"805"	5	0.505818040555118	0.430270729380649	0.312794992883555	0.0944419127756456	0.408441892070662	0.132416830791423
"806"	6	0.52124112821233	0.469498775878339	0.336604013483603	0.0905214895008582	0.414993766283572	0.128837456703373
"807"	7	0.535112448187135	0.509612669966362	0.358583983560021	0.0859483637752443	0.421468944322707	0.125289293880875
"808"	8	0.54692255162676	0.549167221194726	0.377987343471073	0.0809240973543938	0.427605165077379	0.12175713454694
"809"	9	0.556166925130538	0.586629540583207	0.394174489225615	0.0756657322070752	0.433115215720426	0.118208848545583
"810"	10	0.562387666582574	0.620493041383032	0.406649528084716	0.0703938929845405	0.437727718332242	0.114609844366826
"811"	11	0.565268412437341	0.649431283249748	0.415145431192703	0.065325666675212	0.441244587842704	0.110935276240147
"812"	12	0.5646606608936	0.672367915298598	0.419621027860977	0.060667652675116	0.443576755796371	0.107176975245672
"813"	13	0.560636437153222	0.688591920479715	0.420292349609485	0.0566062784697808	0.4447779882215	0.10334672254467
"814"	14	0.553448001736457	0.697724827819622	0.417559088033521	0.053305762566083	0.445030008584353	0.0994746040843146
"815"	15	0.543517618742795	0.699756420972706	0.411965956428279	0.0508971607032422	0.444616766532765	0.0956062149928936
"816"	16	0.531360284711272	0.694934494596481	0.404096721560372	0.0494807765205484	0.443864513217895	0.0917981174166349
"817"	17	0.517544267885043	0.683748620034238	0.394518014106362	0.0491158331422807	0.443085753596532	0.0881124683618659
"818"	18	0.502623153495707	0.666809224953321	0.38370300110042	0.049826661311453	0.442522293675768	0.0846122584849196
"819"	19	0.48711116074519	0.644839879480613	0.372007268921777	0.0515944785253383	0.442302205611314	0.0813548065389874
"820"	20	0.471464918094432	0.618608387327116	0.359653837206794	0.0543659521837797	0.442417506821251	0.0783887274034704
"821"	21	0.456096699368963	0.588951753858071	0.346759535405185	0.058047797330212	0.442721364274556	0.0757489333097493
"822"	22	0.441398618903232	0.556754633830986	0.333371684806151	0.0625156170384036	0.442953440825885	0.0734574090659121
"823"	23	0.42776379149218	0.52297373578058	0.319521540033964	0.0676109839369058	0.442785055141307	0.0715215764735458
"824"	24	0.415604970523308	0.488618612854975	0.305264969512196	0.0731490727140731	0.441876378514799	0.0699386813075197
"825"	25	0.405341310600984	0.454736413135528	0.290710012647081	0.0789195210943609	0.439941666379404	0.0686968494610678
"826"	26	0.397383622728623	0.422371753995467	0.276018513738708	0.0846943568776819	0.436797907420365	0.0677806984127902
"827"	27	0.392083475703348	0.392505601477977	0.261396337279453	0.0902357051213483	0.432404036067081	0.0671724524422724
"828"	28	0.389702654710371	0.36600330055679	0.24707542409341	0.0953062012426188	0.426858173376738	0.0668557650068866
"829"	29	0.390357478766982	0.343541533266445	0.233293740132553	0.0996840344369643	0.420381122965507	0.0668150453822295
"830"	30	0.394001324946665	0.325582237318974	0.220280319983478	0.103174263882903	0.413272602716212	0.0670365478678497
"831"	31	0.400391160194131	0.312324656523607	0.208238083001993	0.105625890512627	0.405870095694317	0.0675054199013601
"832"	32	0.409095078868421	0.30371521477845	0.197336940582847	0.106937525933368	0.398502174628587	0.0682043856878069
"833"	33	0.41948696353293	0.299432784865872	0.187701338742361	0.107067063232391	0.391450127186692	0.0691100309302035
"834"	34	0.43077232993156	0.298931349074562	0.179409580856159	0.106026613957203	0.384921015006043	0.0701915363592154
"835"	35	0.442018434326911	0.301467833122043	0.172484527498886	0.103882994014786	0.379035318499482	0.0714086737177607
"836"	36	0.452212261701014	0.306175431196447	0.166896508675909	0.100747182200122	0.373835914297727	0.0727122720189342
"837"	37	0.460338322207967	0.312125077364461	0.162559380459357	0.0967710924229016	0.36930676922846	0.0740449029162931
"838"	38	0.465460623302795	0.318402498294589	0.159338318387048	0.0921384830544529	0.365402064276261	0.075343278456576
"839"	39	0.46681727684595	0.324169262651406	0.157052377318741	0.0870626437210482	0.362066164556087	0.076541495460749
"840"	40	0.463887289565143	0.328711167661646	0.155486439701432	0.0817814597413	0.35924293587778	0.0775748628581968
"841"	41	0.456456685315021	0.33146709452404	0.154401058550169	0.0765551976508979	0.356867214569759	0.0783845887074133
"842"	42	0.444634646146452	0.332031296465552	0.153549060376171	0.0716617662341784	0.354852758410433	0.0789214820504097
"843"	43	0.428856384910656	0.330150399081229	0.152692828301941	0.0673880133148528	0.353080653306204	0.0791500039451908
"844"	44	0.409839774920804	0.325706221571179	0.151624411258294	0.0640175361276543	0.351396393832884	0.0790500927003263
"845"	45	0.388535231310956	0.318705720505923	0.150184763469099	0.0618123779773159	0.349614524625165	0.078618779259373
"846"	46	0.36604968587602	0.309261308898665	0.148278923700108	0.0609956896649407	0.347531150928686	0.0778695777225602
"847"	47	0.343565997282132	0.297576864802635	0.145886476128284	0.0617312776808925	0.344942205346786	0.0768318929067544
"848"	48	0.322253425254783	0.283927021766799	0.143064693757709	0.0641084568903823	0.341663008756642	0.075549029813187
"849"	49	0.303180522951605	0.268640095856698	0.13994641880325	0.068127803400602	0.337547508439508	0.0740763226682694
"850"	50	0.287240915142036	0.252077673918298	0.136731730682292	0.0736947164835224	0.332503511136291	0.0724784423407331
"851"	51	0.275096216966078	0.234617205758222	0.133675671617254	0.0806176059800995	0.326504508831335	0.0708264456492123
"852"	52	0.267144780147477	0.216636860966234	0.131073330279508	0.0886140446249084	0.319595504867356	0.069194434350278
"853"	53	0.263515208140382	0.198504948781738	0.129244058483064	0.097323598515701	0.311891161352222	0.0676562510256239
"854"	54	0.264082822237075	0.180573066921385	0.128515854294191	0.106327275254907	0.303563526563233	0.0662823111251685
"855"	55	0.268509012615153	0.163171381678861	0.129210694293716	0.115173695047797	0.294819589562141	0.0651366279575512
"856"	56	0.276289819744701	0.146603176787677	0.131627760015684	0.123410789965734	0.285875030861499	0.0642735990893707
"857"	57	0.286816103922062	0.131138060534965	0.136027512199608	0.130621470599507	0.276929152240346	0.0637349970562648
"858"	58	0.299426194135901	0.117002121303543	0.142611823462412	0.136462462440227	0.268145458005682	0.063546406060834
"859"	59	0.313459819468649	0.104371646199435	0.151510062768394	0.140698934924749	0.25963770688774	0.0637148777472167
"860"	60	0.328298700394604	0.0933658286384397	0.162762042237395	0.143236755708046	0.251460226536931	0.0642264549914772
"861"	61	0.343401276659922	0.0840480769797052	0.17631318069739	0.144139284029589	0.243604641108039	0.0650458508272551
"862"	62	0.358322158442199	0.0764250304944054	0.192006467831442	0.143636918221203	0.236003033299019	0.0661160057265113
"863"	63	0.372720680859419	0.070455747237652	0.209590247924531	0.142116925263997	0.22854087929648	0.0673600914859571
"864"	64	0.386358177369591	0.0660554136056837	0.228724787957573	0.140108869214909	0.22107700372228	0.0686837519483603
"865"	65	0.399079961083519	0.0631083301156346	0.249008239341939	0.138258414845156	0.2134702406594	0.0699795140786957
"866"	66	0.41078878262467	0.0614721675324037	0.270004470613388	0.137298181902156	0.205609653314018	0.0711321463720831
"867"	67	0.421405834305954	0.0609898145273379	0.291285762202248	0.138015430040734	0.197443771198516	0.0720249787222157
"868"	68	0.430838321770057	0.0614915354715242	0.312475809374465	0.141208680297631	0.189005130195537	0.0725480527215548
"869"	69	0.438946136091666	0.0628035083749366	0.333294434367047	0.147651455732311	0.180420077809532	0.0726049686997486
"870"	70	0.445529350164769	0.0647480441109783	0.353594922217624	0.158034474111467	0.171904335166882	0.0721227507875236
"871"	71	0.450320010440675	0.0671494454815372	0.37338298287084	0.172932811400351	0.163745141094135	0.0710584365291525
"872"	72	0.453003753570996	0.0698347445720387	0.392815373049449	0.19274486117129	0.156273737152633	0.069410024622829
"873"	73	0.453241126378744	0.0726386436919808	0.412167444126569	0.217677109034719	0.149835492314039	0.0672224065179337
"874"	74	0.450718113914104	0.0754062380088237	0.431780323663134	0.247697375091669	0.144750158008522	0.0645975568768704
"875"	75	0.445175272811234	0.0779971677197845	0.451996855547178	0.282551344702663	0.141281464023743	0.0616984689030842
"876"	76	0.436458766730333	0.0802900988983408	0.473095632990728	0.32174720658968	0.139596216024072	0.0587547916213382
"877"	77	0.424532289029521	0.082185143652572	0.495238948877187	0.364604918190717	0.139746352358678	0.0560631875170503
"878"	78	0.409514651430819	0.0836088614179064	0.518423020959801	0.410272302075913	0.141643277009097	0.0539838376090144
"879"	79	0.39167479740974	0.0845140412093572	0.542453262107329	0.457789301775251	0.145065745457885	0.0529359483994615
"880"	80	0.371453046089409	0.0848836803080839	0.566928927761733	0.506123377231802	0.149663294615979	0.0533806771286364
"881"	81	0.349437189430182	0.0847274800892788	0.591261997588891	0.554224343555164	0.154991551779919	0.0558123212029471
"882"	82	0.326352714619844	0.0840833485727529	0.614718716230863	0.601064909870192	0.160545557710577	0.0607257431139011
"883"	83	0.303016561359962	0.0830110349145764	0.636479151407286	0.645673267638567	0.165809508287801	0.0686064373092933
"884"	84	0.280292441385623	0.0815914895928588	0.655720583957388	0.687177175365102	0.170305161990143	0.0798845444270224
"885"	85	0.259034690326362	0.0799201788237716	0.6716738270302	0.724808551347867	0.173630724854296	0.0949291237327168
"886"	86	0.240018331774736	0.0781049909248447	0.683701886701697	0.757941216155443	0.175499070968911	0.113994625701297
"887"	87	0.22389307757926	0.0762601476627215	0.691313762807603	0.786061954108914	0.175745736615001	0.137224935295453
"888"	88	0.211114621861185	0.0745016484522551	0.694217668761753	0.808799978457868	0.174342739944917	0.164601388584073
"889"	89	0.201935792836183	0.07294195627426	0.692282146844942	0.825870640521831	0.171372252841612	0.195961163770054
"890"	90	0.196365210121293	0.0716831920955346	0.685549394742654	0.837102374513211	0.167013538771977	0.230958188876469
"891"	91	0.194204893411187	0.0708136597290982	0.674162037785128	0.84237524408887	0.161499332710445	0.269097500716415
"892"	92	0.19504852569485	0.0703995085445513	0.658378611394028	0.841671293669384	0.155095310565834	0.309719078838216
"893"	93	0.198351881750299	0.0704833828256001	0.638525126003303	0.835034079715928	0.148063571006411	0.352043281355191
"894"	94	0.203460831938695	0.0710759093795907	0.615039056041605	0.822637173611523	0.140647784254873	0.395179508565783
"895"	95	0.209687287717396	0.072157172594452	0.588443502904029	0.804733440599763	0.133053414617614	0.438166133712901
"896"	96	0.216350635949798	0.0736705707644711	0.559377770343992	0.781694324581721	0.125442532976102	0.47999512336349
"897"	97	0.222834321545163	0.0755276981169044	0.528552333129754	0.753935076676801	0.117931806337186	0.519633005264058
"898"	98	0.228622792628645	0.0776076020994191	0.496737510596288	0.721941055010208	0.11059771079428	0.556070386193271
"899"	99	0.233321629605614	0.0797649023051516	0.464710877501732	0.686203800171829	0.103487731234573	0.588333885559844
"900"	100	0.236675791575618	0.0818357721380987	0.433222620133161	0.647247460839384	0.0966297287114507	0.615569087317478
"901"	101	0.236866385498095	0.0819810407436414	0.43093014163237	0.644246516308627	0.0961321660269419	0.617365619390271
"902"	102	0.238094367572874	0.0830820523155145	0.412886707526469	0.619760573154497	0.0922113057460958	0.630550922634308
"903"	103	0.23879724347009	0.0840516619363535	0.395415398009484	0.594446244551429	0.0883902231073264	0.641578577515608
"904"	104	0.238983505462796	0.084855075351038	0.378627239456252	0.56841072436022	0.0846729907553125	0.650354971610333
"905"	105	0.238673171077786	0.0854594798335272	0.362618282879365	0.541762542274748	0.0810641591452546	0.656813145428437
"906"	106	0.237896121669494	0.0858349050314655	0.347469085802294	0.514612935880583	0.0775688793755356	0.66091379473835
"907"	107	0.236690405152308	0.0859550536551488	0.333244693683129	0.487077281628591	0.0741929540786759	0.662645670273639
"908"	108	0.235100537635218	0.0857980712801267	0.319995061127206	0.459276330600294	0.0709428334927785	0.662025516727789
"909"	109	0.233175815816666	0.0853472326150631	0.30775584369307	0.431337036704325	0.0678255630648923	0.659097659809079
"910"	110	0.230968612131009	0.0845915348833436	0.296549477282178	0.403392809086683	0.0648486807213321	0.653933245578063
"911"	111	0.228532615485757	0.0835261934887626	0.286386403791073	0.375583092268913	0.0620200650961327	0.646629034500304
"912"	112	0.225921035791075	0.0821530383283765	0.277266263710847	0.348052278129193	0.0593477427751723	0.637305596753073
"913"	113	0.223184843261455	0.0804808127824464	0.269178909599942	0.320948042533399	0.0568396674852883	0.626104790146171
"914"	114	0.220371128138794	0.0785253802505136	0.262105156158277	0.294419223841083	0.0545034828431327	0.613186545631133
"915"	115	0.217521668152813	0.0763098402011314	0.256017225862299	0.268613331857876	0.0523462718422124	0.598725151138714
"916"	116	0.214671784237366	0.0738645516720698	0.250878883793012	0.243673764842196	0.0503742848862566	0.582905310749212
"917"	117	0.211849528971676	0.0712270656537297	0.246645298684525	0.219736858475264	0.0485926316239426	0.565918225491203
"918"	118	0.209075207679182	0.0684419721838197	0.243262732218861	0.196928936034696	0.0470049279095371	0.547957850268687
"919"	119	0.206361206924343	0.065560666443635	0.240668208457992	0.17536353740269	0.0456129061116284	0.529217398304892
"920"	120	0.203712114542466	0.0626410324034182	0.238789319973246	0.155138977438151	0.0444160092103258	0.509886127326804
"921"	121	0.20112515463324	0.0597470355339836	0.237544299777679	0.136336344447678	0.0434109944778705	0.490146444821943
"922"	122	0.198590989319922	0.0569482148098777	0.236842459669512	0.119018010580426	0.0425915747996809	0.470171372563257
"923"	123	0.19609492694627	0.0543190658054359	0.236585067335128	0.103226691641401	0.041948125039914	0.450122386247593
"924"	124	0.19361853193976	0.051938307165022	0.236666691955891	0.0889850646162093	0.0414674745240949	0.430147652085739
"925"	125	0.191141575955879	0.0498880236273839	0.236976999174895	0.0762959246862052	0.0411327971981915	0.410380709117753
"926"	126	0.188644217227734	0.0482526766391509	0.237402927614155	0.0651428416647356	0.0409236071813102	0.390939623463762
"927"	127	0.186109248259922	0.0471179692296701	0.237831135274828	0.0554912591505594	0.040815867688077	0.371926586556496
"928"	128	0.183524231523684	0.046569557476297	0.238150574921536	0.0472899663283772	0.0407822205583178	0.353427880314681
"929"	129	0.180883351315229	0.046691612080762	0.238255041453319	0.0404728629828223	0.0407923453326168	0.335514095114697
"930"	130	0.178188812950424	0.0475652402877127	0.238045534994606	0.034960932805543	0.0408134572709281	0.318240492947326
"931"	131	0.175451610785156	0.0492667842625659	0.237432311831747	0.0306643420553438	0.0408109492179685	0.301647488688472
"932"	132	0.172691556695027	0.051866022503193	0.236336551120813	0.0274845944374739	0.0407491741130121	0.285761314481155
"933"	133	0.169936614647307	0.0554243127086906	0.234691661896671	0.02531669124712	0.0405923550179466	0.270594950714751
"934"	134	0.167221728428159	0.059992722569856	0.232444336662343	0.0240512559135378	0.0403056021109394	0.256149372452621
"935"	135	0.164587370778194	0.0656102008149103	0.229555455285126	0.0235765861162211	0.0398560106676536	0.242415115549772
"936"	136	0.162077993431289	0.0723018450838815	0.226000895774407	0.0237806013132496	0.0392138094787919	0.229374123303278
"937"	137	0.159740498443029	0.0800773259209805	0.221772273152771	0.0245526582557847	0.0383535263152442	0.217001797749282
"938"	138	0.157622808177819	0.0889295302934213	0.216877611027163	0.0257852104724501	0.0372551363716591	0.205269155977172
"939"	139	0.155772589242785	0.0988334902476466	0.211341919238126	0.0273752911056124	0.0359051606516772	0.194144973929294
"940"	140	0.154236163980549	0.109745658801981	0.205207606830172	0.0292258027945938	0.0342976825399871	0.183597777280039
"941"	141	0.153057622125305	0.121603586219169	0.198534606181005	0.0312466033506628	0.0324352571234141	0.173597524626704
"942"	142	0.152278127717476	0.134326039159622	0.191400035552488	0.0333553815124252	0.0303296960066219	0.164116845548101
"943"	143	0.151935385939047	0.147813598531406	0.183897210829495	0.0354783223465088	0.0280027085983149	0.155131778199843
"944"	144	0.152063192213136	0.16194977006656	0.176133886149889	0.0375505667707021	0.0254863747986729	0.146622064741459
"945"	145	0.152690946959521	0.17660263913426	0.168229749348532	0.0395164738151415	0.0228234235665702	0.138571117268731
"946"	146	0.153843009307306	0.191627086335606	0.160313298177277	0.0413296972085323	0.0200672956383143	0.130965761657211
"947"	147	0.155537830205913	0.206867552886217	0.152518248340149	0.0429530893301607	0.0172819727348456	0.123795843203979
"948"	148	0.157786912952947	0.222161314705302	0.144979628606997	0.0443584476230822	0.0145415571904654	0.117053753259689
"949"	149	0.160593702118571	0.237342194700275	0.137829724390262	0.0455261224893003	0.0119295912678004	0.110733916387159
"950"	150	0.163952529795485	0.252244609232148	0.131194043772669	0.0464445083930657	0.00953811608048096	0.104832266311336
"951"	151	0.16784774728991	0.26670780397941	0.125187486541265	0.0471094398746304	0.00746647404519205	0.099345732932539
"952"	152	0.172253128023567	0.28058009491576	0.119910879907198	0.0475235139270423	0.00581985893522303	0.0942717642145724
"953"	153	0.177131585551861	0.293722898804719	0.115448012230631	0.0476953594646939	0.00470762131794613	0.0896079084731154
"954"	154	0.182435229131094	0.306014331043245	0.111863257477727	0.0476388720911451	0.0042413435383577	0.0853514774635019
"955"	155	0.188105757239694	0.317352202478526	0.109199846792049	0.0473724295718998	0.00453270556221978	0.0814993017211688
"956"	156	0.194075170399319	0.327656326177153	0.107478815258847	0.0469181023923775	0.00569117038216353	0.0780475803607916
"957"	157	0.200266768065013	0.336870087523038	0.106698632909872	0.0463008730578075	0.00782153053495583	0.0749918215788327
"958"	158	0.206596384695141	0.344961241038669	0.106835511453794	0.0455478753904068	0.0110213725300123	0.0723268632134919
"959"	159	0.212973836395918	0.351921904977433	0.107844355897935	0.0446876628137774	0.0153785263533348	0.0700469569465719
"960"	160	0.219304558499518	0.357767736372451	0.109660306564939	0.043749514124122	0.0209685728050015	0.068145897941302
"961"	161	0.225491405026029	0.362536302552762	0.112200807238214	0.0427627862167193	0.0278524816271946	0.0666171791548906
"962"	162	0.231436586616604	0.366284721225564	0.11536813818172	0.0417563226424772	0.0360744485044852	0.0654541483349459
"963"	163	0.23704374296843	0.369086695422588	0.119052345336533	0.040757925655148	0.0456599916749418	0.064650149826192
"964"	164	0.242220131017927	0.371029096692468	0.123134482201209	0.0397938984093329	0.0566143625784894	0.064198636804275
"965"	165	0.246878863929427	0.372208240893278	0.127490061900695	0.0388886611670806	0.068921321708682	0.0640932418200145
"966"	166	0.250941114175605	0.372725995768455	0.131992600330885	0.0380644414025776	0.0825423259357835	0.0643277962564391
"967"	167	0.254338192093127	0.372685866094656	0.136517139621686	0.0373410343843628	0.0974161657968675	0.0648962905886967
"968"	168	0.257013431744299	0.372189196804801	0.140943662592778	0.0367356287639961	0.113459082637105	0.065792769315129
"969"	169	0.258923872900186	0.37133163247336	0.145160309585981	0.0362626903238857	0.130565387350973	0.0670111558966058
"970"	170	0.260041750825342	0.370199968536414	0.149066303664794	0.0359338975531735	0.148608595176705	0.0685450023916775
"971"	171	0.260355783249035	0.368869526857958	0.152574495217783	0.0357581245649427	0.167443081713605	0.0703871598733385
"972"	172	0.259872183704325	0.367402174486681	0.15561344505888	0.0357414673951292	0.18690625385796	0.0725293771490681
"973"	173	0.258615260830699	0.36584507512919	0.158128972232401	0.035887309694772	0.206821214061099	0.0749618508193644
"974"	174	0.256627490162546	0.364230224265444	0.160085093628187	0.036196424688611	0.226999868195253	0.0776727580393414
"975"	175	0.253969064268064	0.36257477521872	0.161464295460823	0.0366671104865298	0.247246392473757	0.0806478023361628
"976"	176	0.250716989416594	0.360882125497584	0.162267129782052	0.03729535432071	0.267360942767219	0.0838697989397813
"977"	177	0.246963783766895	0.359143707555729	0.16251119273414	0.0380750199301007	0.287143472511724	0.0873183199628196
"978"	178	0.242815813360692	0.357341397554888	0.162229585523222	0.0389980508802045	0.306397531148452	0.0909694137734206
"979"	179	0.238391304265448	0.355450404785524	0.161468977537725	0.0400546812657935	0.3249339192105	0.0947954122204923
"980"	180	0.233818085649532	0.353442444879957	0.160287389003917	0.0412336463769693	0.342574078689251	0.0987648399512683
"981"	181	0.229231114814341	0.351288938531628	0.158751797250382	0.0425223871312257	0.359153130522273	0.102842435774196
"982"	182	0.224769804763736	0.348963941874982	0.156935656623965	0.0439072429460702	0.374522520165262	0.106989290113829
"983"	183	0.220575178350972	0.346446548174147	0.154916407773348	0.045373632078732	0.388552258350905	0.111163101248507
"984"	184	0.216786936341032	0.343722593706374	0.152773039120611	0.0469062218731176	0.40113274313594	0.11531855591502
"985"	185	0.213540573932052	0.34078561347941	0.15058374714288	0.04848909207301	0.412176167050512	0.119407846288798
"986"	186	0.210964660281823	0.337637078469683	0.148423736891131	0.0501058952741033	0.421617526401869	0.12338133496015
"987"	187	0.209178346380633	0.334285981883457	0.146363204898126	0.0517400175349201	0.429415236731154	0.127188366538624
"988"	188	0.208289122567601	0.330747863958627	0.144465537807222	0.0533747378056508	0.435551342355581	0.130778207385549
"989"	189	0.208390829214136	0.327043403578575	0.14278576186828	0.0549933805845333	0.440031309475556	0.134101084353524
"990"	190	0.20956196961892	0.323196763988495	0.141369280694155	0.0565794550457656	0.442883427985051	0.137109297144265
"991"	191	0.211864409208746	0.319233927772427	0.140250936072636	0.0581167787265927	0.444157877929898	0.13975838515224
"992"	192	0.21534252658101	0.315181256811056	0.139454425897967	0.0595895918942523	0.443925499207756	0.142008321678871
"993"	193	0.220022855779359	0.311064480086484	0.13899210817075	0.0609826722072987	0.442276277878816	0.14382469376335
"994"	194	0.225914235588727	0.306908258387983	0.138865215042722	0.0622814588129018	0.439317570270114	0.145179812877625
"995"	195	0.233008467667098	0.302736410175017	0.13906449080915	0.0634721941111068	0.435172094592832	0.146053695959921
"996"	196	0.241281473417799	0.298572814288448	0.139571246409681	0.0645420888239415	0.429975728900201	0.146434866040836
"997"	197	0.250694905343562	0.294442935098332	0.140358801818053	0.0654795120294996	0.423875165143189	0.146320936680545
"998"	198	0.26119813540641	0.29037585071283	0.141394272453549	0.0662742051489957	0.417025464820008	0.145718958940052
"999"	199	0.272730548980874	0.286406612182606	0.142640636916494	0.066917516069062	0.409587566103853	0.144645520784616
"1000"	200	0.285224088161443	0.28257873445397	0.144058997288965	0.0674026460184555	0.401725803048851	0.143126584076034
"1001"	1	0.286851840001578	0.282112179182956	0.14424669026479	0.0674519657338945	0.400720243912017	0.142906752060517
"1002"	2	0.312305651597225	0.275688000634501	0.147203315673367	0.0678789952949478	0.385670827864292	0.138983324606142
"1003"	3	0.340274687402219	0.270432337175583	0.150395451728586	0.0677487637234532	0.370821549485882	0.133983313020238
"1004"	4	0.370330482498141	0.266983682388114	0.153696810670125	0.0670863357280726	0.357108282676251	0.128265318910199
"1005"	5	0.402106404653382	0.266132909487518	0.15708512528201	0.0659485672008106	0.345347274387384	0.122223518099268
"1006"	6	0.435289344226091	0.268754604182141	0.16064923236429	0.0644228143734115	0.336179115341344	0.116253177655503
"1007"	7	0.469581281266754	0.275701317695235	0.1645744865664	0.0626199168093334	0.3300209336412	0.110714743584868
"1008"	8	0.504637312377108	0.287681709615648	0.169111775138636	0.0606641054367181	0.327034883318105	0.10590467075343
"1009"	9	0.539993982034615	0.305136635626984	0.174537472986728	0.0586822232963111	0.327110203370418	0.102033388824154
"1010"	10	0.575005753091071	0.328123167168457	0.181108044664602	0.0567926463344361	0.329863256784218	0.0992081839758308
"1011"	11	0.608806542040889	0.356274735476189	0.189025823547721	0.0550959114912281	0.334688478674604	0.0974318525456405
