"Time"	"IP"	"VL"	"BF"	"ST"	"GA"	"TA"
"1"	1	0.995239353226133	0.308553268506706	0.99996477335069	0.788417915043598	0.895889931010675	0.230885807098322
"2"	2	0.99320647060758	0.296893528028801	0.993827345150378	0.821538479488003	0.865938327180892	0.22683578563271
"3"	3	0.987605897810112	0.285009689393122	0.98308431170631	0.85253332530199	0.833353192955307	0.222403802910438
"4"	4	0.978647391120598	0.273047988062803	0.967942466875058	0.881140832182511	0.798581259159144	0.217646915587442
"5"	5	0.966577324475373	0.261155092448825	0.948664081108448	0.90711853345459	0.762081560524061	0.212628646766129
"6"	6	0.951672433802008	0.249474524217349	0.925561109295404	0.930245691821036	0.724316324876212	0.207417267017448
"7"	7	0.934233432147669	0.238143259183605	0.898988734309845	0.950325532199949	0.685742289270085	0.202083930475699
"8"	8	0.914578606072469	0.227288594688332	0.869338277523159	0.967187127220913	0.646802585463151	0.196700710073566
"9"	9	0.893037462112111	0.217025362370514	0.837029495582994	0.980686976041126	0.607919330102948	0.191338586659728
"10"	10	0.869943538877384	0.207454159938969	0.802500964017241	0.990707516714252	0.569487698845043	0.186065573127687
"11"	11	0.845630544141587	0.198658911194705	0.766204566236331	0.997161319974606	0.531870574696976	0.180944832112612
"12"	12	0.82042782452535	0.190703371750002	0.72859863216224	1	0.495390613388118	0.176032286964671
"13"	13	0.794651001057573	0.183633057439889	0.690133336606948	0.999201996018338	0.460330003241334	0.171375644994163
"14"	14	0.768600020471389	0.177473700341864	0.651246446359956	0.994778648001892	0.426927535552158	0.167012957816934
"15"	15	0.742555605749551	0.172231207412903	0.612356515069699	0.986774910321299	0.39537746211641	0.162971607982011
"16"	16	0.716776387193175	0.167892063726715	0.573856954097197	0.975269744816458	0.365829388568141	0.159267612334139
"17"	17	0.691496639159547	0.164424143055804	0.536111056651128	0.960376048268572	0.338389109503977	0.155905253985418
"18"	18	0.666924522438788	0.161777883413855	0.499448000722009	0.94224005029007	0.313120264289613	0.152877040410575
"19"	19	0.643242407348084	0.159888862864455	0.464162405331844	0.921035659687096	0.290050145263499	0.150164427131993
"20"	20	0.620602177161944	0.158676468206933	0.430506410703658	0.896975409277329	0.269163499212624	0.147737056690496
"21"	21	0.599126492522632	0.158048309789513	0.398691098198545	0.870299206817901	0.250411795994039	0.145554572356014
"22"	22	0.578909751059003	0.157902627925808	0.36888762022614	0.841270708307684	0.233717935669038	0.143567790747485
"23"	23	0.560017983630589	0.158130162235629	0.341226556537732	0.8101762651484	0.218978459248041	0.141719778634167
"24"	24	0.542489931463384	0.158616687506302	0.315798875767895	0.777321208329002	0.206067419345761	0.139947348155113
"25"	25	0.526338679554304	0.159245655275949	0.292657480177416	0.743025718540579	0.19484035132742	0.138182726679937
"26"	26	0.511553793457092	0.159900899420097	0.271819290008738	0.707620492948242	0.185138326012043	0.136355375368047
"27"	27	0.498103994357856	0.160469335497021	0.253268048971966	0.671442392676445	0.176792180883427	0.134393905990735
"28"	28	0.485942262650852	0.160843035517094	0.236961408129684	0.634830318110055	0.16962847475068	0.132227561737282
"29"	29	0.475000852200638	0.160923313279728	0.222820389785316	0.598123270456411	0.163466700987733	0.129789770036664
"30"	30	0.465202686273436	0.160622029349481	0.210747770176973	0.561653514106249	0.158131333217666	0.127019048426003
"31"	31	0.456461209251163	0.159863894924777	0.200626954795655	0.525745275316567	0.153452779915446	0.123861364751345
"32"	32	0.448682909550918	0.158588228903304	0.192325930515036	0.490712122312798	0.149271055241453	0.120272117100328
"33"	33	0.441769484272703	0.15675029182383	0.185701189142838	0.456854662347121	0.14543911332411	0.116217968277854
"34"	34	0.435619558238846	0.15432213763007	0.180601520714764	0.424458530671851	0.141825759628392	0.11167847431507
"35"	35	0.430129956327697	0.151292947317633	0.17687160243678	0.393792642020584	0.138318075858151	0.106647455861169
"36"	36	0.425197020318912	0.147668341258713	0.174356292254084	0.365109632396663	0.134823253852142	0.101133664574888
"37"	37	0.420716370566427	0.143470594681308	0.172901872868078	0.338642270551593	0.131269829361319	0.095162257941777
"38"	38	0.416583282914664	0.138738321535287	0.172358016244281	0.314597699736032	0.127608842100581	0.0887757842547636
"39"	39	0.412694625554508	0.13352312325371	0.172583616317538	0.293163560440272	0.123813634140035	0.0820327188813107
"40"	40	0.408948603169138	0.12788870539407	0.17344714981627	0.274503990075577	0.119879352912086	0.0750079147356113
"41"	41	0.405245340921104	0.121908945676774	0.174828297247594	0.258758481895351	0.11582195167317	0.0677920944516277
"42"	42	0.401487581074458	0.115665813432592	0.176619104768427	0.246040899567986	0.111676758787535	0.0604910748793782
"43"	43	0.397581538056758	0.109247211976948	0.178724679659789	0.236438692502912	0.107496700891503	0.0532247397547357
"44"	44	0.393437951000847	0.102744807803479	0.181063445049562	0.230012343108899	0.103350258688627	0.0461257771262558
"45"	45	0.388972679516112	0.096252073726457	0.183567174692869	0.226800491483359	0.0993195768009998	0.0393389848051476
"46"	46	0.384109674796605	0.0898621494426112	0.186179825065373	0.226805430585262	0.0954975703716666	0.033018170502048
"47"	47	0.378781829607159	0.08366558289598	0.188857452310553	0.230003836759941	0.0919854721222592	0.0273247112232205
"48"	48	0.37293235584277	0.0777488502425952	0.191566963011553	0.236347626844449	0.0888906296740653	0.0224260263019078
"49"	49	0.366516548133932	0.0721927952384763	0.194284760542253	0.245762714651937	0.0863240203148874	0.0184933011091396
"50"	50	0.359503143277273	0.0670712910113028	0.196995362647347	0.258149886923217	0.0843978975890747	0.015699287880238
"51"	51	0.351875319983112	0.0624501367560473	0.199689946214169	0.273385861057409	0.0832235263660272	0.0142160144472363
"52"	52	0.343631218870968	0.0583861971797531	0.202364863279814	0.29132449566059	0.0829090244825944	0.0142124188104489
"53"	53	0.33478383606918	0.054926911241871	0.205020157481063	0.311798605428138	0.0835575336948514	0.0158522859155311
"54"	54	0.325359822432402	0.0521109339263251	0.207658097293908	0.33462444516226	0.0852670998836237	0.0192948251196736
"55"	55	0.315401893646525	0.0499642212050446	0.210281878618138	0.359590571852129	0.0881226142527227	0.0246815406309244
"56"	56	0.304964179140641	0.0485039636547073	0.212894221542317	0.386474286835347	0.0922004899521041	0.032144432818787
"57"	57	0.294112251742389	0.0477375770929317	0.215496259435534	0.415038370330741	0.0975652100791578	0.0418001215112223
"58"	58	0.282921778253019	0.0476631292399935	0.218086556373501	0.445033295616556	0.104268067218503	0.0537474559835148
"59"	59	0.271477100652186	0.0482699138283613	0.220660331228158	0.476199614573806	0.112346087789783	0.0680652129122119
"60"	60	0.259869789087966	0.049539139535629	0.223208916789102	0.508270454467442	0.121821140659903	0.0848099226721578
"61"	61	0.248197191527944	0.0514447001964793	0.225719468656846	0.540974034540814	0.1326992251829	0.104013866247991
"62"	62	0.236561117106319	0.0539545618883118	0.228174847218999	0.574036182201929	0.144971288897328	0.125685713141025
"63"	63	0.225066451222588	0.0570305283066317	0.230553855856186	0.607181585510095	0.15861040909738	0.149804696287213
"64"	64	0.213818932331546	0.0606288087118366	0.23283181615449	0.640137253521345	0.173570518376556	0.176317290701545
"65"	65	0.202924016043098	0.0647025016349193	0.234980917274519	0.672634499629125	0.18979039125086	0.20514345844022
"66"	66	0.192485192800708	0.0692016450925721	0.236970986804359	0.704410221402886	0.207192070569773	0.236172977470761
"67"	67	0.182602352184741	0.0740740023073246	0.238770284415698	0.735208450539295	0.225681313811993	0.269265391792715
"68"	68	0.173370182585036	0.0792657987917087	0.240346349738203	0.764781717208137	0.245148260979007	0.304250435657471
"69"	69	0.164876637550928	0.0847224063726251	0.24166686780862	0.792892246008964	0.265468316435216	0.340928960037761
"70"	70	0.15720148630944	0.0903889641962552	0.242700526649899	0.819313042492432	0.286503230239513	0.37907437770639
"71"	71	0.150416651590017	0.0962111052132925	0.243417239502862	0.843825193007598	0.308103090388465	0.418436320415611
"72"	72	0.144580538517734	0.102134704027626	0.243790522269288	0.866228483325346	0.330105118275045	0.458737356405154
"73"	73	0.139740151172548	0.108107042930644	0.243797118919771	0.886336021492692	0.35233810459631	0.499681769494796
"74"	74	0.135930061320415	0.114076895853404	0.243417683277185	0.903975657247881	0.374623620833248	0.540958000368305
"75"	75	0.133171191818428	0.119994648009421	0.242637472311399	0.918992515879664	0.396777662529531	0.582241959422526
"76"	76	0.131470248686566	0.125812413929126	0.241446697022336	0.931250637715709	0.418612659609326	0.62320126920152
"77"	77	0.130819387106198	0.131484086366861	0.239840652682342	0.940634539182021	0.43993952945495	0.66349971868105
"78"	78	0.131196144540126	0.136965331175364	0.237819621987896	0.947050595522383	0.460569743385056	0.702801818778853
"79"	79	0.132563953888922	0.142213471509647	0.235388456366417	0.950427260519713	0.480317090122981	0.740776894043888
"80"	80	0.134873562252475	0.14718706380007	0.232555714946622	0.950712467710608	0.498998187146624	0.777101079646231
"81"	81	0.138059282920617	0.15184744126541	0.229335106189458	0.947889928416252	0.516440632889333	0.811471263027011
"82"	82	0.142045634382554	0.156157322382263	0.225742559690541	0.941961782811291	0.532479462111757	0.843600650977641
"83"	83	0.146746850443225	0.160081493695196	0.221796384903667	0.93295454121839	0.546961233876107	0.873225806221202
"84"	84	0.152068624553228	0.163587143645498	0.21751662234046	0.920918769758281	0.559746417811954	0.900110861376422
"85"	85	0.157910083082236	0.166644303736176	0.212924435523139	0.905928554981709	0.570711785422274	0.924051466214334
"86"	86	0.164165935569645	0.169226385388301	0.208041572802132	0.888080756673465	0.579752738151101	0.94487837329091
"87"	87	0.170728734998813	0.171310797539762	0.202889925043581	0.867494108278816	0.586785494274788	0.962460554604929
"88"	88	0.177491276162199	0.172879042704413	0.197490957792078	0.844305574714843	0.591746741990347	0.976704007521896
"89"	89	0.184348320483879	0.173918491118604	0.191866069509491	0.818675024021817	0.594599605619952	0.987560507461445
"90"	90	0.191199298914619	0.174423277159013	0.186036501606323	0.79078400863174	0.595335610413114	0.995029611489269
"91"	91	0.197950388194683	0.17439353025549	0.180022885772785	0.760828615078507	0.593969829642667	0.999149642900148
"92"	92	0.204515963701692	0.173836402228859	0.173845717777482	0.729021219878256	0.59054309658588	1
"93"	93	0.210819973297438	0.172766267916163	0.167525591573957	0.695588953175436	0.585120973793519	0.997698261685649
"94"	94	0.21679696592609	0.171204693667368	0.161083450156593	0.660771967218233	0.577792043303847	0.992396257702134
"95"	95	0.222392784576716	0.169180179065622	0.154540825609476	0.624821520557099	0.568665672098317	0.984275389491099
"96"	96	0.227564977008137	0.166727695682083	0.14792004759251	0.587997865568484	0.557869420997767	0.973541527011298
"97"	97	0.232282098044765	0.16388741636025	0.141244342985036	0.550567267376188	0.545543653606188	0.960415724746162
"98"	98	0.23652620493099	0.160705974256406	0.134538195590844	0.512802296518203	0.53184655045495	0.945141455379132
"99"	99	0.240290772328973	0.157233732561222	0.127827039160516	0.474975288884284	0.516943819413216	0.927968246007511
"100"	100	0.243580729376761	0.153524276484043	0.121137310702784	0.437356298598936	0.501007269988716	0.909149468964581
"101"	101	0.24641234862835	0.149633648118531	0.114496359384366	0.400209927377953	0.484212616045223	0.888939242878822
"102"	102	0.248812850065161	0.145619405247968	0.107932273151794	0.363791791945439	0.46673675183507	0.867588799043435
"103"	103	0.25081988454762	0.141539663162385	0.101473654857259	0.328345021812459	0.448755119442656	0.845343185207899
"104"	104	0.252480871490202	0.137452119070865	0.0951493582754827	0.294096932060149	0.430439169558621	0.822438190173141
"105"	105	0.253852063798989	0.133413101051095	0.0889882726808953	0.261256628273362	0.411953929147983	0.799097343979837
"106"	106	0.254997520673135	0.129476775921753	0.0830192230162977	0.230013912086577	0.393456121702793	0.775529596146353
"107"	107	0.255988631967032	0.125693526982244	0.0772697025780192	0.200529293349068	0.375091655279924	0.751927281249078
"108"	108	0.256901376934054	0.122109545728164	0.0717665481707788	0.172940602379608	0.356993740810561	0.728462973759305
"109"	109	0.257815275441418	0.118765939710266	0.0665353473771419	0.147359174753185	0.339281894391965	0.705289082935076
"110"	110	0.258811681279575	0.115698051533217	0.0616001828061959	0.123869222661665	0.322061034157819	0.682537240828271
"111"	111	0.259972007394461	0.112934900103593	0.0569834133940035	0.102527719154879	0.305420993505664	0.660318276870437
"112"	112	0.261375931324051	0.110498738167893	0.0527055025508583	0.0833647706572152	0.289436437552727	0.638722718944883
"113"	113	0.263099616851263	0.108404716955637	0.0487849000964794	0.0663844414126214	0.274167155660326	0.617821741513694
"114"	114	0.265214515097288	0.106661074111467	0.0452384411920702	0.0515685094791071	0.259659637455733	0.597669413621199
"115"	115	0.267784727953192	0.105268118244905	0.0420804117410601	0.0388725663908758	0.245946088603572	0.578302413616395
"116"	116	0.270865111882593	0.104218324013766	0.0393226124948515	0.0282288004833426	0.23304563080326	0.559741828697464
"117"	117	0.274500726695481	0.103497191049837	0.0369752627885514	0.0195525652570241	0.220967324899425	0.541996710492226
"118"	118	0.27872486851999	0.103083066937741	0.0350466966451204	0.012742330307428	0.209710667066058	0.525064978381518
"119"	119	0.283557607276965	0.102947445678357	0.0335434933200719	0.00768212226960218	0.199266873564204	0.508934920933636
"120"	120	0.289004410089269	0.103055352078361	0.0324706192387086	0.00424403918095117	0.189620079290231	0.493586461586949
"121"	121	0.295054883904521	0.103365814521985	0.0318315630518587	0.00229078642595139	0.180748451256623	0.478992264832816
"122"	122	0.301681705364476	0.103832431212702	0.0316284439092754	0.00167818723878186	0.172625237608979	0.465118785729451
"123"	123	0.308840763235349	0.104404127320916	0.0318629413572016	0.00225969877883397	0.165221134922097	0.451928623612551
"124"	124	0.316467748071695	0.105025362734886	0.0325338283973328	0.00388222171754005	0.158501245333328	0.439377883202713
"125"	125	0.324481158643473	0.105637671825504	0.0336391442295721	0.00639483300464249	0.152429784878642	0.427421060205447
"126"	126	0.332782263062376	0.106180332161362	0.0351756286807245	0.00964916206612356	0.146970154214957	0.416011574852044
"127"	127	0.341256222364761	0.106591339193426	0.0371384622521296	0.0135009081409663	0.142085617196702	0.405102983256163
"128"	128	0.349774020824871	0.106808503145737	0.0395211103306598	0.0178115095122465	0.137740126157069	0.394650348835817
"129"	129	0.358195048888488	0.106770633418169	0.0423151557659223	0.0224495981331103	0.133899045747927	0.384611482313519
"130"	130	0.366370321097849	0.106418804847972	0.0455101334596271	0.0272922357728542	0.130529746586678	0.37494798750755
"131"	131	0.374146008742688	0.105697486030435	0.0490935627522396	0.0322259281920643	0.127602258008153	0.365626243630134
"132"	132	0.381367190003367	0.104555688620964	0.053050876923927	0.0371471805704982	0.125089612752546	0.356618029897289
"133"	133	0.387885332156569	0.102950235174547	0.0573639206268181	0.0419635589749371	0.122966471336568	0.347899783611814
"134"	134	0.393560732575744	0.100845206262555	0.0620127094455707	0.0465940878456141	0.121211108178443	0.33945425896958
"135"	135	0.398268340268998	0.0982140959989741	0.066974690697654	0.0509693333597464	0.119804449317157	0.331269882889078
"136"	136	0.401902733486803	0.095041315118349	0.0722247319572842	0.0550314793253091	0.118729788942379	0.323340592670417
"137"	137	0.404382710703704	0.0913236866749987	0.0777351420068524	0.0587342488016733	0.117972426968673	0.315665594215678
"138"	138	0.405655196836964	0.0870719150111609	0.0834757194208244	0.0620426811668632	0.117519258607719	0.308249087796398
"139"	139	0.405698139859686	0.0823120018425011	0.0894138204369074	0.0649327720124376	0.117358340740226	0.301099991883372
"140"	140	0.404520600210324	0.0770860453975836	0.0955145988836196	0.067390417196134	0.117478800652996	0.294232054709101
"141"	141	0.402166646321004	0.0714548730109156	0.101740583168716	0.0694120628418915	0.117869580472727	0.287662782888304
"142"	142	0.398712974248084	0.065498291934684	0.1080520837345	0.07100357206644	0.118519301607714	0.281413255531386
"143"	143	0.394264696046932	0.0593151517576806	0.114407410116009	0.0721785644496007	0.119416249676104	0.275508202180925
"144"	144	0.388953413360474	0.053024189517495	0.120762759020478	0.0729578433500699	0.120547613475776	0.269975142091569
"145"	145	0.382933336685962	0.0467640261508731	0.127072267437133	0.0733682967270547	0.121898951412266	0.26484359735266
"146"	146	0.376376889489309	0.04069272961868	0.133288082920495	0.0734417217433942	0.123453584883485	0.260144036640104
"147"	147	0.36947001815966	0.03498690287698	0.139360462781451	0.0732135999689104	0.12519191962912	0.25590653179178
"148"	148	0.362407409537109	0.0298402574926591	0.145237911679727	0.0727218555661539	0.127090734694114	0.252159192825657
"149"	149	0.355388289286209	0.0254636983506509	0.150866736260472	0.0720052427603892	0.129122713721154	0.248927612430588
"150"	150	0.348611329976636	0.0220778172435285	0.156192868523293	0.0711034574982549	0.131255083790901	0.246230034681317
"151"	151	0.342270173240909	0.0199134834785559	0.161160912005764	0.0700546515760798	0.133450031211444	0.244078692224869
"152"	152	0.336550115685827	0.0192075876187983	0.1657147354083	0.0688948631957105	0.135664188032646	0.242477783074315
"153"	153	0.331624821100355	0.0201987740544006	0.169797940170275	0.0676571821527262	0.137848575527186	0.241422325762419
"154"	154	0.327653525762345	0.0231228975777318	0.173354348778377	0.066371007370619	0.139948810445234	0.240897432302637
"155"	155	0.324778740882153	0.0282081369166151	0.176328573635907	0.0650614540599164	0.141905557114282	0.240877917471178
"156"	156	0.323124444305951	0.0356698674749818	0.17866667222007	0.0637489179904534	0.143655227561929	0.241328245808692
"157"	157	0.322795569981835	0.0457070401503829	0.180316449716813	0.0624488129898741	0.145130723112107	0.242203024402169
"158"	158	0.323877099628462	0.0584970435064233	0.181228233856062	0.0611714649195621	0.146262454787502	0.243447364009687
"159"	159	0.32642848547691	0.0741807587810272	0.181358408242368	0.0599220247395716	0.146981156232412	0.244996738173267
"160"	160	0.330489665713811	0.0928698785005928	0.180667122615913	0.058700767526591	0.147217996886494	0.246779784356625
"161"	161	0.336078722347597	0.114637910926416	0.179120501863149	0.0575033877779527	0.146906815424347	0.248718859243847
"162"	162	0.343191964193048	0.139515980066346	0.17669173811701	0.0563214448818614	0.145986034480116	0.250731474823421
"163"	163	0.351804188855811	0.167489185869735	0.173362222158621	0.0551429303046512	0.144400698339556	0.252731890537656
"164"	164	0.361869135047671	0.198493638916194	0.169122703402526	0.0539529498770221	0.142104602722625	0.254632851946633
"165"	165	0.373320133678686	0.232414281812408	0.163974462842526	0.0527345123754096	0.139062474973901	0.256347455067443
"166"	166	0.386072604993788	0.2690871293597	0.157929271780067	0.0514693232254533	0.135251075616663	0.257790614807046
"167"	167	0.40002066313633	0.308289703101014	0.151013537547849	0.0501388992490275	0.130663906148628	0.258881949622092
"168"	168	0.415040637537594	0.349747053737462	0.143267943613972	0.0487256247330493	0.125312123181306	0.259547768079439
"169"	169	0.430993618253713	0.393136768971105	0.134747350972639	0.047213704175344	0.11922534531665	0.2597223673292
"170"	170	0.447725532093153	0.438089696342132	0.125522483902894	0.0455902894327345	0.11245401443714	0.259350050224042
"171"	171	0.465068510637087	0.484194335605777	0.115680629857559	0.0438465538154853	0.10507083056402	0.258386686907671
"172"	172	0.482842429811368	0.531002430890858	0.105326112375555	0.0419787283550352	0.0971718986323902	0.25680098267303
"173"	173	0.500856679515529	0.578035724873909	0.0945805019148969	0.0399890758594794	0.0888775375211355	0.254575387438487
"174"	174	0.518912224116219	0.624793808555424	0.0835825349150016	0.0378867823708741	0.0803327110415032	0.251706632448022
"175"	175	0.536803196091443	0.670760122019474	0.0724878748584048	0.0356885910421712	0.0717072863576965	0.248204595563284
"176"	176	0.554321142846718	0.715417774523309	0.061468745334492	0.0334200829377573	0.0631958686449302	0.244096289078571
"177"	177	0.57125774743147	0.75825629515686	0.0507117697860519	0.0311155222654397	0.0550158492781519	0.239421430868206
"178"	178	0.58740827631478	0.798782621933623	0.0404170951372604	0.028818439051996	0.0474065795864056	0.234233065461835
"179"	179	0.602575620000521	0.836531944445523	0.0307966357270083	0.0265818153026939	0.0406275098560252	0.228596841463291
"180"	180	0.616574683984862	0.871078139981419	0.0220719764739515	0.0244680642206645	0.0349558318016733	0.222590065341948
"181"	181	0.629237079613779	0.902043442257565	0.0144719541053802	0.0225488070780814	0.0306836326767485	0.216300599790349
"182"	182	0.64041601412469	0.929106890796009	0.00822992961050512	0.0209044473163362	0.0281145620087689	0.209825601362159
"183"	183	0.649990066651233	0.952008145043538	0.00358203872533987	0.0196238621493644	0.0275616360192751	0.203270114206982
"184"	184	0.657868718746255	0.970554258144891	0.00076366714382091	0.0188036508189884	0.0293427257861344	0.196745799385446
"185"	185	0.664001864034237	0.984635177635653	0	0.0185454775986987	0.0337682205708275	0.190368596100266
"186"	186	0.668376764169007	0.994206732517776	0.00150967233176848	0.0189566926791167	0.0411453140507318	0.184256844956354
"187"	187	0.671023681328169	0.999296275952658	0.00549831968874069	0.0201483815885382	0.0517693290081072	0.178529307982211
"188"	188	0.672017735415521	1	0.0121545373527804	0.0222338328408045	0.0659179589531591	0.1733029636143
"189"	189	0.671479225147733	0.996478770590049	0.0216457669397794	0.0253268626418115	0.0838452893128125	0.16869076326697
"190"	190	0.669572220126759	0.988952664812931	0.0341141736613135	0.0295400175181242	0.105775670378066	0.164799402037183
"191"	191	0.66650137959351	0.977694334631958	0.0496725891183194	0.0349826793952054	0.131897521484379	0.161727141095816
"192"	192	0.662506090931143	0.963016739518653	0.0684053935828734	0.0417612313418089	0.162363768959008	0.159563174296253
"193"	193	0.657857567132161	0.945277236077937	0.0903530565219954	0.0499721251173962	0.197269660773928	0.15838226701556
"194"	194	0.652847975719131	0.924859575693499	0.115515247127683	0.0597022044584887	0.236655571110398	0.158244485131359
"195"	195	0.647781802507503	0.90216238346642	0.143851040428636	0.0710282412468133	0.280505897083383	0.159194652483214
"196"	196	0.642967505567602	0.877592478016119	0.175274068430322	0.0840139774857691	0.328740689016082	0.161260237301157
"197"	197	0.63870825256452	0.85155576142404	0.209650821312272	0.0987083454063785	0.381211392665019	0.164450216918418
"198"	198	0.635292829628419	0.824448618445311	0.246799660437879	0.115143851706865	0.437697451390218	0.168754232654871
"199"	199	0.632987046022743	0.79665005514891	0.286490618142431	0.133335173859764	0.497903984626937	0.174142072549332
"200"	200	0.632025900551309	0.768514775579788	0.328446053250006	0.153278014109793	0.561460742744701	0.180563517961414
"201"	1	0.414635727943702	0.087831082959678	0.0559723006079447	0.042444340567011	0.0658959420522268	0.125713747748393
"202"	2	0.388420882896783	0.110650657314921	0.0547892579174267	0.040611344376202	0.0676229949229155	0.124500580542656
"203"	3	0.370272797325169	0.138241010501641	0.0544388258041655	0.0391338072842946	0.0693964048687896	0.123859877610187
"204"	4	0.360636650835667	0.170351166139841	0.0550009094049197	0.0380591356999613	0.0711700052290258	0.123906050704818
"205"	5	0.35966042498149	0.206541419260715	0.0565616366642867	0.0374269894480633	0.0728922623973466	0.124739969860051
"206"	6	0.367183021725645	0.246187069101157	0.059209655091122	0.0372672238536768	0.0745058081081473	0.126438976893834
"207"	7	0.382733551209353	0.288491435703991	0.0630319469300819	0.0375978588551748	0.075947810323616	0.129048322547286
"208"	8	0.405542922599211	0.332508614446591	0.0681095981844827	0.0384231757487021	0.0771513221788382	0.132574595583698
"209"	9	0.434568356881143	0.377175878052488	0.0745138586940844	0.0397320792753375	0.078047733178603	0.136981558405416
"210"	10	0.468530807641074	0.421355192628587	0.082302747322759	0.0414968728408967	0.0785703969925894	0.142188533051408
"211"	11	0.505965269237474	0.463881517115488	0.0915190328833542	0.0436727406683389	0.0786591455149867	0.148071441811884
"212"	12	0.545276665951341	0.503619698411888	0.102187056471136	0.0461973091915535	0.0782663785909833	0.154465192263236
"213"	13	0.584811185170233	0.539525345673756	0.114311882539061	0.0489915576923389	0.0773636254215037	0.161169603202405
"214"	14	0.622928648049439	0.570699288340546	0.127880207138543	0.0519615616019769	0.0759482494317813	0.167957603524497
"215"	15	0.658072352071547	0.596438620787313	0.142860024246897	0.0550005176621235	0.0740509028531903	0.174584814951083
"216"	16	0.688834534976459	0.616273762105285	0.159201106655485	0.0579916309668125	0.0717423062086319	0.180800866855642
"217"	17	0.714009431833785	0.629986038473885	0.176835612166834	0.0608117140978405	0.0691388832582447	0.186361472775115
"218"	18	0.732629445282563	0.637603832276773	0.195678972826956	0.0633354875802077	0.0664067112527259	0.191040501645373
"219"	19	0.743984756665678	0.639380611836594	0.215631395848203	0.065440513801244	0.0637633062115054	0.194641269073989
"220"	20	0.747629380531902	0.635760893484709	0.236580218249449	0.0670126369673956	0.0614769091500336	0.197006396504959
"221"	21	0.743373307269893	0.627338561922125	0.258403371448012	0.0679513984255099	0.0598638377679179	0.198025104134248
"222"	22	0.731294075256652	0.614828698019825	0.280970833781037	0.0681779768932066	0.0592804603773729	0.197642894314863
"223"	23	0.711708632138319	0.599019965246088	0.30415052704359	0.0676403692640873	0.0601155347624594	0.195862338674527
"224"	24	0.685170470312119	0.5807480991726	0.327811394867825	0.0663205904346432	0.0627783637316349	0.192745440611735
"225"	25	0.652459228072266	0.560868734057725	0.351827038451017	0.0642412438684553	0.0676850022566392	0.188412220069691
"226"	26	0.614566265119521	0.540231844742691	0.376078686675387	0.0614715518831979	0.0752426177928191	0.183036617180041
"227"	27	0.572671877718697	0.51965498092314	0.40045729421661	0.0581324830213938	0.0858324443149481	0.176839990086791
"228"	28	0.528109616317981	0.49989354948387	0.424864332154776	0.0544005924319335	0.0997918452341458	0.170082453805767
"229"	29	0.482316812183988	0.481609358155986	0.449210313145695	0.0505101842677447	0.11739606479806	0.163052063487768
"230"	30	0.436776168881303	0.46534216274914	0.473409819929675	0.0467535909545269	0.13884225096649	0.156052069788021
"231"	31	0.392952072619086	0.451483401064234	0.497372582042386	0.0434785988546592	0.164228237284892	0.149386469678583
"232"	32	0.352224380430977	0.440260927912254	0.520990781921736	0.0410821249867622	0.193538586658399	0.143344347959081
"233"	33	0.31583141910645	0.431735892440541	0.544124734167061	0.0400015537303488	0.226634378668614	0.138185670156175
"234"	34	0.28481856355194	0.425807574427699	0.566590441468546	0.0407020260253714	0.263242082047136	0.134127969685037
"235"	35	0.259996982783614	0.422228951756697	0.58815146169321	0.0436603506988588	0.302947778928693	0.131335154548206
"236"	36	0.241914227056364	0.420630440959102	0.608517164057682	0.0493459391393475	0.345196238128461	0.129909133533494
"237"	37	0.230837781001931	0.420548850337703	0.62734801615221	0.0581994223697679	0.389295608197015	0.129884727996245
"238"	38	0.226752027672779	0.421457985179662	0.644267223603243	0.0706097546960449	0.43442830648672	0.131228113275588
"239"	39	0.229368795789696	0.422798030621771	0.658877298658813	0.0868910531508532	0.479668334948324	0.133838914608762
"240"	40	0.238151965448229	0.424001959615451	0.670778798021907	0.107261789042862	0.524003697716952	0.137555971037466
"241"	41	0.252337662069871	0.424520599869933	0.679598622089665	0.131814420311211	0.566369322007918	0.142163532694718
"242"	42	0.270990175484203	0.42384344185352	0.685006053297694	0.160505903426955	0.60568089234046	0.147404680999446
"243"	43	0.29304491611573	0.421515654939614	0.686734867275888	0.193140049828036	0.640874135274537	0.152992845386731
"244"	44	0.317361155865116	0.41715226697159	0.684600854903593	0.229358127184611	0.670947403486875	0.158625476408082
"245"	45	0.342776866348595	0.410449959688496	0.678515222158218	0.268635750026583	0.695005660565832	0.163998177114806
"246"	46	0.36816299533371	0.401197392008722	0.668492819785785	0.310286914526824	0.712303088790728	0.168818489837513
"247"	47	0.392474528682879	0.389284131686666	0.654655027873187	0.353475764430018	0.722280960250968	0.172818583789779
"248"	48	0.414795746041944	0.374707058185286	0.637227648534217	0.397236507006733	0.724597161056642	0.175766168642052
"249"	49	0.434375094432467	0.357570806886955	0.616532180198127	0.440500979696159	0.719140006993181	0.177472298624021
"250"	50	0.450653967745484	0.338086332424392	0.592978053092702	0.482136061238794	0.706043033141033	0.177798705868523
"251"	51	0.463277524620685	0.316557546067737	0.567043959587191	0.520990281169058	0.685671602490728	0.176659922634223
"252"	52	0.472090115925361	0.293363577169581	0.539257966322645	0.555943163852588	0.658599762244829	0.174022250951731
"253"	53	0.477120410096232	0.268939069998404	0.510177255836579	0.585959529924152	0.625584436970451	0.169901541220177
"254"	54	0.478554492558932	0.243751455418273	0.480364526376347	0.610143185993118	0.587530254649003	0.164358616508844
"255"	55	0.476701721706422	0.218277782835794	0.450363047625578	0.627785549680026	0.545449027620552	0.157493059137873
"256"	56	0.47195740557302	0.192982858135998	0.420672648412231	0.638404687659709	0.5004155878188	0.149435785167439
"257"	57	0.464765902438885	0.168300123024438	0.391729324214643	0.641771518440295	0.45352282781356	0.140341045004135
"258"	58	0.455587044308386	0.144616520530409	0.363890803462121	0.637920103564126	0.405839352379135	0.130378582320452
"259"	59	0.444868337762599	0.122262475025747	0.337429627244142	0.627140334646028	0.358373213770471	0.11972680441434
"260"	60	0.433026664868253	0.101503011361862	0.31252969693941	0.609969229930631	0.312039431351148	0.108568572163807
"261"	61	0.420432072795387	0.0825390133070994	0.289294870133744	0.587142051805655	0.267636467996373	0.0970860802200413
"262"	62	0.407403830732723	0.0655088997140162	0.267758639836956	0.559556005341228	0.225830667652568	0.085459526072043
"263"	63	0.394211310812603	0.0504939931432541	0.24789735346461	0.528225808854344	0.187147751305669	0.0738666868023513
"264"	64	0.381079169737494	0.0375258416198708	0.229644082507843	0.494240208582033	0.151971737905965	0.06248391202794
"265"	65	0.368194193415302	0.0265945178745149	0.212902089748137	0.458722112519646	0.120550697122396	0.0514883177943979
"266"	66	0.355710653070944	0.0176571125751111	0.197557614198255	0.422793682925157	0.0930082803885148	0.0410608110883772
"267"	67	0.343751315963976	0.010645762927673	0.183491547300895	0.387546266588938	0.0693595165534437	0.0313894505069204
"268"	68	0.332404496125964	0.00547576595566741	0.170589870835704	0.354015832780437	0.0495312785827982	0.0226733200209115
"269"	69	0.321717854839895	0.00204890111246125	0.158749240202399	0.323157728215842	0.0333762497907021	0.0151238948976048
"270"	70	0.311693818095978	0.000259844538160327	0.147882455836485	0.295827241018718	0.0206960739410032	0.00896740863335587
"271"	71	0.302286800671787	0	0.137920362315911	0.272765050223022	0.0112612149250428	0.00444609970760712
"272"	72	0.293403622567215	0.00115923812757034	0.128811159925671	0.254583111017154	0.0048273020667434	0.00181715325057374
"273"	73	0.284908942321033	0.00362712779678409	0.120518615668499	0.241753270316775	0.00115047188584024	0.00135012712467553
"274"	74	0.276636043463464	0.00729324849054847	0.113019430031577	0.234597776037396	0	0.00332247978039124
"275"	75	0.268402650447036	0.0120467591168104	0.106300112580322	0.233281811476243	0.00116774784615112	0.00801320176837579
"276"	76	0.260030449550143	0.0177754531255872	0.10035354890348	0.237808910192271	0.00447416896902719	0.0156946295813876
"277"	77	0.251365802324847	0.0243646269672918	0.095175563676561	0.248021121000668	0.00977111814107345	0.0266231381018072
"278"	78	0.242298302691331	0.0316958767565899	0.0907616285679834	0.263603417016176	0.0169412807164121	0.0410287058532282
"279"	79	0.232775168371457	0.0396453339575631	0.0871025712498316	0.284084099184477	0.0258915187990925	0.0590966325104668
"280"	80	0.222807786856202	0.048085133273426	0.0841835206697394	0.308859074940331	0.0365501945031499	0.0809612386560279
"281"	81	0.212473713709876	0.0568834777718805	0.0819815818427506	0.337206559521969	0.0488577792628192	0.106690857902766
"282"	82	0.201913688363498	0.0659057984613938	0.080464839606201	0.368310163279108	0.0627577278928542	0.136275947700245
"283"	83	0.191324558960339	0.0750162332300288	0.0795920808922164	0.401285223400081	0.0781868560360149	0.169618727274344
"284"	84	0.180948635154495	0.0840792269980032	0.0793130500191655	0.435207070326104	0.0950657760331385	0.206524876497946
"285"	85	0.17105979996533	0.0929612023296086	0.0795690631196347	0.469140039578858	0.113289937005718	0.246697714151875
"286"	86	0.161946671488611	0.101532292641916	0.0802939027580927	0.50216594748222	0.13272179133323	0.289735117858071
"287"	87	0.153894267045154	0.109667738322536	0.0814151330246339	0.533409018420604	0.153185020871149	0.335130382746704
"288"	88	0.147162372951772	0.117250228076455	0.0828548067292344	0.562062483325008	0.174458441139309	0.382271082882251
"289"	89	0.141967616101376	0.124170944855497	0.0845316646592203	0.587408350557226	0.196275148321516	0.430448288911989
"290"	90	0.138467686249623	0.130330383616987	0.086363171713326	0.608834233411693	0.218322256216377	0.478865042032845
"291"	91	0.136748115808856	0.135639396137096	0.0882679734557848	0.625849636916796	0.240242589099768	0.526647998267128
"292"	92	0.136813275860225	0.140020444625441	0.0901689146152756	0.638099110828443	0.261639112627692	0.572863926970627
"293"	93	0.138581787125088	0.143409402423982	0.0919963485860649	0.645371235943142	0.282082588202237	0.616541499422801
"294"	94	0.141886604146665	0.145757944097058	0.0936913510593131	0.647601257585807	0.301123019512714	0.656698813150241
"295"	95	0.146480003407315	0.147036373906581	0.0952083048073144	0.644865641285577	0.318304965280864	0.692376502461979
"296"	96	0.152043672644362	0.147236321995595	0.0965162544572539	0.637366857470364	0.33318567421078	0.722674414081858
"297"	97	0.158202833212687	0.146373269140811	0.0975987037511734	0.625411348959753	0.345355498513485	0.746791502494602
"298"	98	0.1645442347075	0.144489699633892	0.098452157975219	0.609388135930534	0.354463414290165	0.764076004267706
"299"	99	0.170638280750515	0.14165402640116	0.0990827541868171	0.589732999480969	0.360231819701512	0.774051507475288
"300"	100	0.176061001394318	0.137961289230375	0.0995029361857277	0.566906016963437	0.362474679959037	0.776451525410015
"301"	101	0.180417495469397	0.133532215451769	0.0997281325890982	0.541370617680411	0.361110622144856	0.771243037878481
"302"	102	0.183365211630256	0.128511002871381	0.0997740821541423	0.513579012609721	0.35617139729506	0.758639903214383
"303"	103	0.184636135546751	0.123061545012445	0.0996550622851921	0.483964594584277	0.34780486276629	0.739103538442078
"304"	104	0.184056922628604	0.117362224854325	0.0993830247093531	0.452940640997841	0.336272533893325	0.713329850742043
"305"	105	0.181565787549226	0.111599801289921	0.0989674681645921	0.420903680969991	0.321942059745614	0.682223166545652
"306"	106	0.177223612659906	0.105963276210141	0.0984158254846876	0.388239245886566	0.305273554829147	0.646856822720265
"307"	107	0.171223219406725	0.100637591592437	0.0977347756078341	0.35532894395357	0.286805945782758	0.60843354022469
"308"	108	0.163884618366086	0.0957979634137057	0.0969316900966344	0.322553117626186	0.267130001246836	0.568223481292561
"309"	109	0.155644321272373	0.0916048894418104	0.0960166560244649	0.290291656723925	0.246862041243231	0.527507416693657
"310"	110	0.147035406234404	0.0881992196708506	0.0950046481905799	0.258919945806881	0.226616050330193	0.487520155462669
"311"	111	0.138658925362072	0.0856974877722299	0.0939175077134748	0.22880049525008	0.206976239377207	0.449398133598256
"312"	112	0.131149722878493	0.084187318471956	0.0927854468604447	0.200271932411935	0.188472519812029	0.41413548100148
"313"	113	0.125139406679095	0.0837228301970589	0.0916478992506609	0.173637222474399	0.171560355780813	0.382550816682602
"314"	114	0.121218780765725	0.0843204439167029	0.0905536020096444	0.14915276288075	0.15660592085093	0.355265959584513
"315"	115	0.11990250877419	0.0859560904575649	0.0895598351528499	0.127020152912306	0.143877487561472	0.332697805660998
"316"	116	0.121596537036831	0.0885637358636181	0.0887307188052171	0.107379867034586	0.133541504642997	0.315059253826967
"317"	117	0.126567267809343	0.0920353945684817	0.0881342945789984	0.090305155103584	0.125661039475813	0.302364102276851
"318"	118	0.134927132937985	0.0962262225400088	0.087839400781694	0.0758059877409855	0.120205603712008	0.294453381011144
"319"	119	0.14662199243454	0.100959745816632	0.0879116621842223	0.0638304032825447	0.117059476853331	0.291016267830073
"320"	120	0.161429089487019	0.106035762693418	0.0884092168056359	0.0542699073493496	0.116034288723486	0.291617355349876
"321"	121	0.178964483587831	0.111239811693286	0.0893784159547393	0.0469670618921971	0.116883419533144	0.295725253648638
"322"	122	0.198699993679434	0.116353588648713	0.0908497656063017	0.0417247358239395	0.119317122970432	0.3027407261548
"323"	123	0.219988956131562	0.121165543111463	0.0928343697878547	0.0383163964091378	0.123017386818213	0.312022999308794
"324"	124	0.242099406524179	0.125480886213787	0.0953210802507624	0.0364967730869642	0.127651940466402	0.322913828887542
"325"	125	0.264252367268352	0.129129721636699	0.0982747276737641	0.0360130072381665	0.132887389081482	0.334759826668965
"326"	126	0.285664693199145	0.131974979522767	0.101634033135014	0.0366117732407391	0.138399992972398	0.34693117822906
"327"	127	0.305594812735765	0.133915286836434	0.105312287611462	0.0380501014977677	0.143887513827018	0.358841944165629
"328"	128	0.323386289461243	0.13488596911646	0.109198223636974	0.040101788160155	0.149077633857799	0.36996407857708
"329"	129	0.338509161506046	0.134858086539306	0.113158264964839	0.0425626366090275	0.153734891998966	0.379838430524774
"330"	130	0.350595293493349	0.133835828892431	0.117040351239038	0.0452544019536192	0.157665476675542	0.388081434443086
"331"	131	0.35946529786126	0.131852720082348	0.120679362790371	0.0480271695985343	0.160719296944882	0.394386570324881
"332"	132	0.365144931660909	0.12896684020958	0.123904082120103	0.0507601556389907	0.162789212742252	0.398520667283179
"333"	133	0.367869303243604	0.125255381050457	0.126545439836261	0.0533610354816038	0.163807985693498	0.40031654998866
"334"	134	0.368073265438236	0.120808824111012	0.128445392888931	0.055763942053118	0.163743660937331	0.399663702029577
"335"	135	0.366369613447203	0.115725871253779	0.129466581107095	0.0579265639317456	0.162595310352505	0.396501156373883
"336"	136	0.363512384956798	0.110109186134111	0.129502794425972	0.059826725778219	0.16038972099694	0.390813982585332
"337"	137	0.360344591549426	0.104061124711577	0.128486664604015	0.0614578797928309	0.157176327488478	0.382626679150031
"338"	138	0.357741943803533	0.0976826865108334	0.126398098389613	0.0628250219862933	0.153025363594609	0.372004753260035
"339"	139	0.356551224564196	0.0910743843548345	0.123270698310896	0.0639407730166467	0.148026412425967	0.359057658517512
"340"	140	0.357529909571025	0.0843395406035531	0.119195935073832	0.0648220168610967	0.142287629730648	0.34394323961205
"341"	141	0.361292045415877	0.0775897790704883	0.11432444861158	0.0654872952263908	0.135934949663751	0.326871783440443
"342"	142	0.368264353300499	0.0709521327464651	0.108864181056295	0.0659550481000998	0.129110501135574	0.30810774690595
"343"	143	0.378655476462055	0.0645768331098034	0.103075314235516	0.0662427006301197	0.12196965718341	0.287967784778788
"344"	144	0.392442765673224	0.0586452038988976	0.0972622956638288	0.0663664220747783	0.114676445547332	0.266813986570819
"345"	145	0.409365920524806	0.0533746928809506	0.0917625452581758	0.0663420271842729	0.1073976879243	0.245045535799121
"346"	146	0.428951256001446	0.049022940019358	0.0869319183853768	0.066185783664607	0.100295461017742	0.223083285852191
"347"	147	0.450543297396879	0.0458880465921839	0.0831286615077627	0.0659158805553045	0.0935199315967849	0.201356111710824
"348"	148	0.473350245688098	0.0443049562608942	0.0806956460463711	0.0655537651592601	0.0872021402018447	0.18028632498031
"349"	149	0.496499468265991	0.0446377976381003	0.0799422383109166	0.0651251365283006	0.0814473140875896	0.160275366867088
"350"	150	0.519098113712549	0.0472681010342042	0.0811268925352296	0.0646604866162519	0.0763291858501105	0.141690680686413
"351"	151	0.540293438855152	0.0525791183583211	0.0844414507766443	0.0641950824990317	0.0718858051730467	0.124854614099507
"352"	152	0.559326950781112	0.060936708787438	0.0899979434184867	0.0637682174349503	0.0681172415127487	0.11003592183822
"353"	153	0.575575509436675	0.0726686413653527	0.0978192208103795	0.063421589102255	0.0649856527357967	0.0974447668454738
"354"	154	0.5885769645694	0.0880394386338533	0.107831282900885	0.0631966541748493	0.0624171356896152	0.0872285225894904
"355"	155	0.598036288899672	0.107223187373058	0.119859532696703	0.0631309951525052	0.0603060939415134	0.0794690814975781
"356"	156	0.603804905880332	0.130284516826709	0.133633368288401	0.0632544537936291	0.0585227623913504	0.0741870694802416
"357"	157	0.605852697284378	0.157155440972751	0.148790922619671	0.0635849044680903	0.0569215627850234	0.0713436362447879
"358"	158	0.604232472087417	0.187618237946035	0.164889155583794	0.0641243535878723	0.0553513926829535	0.0708450538389541
"359"	159	0.599044512303679	0.221294347151743	0.181417942278338	0.0648557412294344	0.0536671319919588	0.0725486518385877
"360"	160	0.590406124718905	0.257640825209539	0.19781791272568	0.0657408090332524	0.0517419177272591	0.0762696933620185
"361"	161	0.57842987696529	0.295955677309472	0.213501584503968	0.066719330513792	0.0494796441502904	0.0817887288705457
"362"	162	0.563212991438823	0.335393227461689	0.227877144778563	0.0677098999960059	0.0468270492285363	0.0888590178511102
"363"	163	0.544836693481848	0.374989738097248	0.240372299849138	0.0686121957493127	0.0437844058880252	0.0972144896599978
"364"	164	0.52338689269688	0.413701046361713	0.250465641983818	0.0693112790197669	0.0404156072080459	0.106573854597297
"365"	165	0.498970789520815	0.450451944591609	0.257709895621486	0.0696831682869026	0.0368540508350535	0.116650300516909
"366"	166	0.471747627949212	0.484191156421859	0.261757779607772	0.069601792988793	0.033307027673887	0.127157471608171
"367"	167	0.441959409227044	0.513951797068936	0.262385433364399	0.0689471534853096	0.0300571178253221	0.137816698916452
"368"	168	0.40995828401015	0.538911040624013	0.259512526442871	0.0676143226199525	0.0274605963293637	0.148364771568701
"369"	169	0.376226528424322	0.558442362008887	0.253218017309157	0.0655229212136082	0.0259427221430974	0.158561871029357
"370"	170	0.341385292057613	0.572153910857654	0.243750122291018	0.0626266349686092	0.0259896865598577	0.168199122142947
"371"	171	0.306190345726557	0.579909416986077	0.231529255581046	0.0589223255598585	0.028136998643352	0.177105126922744
"372"	172	0.271516791291897	0.581829718112659	0.217143246719931	0.0544580645393183	0.0329554549326687	0.185150573889994
"373"	173	0.238334589065273	0.578285043156363	0.201338329448551	0.0493407467291156	0.0410311799956453	0.192251667639914
"374"	174	0.207674316749656	0.56987097643241	0.185000979518271	0.0437414618616818	0.0529414392746171	0.198371140263576
"375"	175	0.180591953414898	0.557364665103546	0.169133090287913	0.037897965004964	0.0692338763025135	0.203515210465143
"376"	176	0.158128515280735	0.541679873310446	0.154823738080943	0.0321158321286622	0.0903987819617022	0.207730074667759
"377"	177	0.141269105510126	0.523811964498896	0.143213498737476	0.0267663995169199	0.116841610264153	0.211096587409154
"378"	178	0.130903215627023	0.504779509698713	0.135452370399617	0.0222815827856996	0.148855458595964	0.213724190644388
"379"	179	0.127787775911771	0.485566345660912	0.132652462875847	0.019145457398696	0.186594586430934	0.215744590418524
"380"	180	0.13251402007216	0.467067806981113	0.135837528245137	0.0178826405019233	0.230050134258503	0.217305342273321
"381"	181	0.145478992309823	0.450044541255057	0.145891494105088	0.0190436353334365	0.279029312934466	0.218563163451149
"382"	182	0.166869076967045	0.435088448641514	0.163514796584502	0.0231902717359382	0.333142963223188	0.219676689405655
"383"	183	0.196621688768924	0.422592554809225	0.18915895127611	0.0308682276578225	0.391782748267418	0.220798643566155
"384"	184	0.234433781760538	0.412743634090504	0.223003983490573	0.042591657673062	0.454129950476798	0.222066222617369
"385"	185	0.279752087809167	0.405522035477264	0.264923112829163	0.0588187667366131	0.519155668427464	0.223591055141744
"386"	186	0.331776697077075	0.400714180887534	0.31446328946478	0.0799287051073709	0.5856341959202	0.225448518760056
"387"	187	0.389473693516955	0.397936011126504	0.370839540582824	0.106199534400052	0.652167153533785	0.227668274847251
"388"	188	0.451597117581615	0.396666457133959	0.43294428376934	0.137788222492125	0.717218862313659	0.230227730358557
"389"	189	0.516720490416544	0.396289239308629	0.499372518587204	0.17471370247431	0.779163161598729	0.233049648086601
"390"	190	0.583277517616577	0.396140133818363	0.568463131929271	0.216843929098497	0.836341041050707	0.236004505123492
"391"	191	0.649610333166724	0.395555628542644	0.638355223817639	0.263889574921051	0.887124297028549	0.238917533056175
"392"	192	0.714025119554491	0.393920102515554	0.707057204867288	0.315397232214302	0.929993644385195	0.241580210439528
"393"	193	0.774857818146317	0.390708527396141	0.77253330161289	0.370753278020781	0.963619812610276	0.243766077334083
"394"	194	0.830537002581754	0.385517106620122	0.832791303931017	0.429197699471005	0.98693036053187	0.245248246893045
"395"	195	0.879649470437905	0.378084187865886	0.88597336815705	0.489837382003533	0.999179414175547	0.245817941652387
"396"	196	0.921001848672977	0.368300091134692	0.930442669987368	0.551667176278453	1	0.245302020307042
"397"	197	0.953673905813884	0.3562071720493	0.964859399507777	0.613595867780822	0.989435003195187	0.243577905469879
"398"	198	0.977059409931517	0.341991423681568	0.988240631944245	0.674476076404762	0.967941186088817	0.240584585035932
"399"	199	0.990890206714887	0.325966842269437	1	0.733136894523421	0.936364643026375	0.236328786497049
"400"	200	0.995239353226133	0.308553268506706	0.99996477335069	0.788417915043598	0.895889931010675	0.230885807098322
"401"	1	0.805024669578012	0.0659340432901534	0.139462211067838	0.0702751246740827	0.0611542187244734	0.153724404537946
"402"	2	0.835264119919397	0.0569226119867822	0.151382136918008	0.0732562225188529	0.0635577349688789	0.159475980518968
"403"	3	0.864613217547662	0.0481807709903293	0.163785735231493	0.0763058978581407	0.0659652041600328	0.164970194604759
"404"	4	0.89238598358747	0.0399650294678261	0.176481172282331	0.0793687011249486	0.0683133680499228	0.170025744225504
"405"	5	0.917891975323338	0.032552119059822	0.189264859348636	0.0823834928195731	0.070547063009805	0.174478270354251
"406"	6	0.940447645195179	0.0262345969200607	0.201927714719557	0.0852844172728447	0.0726213223955847	0.178183559353425
"407"	7	0.959389139314931	0.0213155918768828	0.214261939837195	0.0880020861417359	0.074503326901525	0.181020095044437
"408"	8	0.974086921891493	0.0181027211833561	0.226068126913901	0.0904649650117415	0.0761741963427052	0.182891072240877
"409"	9	0.983962559639519	0.0169012278090309	0.237162516396399	0.0926009534311448	0.0776305967201417	0.183725935618297
"410"	10	0.988507661651421	0.0180063975349614	0.247384201257556	0.0943391382105576	0.0788861215029022	0.183481438902745
"411"	11	0.987304432490338	0.0216953223290255	0.25660209967454	0.0956116824509566	0.0799724008831229	0.182142191754215
"412"	12	0.980046750019151	0.0282181327581633	0.26472152819113	0.0963558326791295	0.0809398882910237	0.179720660182191
"413"	13	0.966560269882553	0.0377888943877507	0.271690142769478	0.0965160695862799	0.0818582682954018	0.176256579034467
"414"	14	0.946819727115239	0.050576402180383	0.277502940982659	0.0960464247350035	0.0828164213936651	0.171815713168079
"415"	15	0.920961143610111	0.0666951508686253	0.282205982182035	0.0949129572004163	0.083921890165621	0.16648792529254
"416"	16	0.889286410295275	0.0861968231725589	0.285898445761532	0.0930963561872064	0.0852998362924918	0.160384607615566
"417"	17	0.852258601765448	0.109062689012534	0.288732560154243	0.0905945948680752	0.0870915167467903	0.153635639726454
"418"	18	0.810488321502513	0.135197333567328	0.290910823973165	0.0874255174248312	0.089452306563969	0.146386044922172
"419"	19	0.764712718304725	0.164424118958666	0.292680051695285	0.0836292204794627	0.0925492765281233	0.138792451140208
"420"	20	0.715769242518282	0.19648274540298	0.29432233689302	0.0792700988092098	0.0965583239897451	0.131019402887529
"421"	21	0.664566225590521	0.231029234590445	0.296143535292292	0.0744384261210234	0.101660849675832	0.123235574329704
"422"	22	0.612052167866012	0.267638615791216	0.298459969161588	0.0692513409633418	0.108039968380244	0.115609964071009
"423"	23	0.559185268432939	0.305810514492658	0.301583991087723	0.0638531171278763	0.115876235587077	0.108308148120621
"424"	24	0.506904350142562	0.344977724621533	0.305809058181738	0.0584146001677059	0.125342866539198	0.10148864081524
"425"	25	0.456102053944697	0.384517723448904	0.311395071672418	0.053131706739171	0.136600444870463	0.0952993935937046
"426"	26	0.407601034938286	0.423766945435804	0.318554767818679	0.0482229383461021	0.149791170566059	0.0898744810626589
"427"	27	0.362133812748282	0.462037453546647	0.327441856545121	0.0439259342992635	0.165032750961697	0.0853310681851985
"428"	28	0.320326779781438	0.498635471193341	0.338141461145373	0.0404931285194407	0.182412076222338	0.0817667535530379
"429"	29	0.282688611509131	0.532881101350137	0.350663270937452	0.038186580159976	0.201978866694875	0.0792573484702942
"430"	30	0.249603101056278	0.5641284657054	0.364937694186186	0.0372720446070584	0.223739554493769	0.0778551223308722
"431"	31	0.221326342444244	0.591785447170877	0.380815214093388	0.0380123709936207	0.247651744388323	0.0775875546088983
"432"	32	0.197988094464416	0.615332130910864	0.398069045932069	0.0406603516845546	0.27361961857446	0.0784566476432766
"433"	33	0.179596969458868	0.634336909242521	0.416401013033057	0.0454511830995399	0.301490592377454	0.0804388240050699
"434"	34	0.16604892133794	0.648469302705084	0.435450352911226	0.0525947215746218	0.331053450444879	0.0834854017083185
"435"	35	0.157138406702782	0.65750890502858	0.45480500333645	0.0622677373502936	0.362038096605196	0.0875236289334147
"436"	36	0.152571529279282	0.661350053780153	0.474014875101688	0.0746063827441746	0.394116931993996	0.0924582433078087
"437"	37	0.151980425621679	0.660001909986152	0.492606699011593	0.089699097545753	0.426907830411615	0.0981735130965194
"438"	38	0.154938197703664	0.653583980692419	0.510100034946793	0.107580187388553	0.459978744252542	0.104535714480368
"439"	39	0.160973862547532	0.642317699318063	0.526023887005878	0.128224321574866	0.492854020115458	0.111395986013162
"440"	40	0.169586941820073	0.626515076950539	0.539933211605185	0.151542184785929	0.525022467770611	0.118593496526783
"441"	41	0.18026142623678	0.606565582371663	0.55142443798044	0.177377482873958	0.555947163260925	0.125958884032021
"442"	42	0.192478989713537	0.58292222982285	0.560148956777431	0.20550547359304	0.585076897541916	0.133317928595297
"443"	43	0.2057313954407	0.556087498915847	0.565823664903372	0.235633196557061	0.611859126730208	0.140495403340973
"444"	44	0.219532018061193	0.526599404065226	0.568238172464267	0.267401586572783	0.63575422705645	0.147319041309725
"445"	45	0.233426384528923	0.495017878431691	0.56725864358825	0.300389631809366	0.656250749691617	0.15362354217036
"446"	46	0.247001604626372	0.461911653641751	0.562828509324003	0.334120692700704	0.672881214906918	0.159254511214302
"447"	47	0.259894536928316	0.427845804426968	0.554966627695862	0.368071050532587	0.685237816460164	0.164072195097229
"448"	48	0.271798505025381	0.393370068709745	0.543763592850161	0.401680684401277	0.692987273871405	0.167954888474878
"449"	49	0.282468336250615	0.359008067591443	0.529376770458069	0.434366150206332	0.695883858256095	0.170801884877779
"450"	50	0.291723495948312	0.325247614910931	0.512024370648196	0.465535269633322	0.693779446431925	0.172535810986228
"451"	51	0.299449141644242	0.292532357934726	0.491978638466534	0.494603167321044	0.686629698601268	0.173104177813751
"452"	52	0.305595098850033	0.261254974066369	0.469558115434337	0.521009044875698	0.674496064021424	0.17248004035443
"453"	53	0.310173004236399	0.231752076512353	0.445118969109861	0.544232946993219	0.657543936076942	0.17066175752329
"454"	54	0.313251870538411	0.204300911123717	0.419045641227801	0.563811661250058	0.636037494763239	0.16767192765979
"455"	55	0.314952116513939	0.179117846469791	0.391741254592558	0.579352923983414	0.610331716698487	0.163555631652368
"456"	56	0.315437950422491	0.156358565299325	0.36361817041521	0.590547358405304	0.580862031921698	0.158378151909692
"457"	57	0.314908054312725	0.136119794883826	0.335088902900702	0.59717786192194	0.548132044915721	0.152222326497855
"458"	58	0.313584789715773	0.118442378075398	0.306557428232255	0.599126331469135	0.512699634598068	0.14518565381259
"459"	59	0.311702441795133	0.103315473875134	0.278410938004275	0.596377674593853	0.475161781890398	0.137377236135653
"460"	60	0.30949514432968	0.0906816913180986	0.251012169697097	0.589021107142143	0.436138588042993	0.128914680215177
"461"	61	0.307185140172244	0.0804429602146744	0.224692503498224	0.577248852113025	0.396257095117778	0.11992110539755
"462"	62	0.304971991053641	0.0724669155664622	0.199746079259893	0.561352459424984	0.356135574836568	0.110522416544583
"463"	63	0.303023250368361	0.066593560780819	0.176425159846211	0.54171702310194	0.316368936806927	0.100844979642824
"464"	64	0.301466981165461	0.0626419609069306	0.154936873012435	0.518813589134193	0.277515822037606	0.0910137899473552
"465"	65	0.30038640952859	0.0604167158224372	0.135441388592091	0.493189951119785	0.24008777836054	0.0811511713973473
"466"	66	0.299816883166473	0.0597139941680591	0.11805151893174	0.465459827194833	0.204540722163561	0.0713760003606714
"467"	67	0.29974518157966	0.0603269363204697	0.102833653461963	0.43629024840033	0.171268721597833	0.061803400229421
"468"	68	0.30011118616639	0.0620503163793193	0.0898098633916252	0.406386927340386	0.140600019429777	0.0525448152253902
"469"	69	0.300811940485557	0.0646844963830154	0.0789609573551936	0.376477626553387	0.112795131625955	0.0437083483090612
"470"	70	0.301708052618152	0.0680387656784985	0.0702302562524155	0.347294088851111	0.0880468147885426	0.0353992536161483
"471"	71	0.302632160535045	0.0719341229795547	0.063527884443358	0.319553418813241	0.0664816798519803	0.0277205023662813
"472"	72	0.303398959008809	0.0762055272762815	0.058735408427371	0.293939786848721	0.0481632021518967	0.0207733540392084
"473"	73	0.303816180831808	0.0807036330399867	0.0557106575489711	0.27108716776684	0.0330958540491249	0.0146578637942328
"474"	74	0.303695831218418	0.0852960039881103	0.0542925523838885	0.25156363503324	0.0212300905859414	0.00947325636675303
"475"	75	0.302864785193075	0.089867783962492	0.0543057826932488	0.235857568265812	0.0124679532121559	0.00531809132194997
"476"	76	0.301173741406185	0.094321842574449	0.0555652243135113	0.224366073624806	0.00666909646322152	0.00229014533870739
"477"	77	0.298503860624692	0.0985784535523694	0.057880053215648	0.217385904811726	0.00365707209052696	0.000485957031240414
"478"	78	0.294771060888113	0.102574531878919	0.0610575641897082	0.215107093746924	0.00322572630437526	0
"479"	79	0.289928337448786	0.106262406312929	0.064906706483167	0.217609378668877	0.00514558779786811	0.000923477008112419
"480"	80	0.283966519902025	0.109608136769553	0.0692413330231154	0.224861411385756	0.00917014387239048	0.0033427556533267
"481"	81	0.276913735643049	0.112589470148448	0.0738831594556618	0.236722662089066	0.0150419143411858	0.00733749001292954
"482"	82	0.268833719026482	0.115193592042497	0.0786644534369988	0.25294794247479	0.0224982384613503	0.0129784972319258
"483"	83	0.259823045885189	0.117414837365931	0.0834304800078728	0.273194470882629	0.0312767096332391	0.0203254766555515
"484"	84	0.250007386407999	0.119252503109994	0.0880417123536452	0.297031333463469	0.0411202223409071	0.0294246605052389
"485"	85	0.239536911516965	0.1207088951759	0.0923757889701406	0.323951088811732	0.0517816028996836	0.0403064788461516
"486"	86	0.228581059141619	0.121787689400662	0.0963291722968164	0.353383175277689	0.0630277969971322	0.0529833191810379
"487"	87	0.217322991050638	0.122492633058173	0.0998184471822362	0.384708742804172	0.0746435830028803	0.0674474639541085
"488"	88	0.205954120637389	0.122826604312617	0.102781198147237	0.41727646951458	0.0864347524473826	0.0836693009875174
"489"	89	0.194669013684016	0.122791069264959	0.105176412996343	0.450418851690969	0.0982306651438673	0.10159589592526
"490"	90	0.183660821640221	0.122385982691351	0.106984374049903	0.483468516067102	0.109886055954774	0.121149988678565
"491"	91	0.173117283591817	0.121610167649804	0.108206016177509	0.515774150499056	0.121281950759333	0.142229453847746
"492"	92	0.163217282469896	0.12046217327134	0.10886175095622	0.54671559819299	0.132325586149417	0.16470726386132
"493"	93	0.154127925387956	0.118941553487752	0.108989772060948	0.575717682241327	0.142949321494574	0.188432000192724
"494"	94	0.146002114831707	0.117050449772367	0.108643845867199	0.602262506647737	0.153108647551696	0.21322897555609
"495"	95	0.138976568894688	0.114795301364083	0.107890601918294	0.625900142678415	0.162779510464064	0.238902076574382
"496"	96	0.133170211619041	0.112188490523712	0.106806392034596	0.646257604486919	0.171955212230775	0.265236464683179
"497"	97	0.128682832613823	0.109249763895666	0.105473848066511	0.663045871879648	0.180643141668903	0.292002227468434
"498"	98	0.125593929193154	0.106007307525988	0.103978315884761	0.676064534306465	0.188861569949142	0.318958978426622
"499"	99	0.123961684424523	0.102498382169779	0.102404357398445	0.685203511317375	0.196636709898991	0.345861274121795
"500"	100	0.123822097287138	0.0987694599373951	0.100832481819464	0.69044148741544	0.204000171919277	0.37246460655959
"501"	101	0.125188318321897	0.0948758488953753	0.0993362403259329	0.691841013701113	0.210986897405474	0.398531723571733
"502"	102	0.128050274880693	0.0908808210942882	0.0979797966499188	0.689540440468777	0.217633627562566	0.423839083790221
"503"	103	0.13237470574443	0.0868542986295092	0.0968160403904025	0.683743212433557	0.22397793053212	0.44818330989079
"504"	104	0.138105697680056	0.0828711928878352	0.0958852698105188	0.674705356559746	0.230057753939087	0.471387499597202
"505"	105	0.145165738712469	0.0790094900132259	0.0952144393190641	0.662721965794167	0.2359113952759	0.493307114405701
"506"	106	0.153457218508879	0.0753481850236668	0.0948169367972646	0.648113377609013	0.241577695447508	0.513834936971416
"507"	107	0.162864252753658	0.0719651567219158	0.0946928541761613	0.631211806974542	0.247096172267823	0.532904356203816
"508"	108	0.173254707734174	0.0689350418106142	0.094829722484682	0.612349269263271	0.252506791711924	0.550490243427969
"509"	109	0.184482341882042	0.0663271648640196	0.0952036759769777	0.591847563447371	0.257849215840647	0.56660713880875
"510"	110	0.196389018722596	0.0642036194621544	0.0957810126508433	0.570010877675003	0.263161570209462	0.581305011785818
"511"	111	0.208806959358544	0.0626176360740977	0.0965201269443828	0.547121277636398	0.268478869595717	0.594663081499879
"512"	112	0.221560977318547	0.0616123389407432	0.0973737629601394	0.523437000773093	0.273831191202135	0.606782118987197
"513"	113	0.234470643570898	0.0612199211264773	0.0982914854535165	0.499193130850541	0.27924158539619	0.617775566323782
"514"	114	0.247352386242752	0.061461191327522	0.0992222312084214	0.474603914760523	0.284723675082358	0.627759812725337
"515"	115	0.260021554718393	0.0623453904653509	0.100116767630031	0.449865702177442	0.290278955183922	0.636844036721986
"516"	116	0.272294463288962	0.0638701946559363	0.100929862631027	0.425159387341936	0.295893972700851	0.645120219560393
"517"	117	0.283990466042517	0.0660218877665128	0.101622019491184	0.400651643960856	0.301537744784269	0.652654160390331
"518"	118	0.294934155290377	0.0687757202943746	0.102160745633889	0.376495008012945	0.307159795960426	0.65947830012728
"519"	119	0.304957729962798	0.0720964615098194	0.102521407902647	0.35282729811573	0.312689133378124	0.665586991214334
"520"	120	0.31390355724832	0.07593913958043	0.102687726094318	0.329770877151182	0.318034382150855	0.670934597582444
"521"	121	0.321626940328663	0.0802499451456953	0.102651916412551	0.307432110923186	0.32308517805954	0.675436529450611
"522"	122	0.327999008108894	0.084967275989036	0.102414465339009	0.285901186613073	0.327714831160455	0.678973134793379
"523"	123	0.332909522983656	0.0900229199155546	0.101983514940038	0.265252321675982	0.331784235294391	0.681396277720905
"524"	124	0.336269397003167	0.0953433765225361	0.101373893235422	0.245544363966372	0.335146946839158	0.682538323445421
"525"	125	0.33801270542953	0.100851297661104	0.10060587390237	0.226821758735265	0.337655274263276	0.682223073871539
"526"	126	0.338097879165526	0.106467025113202	0.0997037692353678	0.209115792005324	0.339167122898861	0.680278007522092
"527"	127	0.336507778023033	0.112110213326239	0.0986944586707025	0.192445949050267	0.339553228159944	0.676547027031226
"528"	128	0.333248696817826	0.1177014953193	0.097605943423315	0.176821234577704	0.338704341483257	0.670902866827529
"529"	129	0.328348673160863	0.123164126567709	0.0964660145817567	0.162241389260557	0.336537947742244	0.663258416633899
"530"	130	0.321855490969614	0.128425545254377	0.0953011189161869	0.148698047125706	0.333004093807601	0.653576257812641
"531"	131	0.31383475502326	0.133418782761387	0.0941354918691457	0.136175925997351	0.328089865992255	0.641875651152029
"532"	132	0.304368361959928	0.138083671100662	0.0929905874556283	0.124654082629893	0.321822046202629	0.628236289580348
"533"	133	0.293553506422312	0.142367792809683	0.0918848016653049	0.114107176056911	0.314267511801344	0.612798253461233
"534"	134	0.281502171946219	0.146227108540432	0.0908334707631317	0.104506616851119	0.305531145820455	0.595757962646909
"535"	135	0.268340965309465	0.149626231310239	0.08984912143627	0.0958214662609247	0.295751468989217	0.577360614591331
"536"	136	0.254211187590138	0.152538388888982	0.0889419432534187	0.0880190120343094	0.285094556046318	0.557890054066755
"537"	137	0.239269107257213	0.154945170377401	0.0881204457421353	0.0810650471395092	0.27374687454233	0.537657065504148
"538"	138	0.223686416002312	0.156836175872194	0.087392246917107	0.0749239384553627	0.261907618393986	0.516986950852658
"539"	139	0.207650804667587	0.158208677456336	0.0867649178981287	0.0695585788719975	0.249780989679924	0.49620702622083
"540"	140	0.191366478584675	0.159067343676828	0.0862467929581386	0.0649303012767165	0.237568777868583	0.475634519377116
"541"	141	0.175054369073813	0.159423999851998	0.0858476725909766	0.0609988139419017	0.225463559805506	0.455565429581979
"542"	142	0.158951839852918	0.159297357784427	0.0855793935401507	0.0577221967623893	0.213642816144013	0.436264954198972
"543"	143	0.143311763538779	0.158712661211747	0.0854562588812338	0.0550569725350078	0.202264185260383	0.417959948352162
"544"	144	0.1284008663588	0.157701214076052	0.0854952946751027	0.0529582591443152	0.191462000506313	0.400833720254006
"545"	145	0.114497285827302	0.156299783700091	0.0857162888688831	0.0513800187892496	0.181345162547858	0.385023279111376
"546"	146	0.101887422827425	0.15454992097403	0.0861415805266659	0.050275411070197	0.171996290800476	0.370618933461098
"547"	147	0.0908621878158832	0.152497255860596	0.0867955771240291	0.0495972356553946	0.163472015411187	0.357665986677671
"548"	148	0.081712636109285	0.150190800784236	0.0877039920211453	0.0492984420479586	0.155804232220486	0.346168220221012
"549"	149	0.0747249744401127	0.147682250872441	0.088892815356205	0.049332687628696	0.149002127563532	0.336092827380186
"550"	150	0.0701750044146933	0.145025223134542	0.0903870524936411	0.0496549253948262	0.143054751800205	0.327376376864959
"551"	151	0.0683221543694545	0.142274362334457	0.0922092806892714	0.0502219917464727	0.137933869469684	0.319931231912069
"552"	152	0.0694033090940486	0.139484311667511	0.0943780876985214	0.0509931543954641	0.133596797688742	0.31365175642693
"553"	153	0.0736266594440828	0.136708640402862	0.0969064696604808	0.0519305910809832	0.129989038703233	0.308419804835135
"554"	154	0.0811657916989697	0.133998812053757	0.0998002676289083	0.0529997883848534	0.127046668945763	0.304109298363891
"555"	155	0.0921542442897624	0.131403186183968	0.103056726373993	0.0541698548746339	0.124698517799399	0.300589861593098
"556"	156	0.10668077832024	0.128966009529539	0.10666327552744	0.0554137418381219	0.122868160923791	0.297729590357509
"557"	157	0.124785587458402	0.126726397169094	0.110596624160276	0.056708359275785	0.121475725185472	0.295397069524356
"558"	158	0.146457599294963	0.124717354462343	0.114822248714582	0.0580345635587744	0.12043947835599	0.293462743997871
"559"	159	0.1716329583389	0.122964913098597	0.119294340687468	0.0593769853680738	0.119677206532338	0.291799814587237
"560"	160	0.200194742852869	0.121487454036544	0.123956243279389	0.0607236718750121	0.11910744068637	0.290284929911858
"561"	161	0.231973875576508	0.120295270184069	0.128741368659642	0.0620655442283373	0.118650615144166	0.288798911778398
"562"	162	0.266751098662093	0.119390373120563	0.133574548263541	0.0633957155082876	0.118230218664971	0.287227665681146
"563"	163	0.304259881950905	0.118766519294392	0.138373743166958	0.0647087375844528	0.117773977491861	0.285463421748679
"564"	164	0.344190114322745	0.11840943895722	0.143052034156387	0.065999840803864	0.117215093532154	0.28340645093622
"565"	165	0.386192321540922	0.118297225844738	0.147519804605511	0.0672642225412315	0.116493545698555	0.280967305296338
"566"	166	0.429882012068705	0.118400816637625	0.151687051848137	0.0684964397626182	0.115557449434458	0.278069521776345
"567"	167	0.474843660507153	0.118684471311941	0.155465785054878	0.069689952660298	0.114364437261364	0.274652625669487
"568"	168	0.520633830604358	0.119106170916905	0.158772445377758	0.0708368450018632	0.112882976980136	0.270675137511701
"569"	169	0.566783178880019	0.119617867803435	0.161530269191761	0.0719277220644227	0.111093487774436	0.266117163491225
"570"	170	0.612797658762695	0.120165559225708	0.163671521678928	0.0729517675849306	0.108989082612368	0.26098208540685
"571"	171	0.658159753108755	0.120689265402152	0.165139534636012	0.0738969318674482	0.106575805924882	0.255296965387429
"572"	172	0.702330687180927	0.121123108928106	0.165890487103584	0.0747502150903182	0.103872324437604	0.249111534214557
"573"	173	0.744754395144235	0.121395729969562	0.165894890757231	0.0754980045813271	0.100909072920885	0.24249583238383
"574"	174	0.784863742381094	0.121431235360546	0.165138759120685	0.0761264369179064	0.0977268695441671	0.235536675494525
"575"	175	0.822089242052138	0.121150791895607	0.163624423205289	0.0766217832133212	0.0943750684554756	0.228333222358247
"576"	176	0.855870138197849	0.120474901998417	0.161370907197142	0.0769708695822639	0.0909093845923897	0.220992009866669
"577"	177	0.885667338380459	0.119326362708493	0.158413720747448	0.0771615218563885	0.0873895475429216	0.213621824511673
"578"	178	0.910977650419763	0.117633851981787	0.154803922348398	0.0771829976377806	0.0838769124896248	0.206328736894709
"579"	179	0.931348982341177	0.115336014659611	0.150606408326441	0.0770263682008999	0.0804321264130098	0.199211575530807
"580"	180	0.946396129705934	0.112385896793554	0.14589751539512	0.076684822538269	0.0771129382471654	0.192358050059923
"581"	181	0.955816465067854	0.108755576314589	0.140762088888717	0.07615388552064	0.0739722431271027	0.185841663900916
"582"	182	0.959404500138062	0.10444079262194	0.13529020506798	0.0754315601179833	0.0710564468165391	0.179719492721712
"583"	183	0.95706404988626	0.0994653105745861	0.129573805132531	0.0745184059455759	0.0684042116911945	0.174030853959072
"584"	184	0.948816681525906	0.0938847034836374	0.123703501002672	0.073417565385948	0.066045624975409	0.168796879490812
"585"	185	0.934805571732283	0.0877892614670361	0.117765751180764	0.0721347522096664	0.0640018142721244	0.16402099324146
"586"	186	0.915294742220316	0.0813058313929501	0.111840557391603	0.0706782266676546	0.062285007764549	0.159690275294381
"587"	187	0.890664364669873	0.0745984666628274	0.105999782085299	0.0690587806293336	0.0608990069984908	0.155777658042851
"588"	188	0.86140300183266	0.067867786838525	0.100306120638679	0.0672897421501188	0.0598400100965927	0.152244838875561
"589"	189	0.828097353475378	0.0613489503567702	0.0948127208229888	0.0653869880543919	0.0590976940000353	0.149045737746209
"590"	190	0.7914196232481	0.05530815232467	0.0895634219921208	0.0633689425152486	0.0586564503710443	0.14613030250856
"591"	191	0.752112433229434	0.0500375906810426	0.0845935504068311	0.0612565369828743	0.0584966827956464	0.143448459907262
"592"	192	0.710971683695186	0.0458488906594283	0.0799311562453789	0.0590731076992028	0.0585960876698722	0.140954004688147
"593"	193	0.668828250687967	0.0430650618717575	0.0755985514069809	0.0568442198073115	0.0589308400836074	0.138608201663149
"594"	194	0.626529438217173	0.0420112019380236	0.0716140236688119	0.0545974200404426	0.059476608359856	0.136382864621565
"595"	195	0.584920923108855	0.0430042566364095	0.0679936335263394	0.0523619253338965	0.0602093378469773	0.134262714099074
"596"	196	0.544829616625825	0.0463421952044238	0.0647530079779588	0.0501682585274858	0.0611057657825786	0.132246872815769
"597"	197	0.507047542549391	0.0522930054057862	0.0619090224634864	0.0480478425801759	0.0621436482486738	0.130349393970113
"598"	198	0.472316551794486	0.0610839126131997	0.059481246840095	0.0460325604021242	0.0633017030038911	0.128598752078744
"599"	199	0.441313504368718	0.0728912129968467	0.057493050942085	0.0441542798889205	0.064559298435156	0.127036293118553
"600"	200	0.414635727943702	0.087831082959678	0.0559723006079447	0.042444340567011	0.0658959420522268	0.125713747748393
"601"	1	0.539600759745921	0.552391679635035	0.448791507475725	0.244171875484508	0.612062141825945	0.139254515277017
"602"	2	0.579480390148506	0.56619573843935	0.47017673566168	0.271022396701462	0.634481896073708	0.142159004542719
"603"	3	0.619873637058501	0.578850443153301	0.490866865814499	0.298912663325142	0.655295168621396	0.145597181982351
"604"	4	0.660268817835481	0.590240069311085	0.510637780974776	0.327641575257897	0.674265849998692	0.149485353475375
"605"	5	0.700131914313967	0.600246312243246	0.529272373160724	0.356986033853049	0.691167315681653	0.153731003959619
"606"	6	0.738915160282704	0.608749514086377	0.546564273054664	0.386703125785125	0.70578652776237	0.158234667207948
"607"	7	0.776066542476597	0.615630509518335	0.562321384785707	0.416532843307526	0.717928233431595	0.162891952232003
"608"	8	0.811040016640525	0.620773047907704	0.576369153931332	0.446201315317224	0.727419146019248	0.167595676422465
"609"	9	0.843306195410432	0.624066703579907	0.588553479405869	0.47542449850005	0.734111971762364	0.172238046421584
"610"	10	0.872363223172767	0.625410144502899	0.598743164512126	0.50391225527496	0.737889113223334	0.17671281987567
"611"	11	0.897747527147205	0.6247145970738	0.606831813187416	0.531372735461354	0.738665851618481	0.1809173829101
"612"	12	0.919039683588476	0.621905169350242	0.612736897525709	0.557515384452284	0.736389768253798	0.184754235772303
"613"	13	0.935882445955089	0.616928642036059	0.616405096585874	0.582058250186627	0.731048924961384	0.188133491189659
"614"	14	0.947989595228731	0.609756120726709	0.617812081706401	0.60473361480135	0.722671847797996	0.190974745162698
"615"	15	0.955144834556017	0.600381821148305	0.616958308769387	0.62528953394887	0.711322173627958	0.193207514328592
"616"	16	0.957210751450416	0.588826936676939	0.613870264039371	0.643495303660722	0.697100449372571	0.19477263559694
"617"	17	0.95413219125434	0.575140894598045	0.608599342757824	0.659145356958994	0.680142323944246	0.195623067079934
"618"	18	0.945937579890482	0.559401868447504	0.601220338590636	0.672062715158145	0.660615999403913	0.195724428490524
"619"	19	0.932738102353825	0.541716553383521	0.591829539676324	0.682101927967564	0.638719091632869	0.19505528943815
"620"	20	0.914724718823185	0.52221920279823	0.580542433512431	0.689151442901849	0.614675034454973	0.193607210810531
"621"	21	0.892163084081103	0.50106991529281	0.567491088726214	0.693135383321477	0.588729130442341	0.191384543044289
"622"	22	0.865386181900583	0.478452047355979	0.552821186442579	0.694014422488799	0.561144181962193	0.188403913922385
"623"	23	0.834780914078043	0.45456757993524	0.53668724419696	0.691781776215234	0.53219455230481	0.184692545370008
"624"	24	0.800797029298784	0.429639350581324	0.519256819894487	0.686479058676461	0.502167902019705	0.18029104721577
"625"	25	0.763915502847433	0.403899746454508	0.500699680562317	0.678179055234801	0.471352867614111	0.175248404227184
"626"	26	0.724645141841572	0.37758890508593	0.481188069014539	0.666990091718454	0.440037467496926	0.169622126371641
"627"	27	0.68351154413738	0.350950243655765	0.460894288826231	0.653054292407548	0.408504755543083	0.163476916781164
"628"	28	0.641046291171368	0.324226105856425	0.43998854627916	0.636545370575487	0.377028753931098	0.156883256168029
"629"	29	0.597776629329264	0.297653651923559	0.418637063153382	0.617666023263342	0.345870758443383	0.149915948278669
"630"	30	0.554215855631668	0.27146108922355	0.397000466048477	0.596645002963379	0.315276099832391	0.142652674590807
"631"	31	0.510854592754551	0.245864308433101	0.37523246931928	0.573733930644212	0.285471421773764	0.135172599549567
"632"	32	0.468153102956411	0.221063970063011	0.353478872772371	0.549203912778251	0.256662510753333	0.12755505897699
"633"	33	0.426536347385364	0.19724432519991	0.331877180900318	0.523340900734125	0.229034162310283	0.119878377049526
"634"	34	0.386385945615001	0.174568835268059	0.310555850155674	0.496445644407826	0.202746190654342	0.112218972321354
"635"	35	0.348035352125017	0.153178901409042	0.289633702079139	0.468827701954457	0.17793330392024	0.104650065889245
"636"	36	0.311769403794403	0.133194641692208	0.269220451604609	0.440801049013907	0.154707101960206	0.0972410761220102
"637"	37	0.277821632535825	0.114713571945939	0.249416631979753	0.412681797883295	0.133155539178262	0.0900571118202525
"638"	38	0.246373613420843	0.0978104824197481	0.230313697350366	0.38478493585853	0.113343696930128	0.0831586043207513
"639"	39	0.217555444601509	0.0825376830189589	0.211994174154241	0.357421149298435	0.0953148618718616	0.0766011213283623
"640"	40	0.191447285019041	0.0689255876823444	0.19453184647532	0.33089374117773	0.0790918558571502	0.0704353540518925
"641"	41	0.16808184568281	0.0569836123111604	0.1779919431669	0.305495632871969	0.0646785596961605	0.0647072618620668
"642"	42	0.147447706237725	0.0467013525116418	0.162431283224211	0.281506421154627	0.052061566213385	0.0594583519526304
"643"	43	0.129493825958895	0.0380503213556435	0.147898557466125	0.259189846246136	0.0412122406469998	0.0547261755208798
"644"	44	0.114136661619452	0.0309871872531749	0.134435551158271	0.238793475197061	0.032090221600135	0.0505454558942505
"645"	45	0.101253576459875	0.0254485195516053	0.122072149899752	0.220536632046572	0.0246374478247107	0.0469460288830214
"646"	46	0.0907008537734151	0.0213605536694442	0.11083142977457	0.204616875591513	0.0187883284782068	0.0439560151880755
"647"	47	0.0823142783369875	0.0186383793450072	0.100727799256652	0.191204709464881	0.0144683039555023	0.0416014297091388
"648"	48	0.0759141749215668	0.0171879269415793	0.0917669182736526	0.180441424418313	0.0115953369231543	0.039906617517034
"649"	49	0.0713102281778494	0.0169079433520971	0.083945667788453	0.172437286037375	0.0100813277940806	0.0388946115991139
"650"	50	0.0683059805327798	0.0176919258330341	0.0772521842836783	0.167270112970684	0.00983345202896031	0.038587389899416
"651"	51	0.0667029297843763	0.0194299910881275	0.07166597117801	0.164984275556107	0.0107554212019402	0.0390060149731299
"652"	52	0.0663041831629167	0.022010660807121	0.0671580981674184	0.165590132489661	0.0127486720759852	0.0401706477839632
"653"	53	0.0669176651903237	0.0253225421875163	0.0636914981356719	0.169063915460806	0.0157134872896322	0.0421004363688596
"654"	54	0.0683596820895486	0.029256492636902	0.0612224985889814	0.175351331868116	0.0195509756268221	0.0448142472519853
"655"	55	0.0704549145293775	0.0337051990696983	0.0596984021065297	0.184360112346977	0.0241615232556911	0.0483280712323038
"656"	56	0.0730403483618217	0.0385657314804082	0.0590597736383682	0.195965871275226	0.0294474110985374	0.0526557295414909
"657"	57	0.075967187601477	0.0437408301829045	0.0592418788234541	0.210016210515811	0.0353141933093368	0.0578091658308906
"658"	58	0.0791015843536203	0.0491392994900421	0.0601747100878069	0.226330913701944	0.0416708734210639	0.0637974082286825
"659"	59	0.0823256258277088	0.0546766570186567	0.0617837673677312	0.24470451152038	0.0484306218809879	0.0706260714147612
"660"	60	0.085538015218638	0.0602756150601918	0.0639908911731073	0.26490921383591	0.0555114262285786	0.0782968775448906
"661"	61	0.0886544541403806	0.0658664065491633	0.066715141224228	0.286698162820156	0.0628366781917318	0.0868072207448724
"662"	62	0.091607731304315	0.0713869653871617	0.069873710764008	0.309808953741554	0.070335704333841	0.0961497975140626
"663"	63	0.0943475190311308	0.076782968379915	0.0733828679585535	0.333967362331178	0.0779442441811772	0.106312321129086
"664"	64	0.0968398028855194	0.0820076858177877	0.0771589758655788	0.358891364042709	0.0856048745958579	0.117277565034719
"665"	65	0.0990659266358021	0.0870215672680688	0.0811194290051341	0.384294823800791	0.0932672813098458	0.129023757258765
"666"	66	0.101022686974688	0.0917928887331454	0.0851831600026141	0.409890463089145	0.100888695721025	0.141521611146436
"667"	67	0.102719863943878	0.0962964515405892	0.0892725203089519	0.435396324964514	0.108434134162622	0.154737988824018
"668"	68	0.10417917975182	0.100513431469455	0.0933137967623432	0.460538475465124	0.115876425679713	0.168634850841744
"669"	69	0.105432675276932	0.104430903499367	0.0972380953484537	0.485054715850396	0.123196201472979	0.183169611254323
"670"	70	0.106520934591044	0.108041321505531	0.100982144970986	0.508697971718417	0.130381742230511	0.198295625315197
"671"	71	0.107491212089995	0.111341955060508	0.104488998870133	0.531239272809784	0.1374286673853	0.213962817735031
"672"	72	0.108395525631346	0.11433428807913	0.107708614854441	0.552470298063518	0.144339471855315	0.230118454604313
"673"	73	0.109288768867351	0.117023383885615	0.110598305848781	0.57220549039089	0.151122935241193	0.246708051150342
"674"	74	0.110226882380151	0.11941722452179	0.113123059815873	0.590283725746588	0.157793433806373	0.263676391761117
"675"	75	0.111265311806511	0.121525689845266	0.115255192152498	0.606567017093742	0.164370086855282	0.280968971241351
"676"	76	0.112457034708537	0.123360853492985	0.116975715695737	0.620947161023587	0.170876254192723	0.298532043765171
"677"	77	0.113851090901851	0.12493573342399	0.118273493050558	0.633342470203664	0.177338382574556	0.316314538918231
"678"	78	0.115491445423471	0.126263618208754	0.119144754122473	0.64369616882659	0.183785105387208	0.334268979408857
"679"	79	0.117415773846383	0.127357734336744	0.119592989137089	0.651976619529474	0.190246365025535	0.352351943624309
"680"	80	0.119654484577132	0.128230805163726	0.119628490804957	0.658175993000207	0.196752445010291	0.370524415512792
"681"	81	0.122229918455573	0.128894684113307	0.119267791126365	0.662308432789743	0.203332970551252	0.388751781358064
"682"	82	0.125155720017319	0.129360073573881	0.118533011646859	0.664407704494789	0.210015888980462	0.40700344924872
"683"	83	0.128436385104707	0.129636337234656	0.117451148677919	0.664524368304451	0.216826453271681	0.425252098065356
"684"	84	0.132067003141406	0.129731412310305	0.116053315020652	0.662722619159299	0.223786239866872	0.443472608315977
"685"	85	0.136033337732422	0.129651756115362	0.114373862092096	0.659076322814518	0.230912303956464	0.461640739580729
"686"	86	0.140312027229747	0.129402415202912	0.112449612669541	0.65366556103916	0.238216420185373	0.479731647966414
"687"	87	0.14487003089474	0.128987759700181	0.110319785491418	0.646579395877271	0.245703728609595	0.497718798824674
"688"	88	0.149666600285134	0.12841104336874	0.108024219360664	0.637906283692706	0.25337286230138	0.515572323129421
"689"	89	0.154653650849616	0.127674957136078	0.105603086472235	0.627735137086673	0.261215206524639	0.533257861121087
"690"	90	0.159776867061436	0.126781949139023	0.103096221410571	0.616154266987716	0.269214551120635	0.550735501529933
"691"	91	0.164977036750224	0.125734560827683	0.100542494467717	0.603250963575043	0.277346915156581	0.567958969061039
"692"	92	0.170191600179867	0.124535765991254	0.0979792385791514	0.589111665772811	0.285580570015165	0.584875124493525
"693"	93	0.175356371338851	0.123189297670478	0.0954417379262158	0.573822619876939	0.293876275432455	0.601423810859913
"694"	94	0.180407364034511	0.121699944480246	0.092962783490316	0.557470883238093	0.302187723599461	0.617538040440417
"695"	95	0.185282636362915	0.120073797217957	0.0905722973645063	0.540145498272177	0.31046216596326	0.633144481735936
"696"	96	0.189923648395925	0.118318259097719	0.0882972206251478	0.521937558318039	0.31864096033444	0.648163238881387
"697"	97	0.194277730444363	0.116442616598919	0.0861608307210082	0.50294442780708	0.326660790076268	0.66251088666458
"698"	98	0.198298884343029	0.114457649665231	0.0841828124487093	0.483267698231376	0.334454510144378	0.676100061855793
"699"	99	0.201948506539367	0.112375525071901	0.0823792331332538	0.46301351968959	0.341951875969502	0.68884011085492
"700"	100	0.205195979492672	0.110209660392187	0.0807624463137241	0.44229275098817	0.349080463461224	0.700638336164068
"701"	101	0.208018729643787	0.107974460865208	0.079341109998324	0.421220253591436	0.355766564539541	0.711401091232668
"702"	102	0.210401920254958	0.105685027012042	0.0781202577281892	0.399913899034728	0.361936141956398	0.721035079648738
"703"	103	0.212337870844609	0.103356862875092	0.0771014220164807	0.378493403760532	0.36751586770319	0.729448879356608
"704"	104	0.213825288193984	0.10100561222706	0.0762828116004876	0.357079071480887	0.372434255122025	0.736554675598146
"705"	105	0.214868362851081	0.0986468516976114	0.0756595428912262	0.335790489176738	0.376622881205377	0.742270158829315
"706"	106	0.21547554896428	0.0962959736980286	0.0752240111391298	0.314745376662048	0.380017253096858	0.74651974714329
"707"	107	0.215658552106281	0.0939681782471585	0.0749661701272655	0.294058463033213	0.382558101674771	0.749236590499024
"708"	108	0.215432296252739	0.0916784032187241	0.0748734500783955	0.273838773668545	0.384195224325337	0.750368824891481
"709"	109	0.214812217003829	0.0894415161575844	0.0749318167534855	0.254189585115743	0.384885648260219	0.749875647938966
"710"	110	0.213813804335427	0.087272460183708	0.0751259165526039	0.235206832484886	0.384595976095386	0.747730898072606
"711"	111	0.212451649748661	0.0851864232693347	0.0754394877233831	0.216978000272303	0.383303497985013	0.743924328088589
"712"	112	0.210738667692472	0.08319898020854	0.0758557608405672	0.199581198090268	0.380997129287866	0.7384625763244
"713"	113	0.208685549291443	0.0813261682264071	0.0763578358836258	0.183084445241472	0.377678111776405	0.731369776879896
"714"	114	0.20630049496513	0.0795844658106207	0.0769290282283731	0.167545172504474	0.373360424672016	0.722687760070352
"715"	115	0.203589262145958	0.0779906608112326	0.0775531803904959	0.1530099357184	0.36807088916398	0.712475852163411
"716"	116	0.20055555082319	0.0765616096879026	0.0782149363012681	0.139514323042164	0.36184897946475	0.700810323836345
"717"	117	0.197201258140385	0.0753141974361128	0.0788999880950123	0.127084644979046	0.354745127376169	0.687781652566992
"718"	118	0.193528858996757	0.0742641723961374	0.0795951782389227	0.115733741264272	0.346823575842536	0.673498925937771
"719"	119	0.189541731479081	0.0734262381756208	0.0802887480767722	0.105464784293223	0.338158238681284	0.658083561473629
"720"	120	0.185245901140797	0.0728135528625166	0.0809703857242467	0.0962714403378479	0.328831776366423	0.641668176986291
"721"	121	0.180652001699162	0.072437160221513	0.0816312661644585	0.0881379650756019	0.318934401325665	0.624395141077904
"722"	122	0.175777201485673	0.0723054985962694	0.0822640705938247	0.0810398158023768	0.308562153787486	0.606414425326478
"723"	123	0.170647112224086	0.0724239398695224	0.082862982653787	0.0749443460675938	0.297815069595208	0.587881384067332
"724"	124	0.165297561888603	0.0727943875446468	0.0834236670078182	0.0698115701489555	0.286795308205669	0.568954526818264
"725"	125	0.159776112929064	0.0734149594996121	0.083943235721978	0.0655949817916001	0.27560531107844	0.549793340711903
"726"	126	0.154143216869315	0.0742797744939446	0.084420207309911	0.062242410867102	0.264346058534344	0.53055621379501
"727"	127	0.148472942864105	0.0753789873000924	0.0848544340228145	0.0596973503829569	0.253115555519323	0.511398628883825
"728"	128	0.14285337342554	0.0766986608106367	0.0852470720334867	0.0578993167904108	0.242007595834437	0.492471601288692
"729"	129	0.137385786450307	0.0782205059962586	0.0856005966626081	0.0567833981694817	0.231109982918512	0.473918974090247
"730"	130	0.132183785514223	0.0799229045952475	0.0859185737663141	0.0562836089806919	0.220503986692466	0.455876651643241
"731"	131	0.127371823443611	0.0817810105975626	0.0862056006294009	0.0563326971282865	0.210263557822859	0.438471094197421
"732"	132	0.123083185327776	0.0837672629936892	0.0864671606829064	0.0568629653708892	0.200454753525074	0.421818020602092
"733"	133	0.119457549353487	0.085851982443796	0.086709449923204	0.0578070491188222	0.191135298614853	0.406021194196703
"734"	134	0.116638198550034	0.0880040246299039	0.0869391841677801	0.0590986380780864	0.182354262814592	0.391171315213445
"735"	135	0.114768959913734	0.0901914639600505	0.0871634014304228	0.0606731307942507	0.174151860206808	0.377345086913915
"736"	136	0.113990954876987	0.0923822908505162	0.0873892701302154	0.0624682162356922	0.166559384846673	0.364604523692491
"737"	137	0.11443924802415	0.0945451128941723	0.0876239059228625	0.0644243802673212	0.159599288719132	0.352996541542114
"738"	138	0.116241816745838	0.0966497153566277	0.0878742298218347	0.0664854201819355	0.153286438824013	0.342554726258883
"739"	139	0.119509999489367	0.0986680470135929	0.0881467155176899	0.068598399078249	0.147625514568154	0.333294178763199
"740"	140	0.124340298817182	0.100574732278001	0.0884472620339902	0.0707144827413108	0.142613954424798	0.325216396489539
"741"	141	0.130810776690079	0.102347664133285	0.0887810324882308	0.072788971340155	0.138242026874484	0.318309046086525
"742"	142	0.138978017094989	0.103968572401853	0.0891522932051848	0.0747814397146747	0.134493156553789	0.312546203694011
"743"	143	0.148874859227347	0.105423485518353	0.0895642703665814	0.0766558606855421	0.131344436201064	0.307888937226697
"744"	144	0.160508554551708	0.106703083262925	0.0900190207480395	0.0783806863261221	0.12876710871629	0.304285829998184
"745"	145	0.173859401266944	0.107802919313518	0.0905173168070926	0.0799288921209094	0.126727019072315	0.301673449663915
"746"	146	0.188879901713062	0.108723495435047	0.091058549429847	0.0812779884684968	0.125185049632429	0.299976810752987
"747"	147	0.205494477073538	0.109470183636242	0.0916406548072631	0.0824100036857385	0.124097558466673	0.299109901562686
"748"	148	0.223600713660318	0.110052900251144	0.0922600923355407	0.0833112741114047	0.123417090862531	0.298976793804231
"749"	149	0.243068619467316	0.110485934842849	0.0929117822943157	0.0839725806287338	0.123092426185698	0.2994716696262
"750"	150	0.263740559226593	0.110787647144993	0.0935890863375898	0.0843894494639506	0.12306881055068	0.300479446273554
"751"	151	0.285437302803283	0.110979449807325	0.0942839393548024	0.0845613101981427	0.123289617043678	0.301879034177387
"752"	152	0.307958838884444	0.111085351622716	0.0949868656636299	0.0844915966524173	0.123696559553235	0.303544165478114
"753"	153	0.331087490396938	0.111131250543405	0.0956870666835638	0.084187519812054	0.124230463574551	0.305345349029622
"754"	154	0.354591491179249	0.11114419825558	0.0963725360108529	0.08365978645923	0.124832096763225	0.307152024750018
"755"	155	0.378228960197519	0.111151658107355	0.0970302061951976	0.0829222644049711	0.125443041488767	0.308834849970399
"756"	156	0.401752202225222	0.111180775841976	0.0976461311387346	0.081991596276479	0.126006590731151	0.310268046742669
"757"	157	0.424912250500828	0.111257677349155	0.0982057032290172	0.0808867661197799	0.126468651561685	0.311331749650042
"758"	158	0.447463546983924	0.111406804554848	0.0986939015387685	0.079628627399993	0.12677863861446	0.311914300208647
"759"	159	0.469166822528991	0.111650496207411	0.0990953976741298	0.0782392179446805	0.126889932262051	0.311913301722759
"760"	160	0.489798181560445	0.112007943219931	0.0993953067180282	0.0767418517452032	0.126761742816276	0.311240699636308
"761"	161	0.509150227423479	0.112495103281682	0.0995791647411558	0.0751599435258399	0.126359064626372	0.309822255166963
"762"	162	0.52703661650354	0.113124263345987	0.0996333322327465	0.073516687740781	0.12565345798188	0.307599635493964
"763"	163	0.543296022616464	0.113903730328941	0.0995453504167802	0.0718346108694351	0.124623626812387	0.304531886170798
"764"	164	0.557795552678217	0.11483763027884	0.0993042719016108	0.0701351519993278	0.123255803979676	0.300596405547531
"765"	165	0.570433711958169	0.115925792463484	0.0989009825682729	0.0684383098610605	0.121543960777408	0.295789482726483
"766"	166	0.581142846217196	0.11716370983523	0.0983285196200217	0.0667623633469021	0.119489826182195	0.290126369916944
"767"	167	0.589891001396863	0.11854256730369	0.097582391139177	0.0651236693366677	0.117102707031441	0.283640869614681
"768"	168	0.596683163718453	0.120049330903517	0.0966609001402561	0.0635365399544492	0.114399115799662	0.276384441605179
"769"	169	0.601560390970975	0.121666966315053	0.0955653377237006	0.062013257828554	0.1114020235684	0.268424386169006
"770"	170	0.604602428986179	0.123374459717425	0.0943005541746862	0.0605640335863242	0.108140634689646	0.259843239744465
"771"	171	0.605928212185656	0.125147080906251	0.0928754111133266	0.0591969988525084	0.104649747488447	0.25073705092238
"772"	172	0.605689559624292	0.126956905680533	0.0913026447063611	0.0579185679678595	0.100968273971764	0.241211703293178
"773"	173	0.604070706503995	0.128773021986856	0.0895993123455668	0.0567335869321993	0.0971386984557201	0.231381419457863
"774"	174	0.601284789586856	0.130561884559367	0.0877869970696659	0.0556455960518962	0.0932061799267518	0.221366381102955
"775"	175	0.597569499536026	0.132287696060745	0.0858919488612556	0.0546571234728872	0.0892176344141645	0.211290279861584
"776"	176	0.593182095958999	0.133912819304292	0.0839451500062102	0.0537699949926626	0.085220816828463	0.201277855316404
"777"	177	0.588393993522876	0.135398225891353	0.0819822917495485	0.0529856457208527	0.081263422533398	0.191452477445981
"778"	178	0.583485096177025	0.136703984706326	0.0800436526476082	0.0523054197690195	0.0773922247484914	0.181933822501029
"779"	179	0.578738027982626	0.137789791337839	0.0781738682594586	0.0517308431435667	0.0736522610458149	0.17283568238821
"780"	180	0.574433680226437	0.138614995151769	0.0764218816548193	0.0512640535227954	0.0700864622334102	0.16426505664507
"781"	181	0.570842825414418	0.139140628892126	0.0748397624788145	0.0509074090862579	0.0667339669089685	0.156317329202612
"782"	182	0.568222483486589	0.139328760580137	0.0734825477793168	0.0506641454345443	0.063630311767373	0.149077134176938
"783"	183	0.566810878083478	0.13914338911827	0.0724073727453742	0.0505382620411371	0.0608067258900813	0.142616411616841
"784"	184	0.566822896320592	0.138551047955878	0.0716725163192306	0.0505344812000434	0.0582896767317034	0.136993280662818
"785"	185	0.568446075600239	0.137521383093603	0.0713363146748746	0.0506581460576079	0.0561005290892645	0.132251273221256
"786"	186	0.571837096938536	0.136027745512166	0.0714559495912739	0.0509150512198049	0.0542553007666034	0.128418881470652
"787"	187	0.577118800916646	0.134047807040285	0.0720861426501378	0.0513112107752127	0.052764514070142	0.125509412998246
"788"	188	0.584377748182281	0.131564202725631	0.0732777979854872	0.0518525716883037	0.0516331403612213	0.123521136906657
"789"	189	0.593662365079334	0.128565201930745	0.0750766406307893	0.0525446852737065	0.0508606354585423	0.122437695844133
"790"	190	0.604983533392685	0.125044936385857	0.0775225023970871	0.0533924952529624	0.0504413718617478	0.122229501649872
"791"	191	0.618310470629969	0.12100501943204	0.080646985052791	0.0543997077448556	0.050364225250496	0.122853022296214
"792"	192	0.633570483575306	0.116455419396879	0.0844719733113568	0.0555683648587211	0.0506128177810329	0.124251759482616
"793"	193	0.650654225782637	0.111414069786296	0.0890101182086807	0.0568988464565041	0.0511666138003296	0.126359167264289
"794"	194	0.669415324631445	0.105908089624474	0.0942633842924541	0.0583894111747994	0.0520010138862767	0.129099080014164
"795"	195	0.689672669173564	0.0999744396888348	0.100222447858221	0.0600359368980377	0.0530878735426724	0.132387138650134
"796"	196	0.711213241520275	0.0936604965941672	0.106866323129854	0.0618317112756954	0.0543960891546942	0.136132331546837
"797"	197	0.733795414591677	0.0870244992936839	0.114162235605898	0.063767275060899	0.0558922431391358	0.140238630572027
"798"	198	0.757152622421861	0.0801358297736349	0.122065753172455	0.0658303190911627	0.057541296753914	0.144606689746678
"799"	199	0.780997265826134	0.0730751022405589	0.130521179519042	0.0680056356109272	0.0593073164508436	0.149135563995637
"800"	200	0.805024669578012	0.0659340432901534	0.139462211067838	0.0702751246740827	0.0611542187244734	0.153724404537946
"801"	1	0.945532505623462	0.566214100668266	0.894038047518673	0.623655864868312	0.705218714024963	0.137331703908354
"802"	2	0.967902147210729	0.537632972781076	0.904293761608197	0.649871611884601	0.701817359010867	0.137596228389973
"803"	3	0.984573719359599	0.509398413169893	0.909561320079635	0.672934961444136	0.694627139992486	0.137560556473124
"804"	4	0.995319943668022	0.481617857762221	0.909839147874731	0.69249527515692	0.683706987235308	0.137186738480293
"805"	5	1	0.454391717595706	0.905192393395839	0.708241541432191	0.669175950221773	0.136447530421448
"806"	6	0.998563237195852	0.427814931272925	0.895748106738938	0.719909088586199	0.651209435278628	0.135326524664743
"807"	7	0.991051025685486	0.401977977401465	0.881689567651685	0.727285935636806	0.630034407864098	0.133817925751968
"808"	8	0.977596829977443	0.376967311700104	0.863250246325581	0.730218663828131	0.60592372403102	0.131925995798251
"809"	9	0.958424701884791	0.35286523375079	0.840707854514473	0.728617650800525	0.579189719405234	0.129664228429325
"810"	10	0.933846365241692	0.32974926628798	0.81437879266917	0.722461441476908	0.550177164459582	0.1270543263437
"811"	11	0.904256920309019	0.307691198969267	0.784613111778373	0.71180000223771	0.519255787081172	0.124125058402699
"812"	12	0.870129018941482	0.286755939213889	0.751789937321596	0.696756614400395	0.48681266957219	0.120911070840358
"813"	13	0.832005201143232	0.267000281323691	0.716313158979498	0.67752819823264	0.453244809642883	0.117451717051495
"814"	14	0.790488018313591	0.248471687167026	0.67860707950105	0.654383952560108	0.418952053242568	0.113789954385216
"815"	15	0.746227784321525	0.231207175331703	0.63911175849461	0.627662328726009	0.384330526720613	0.109971341144324
"816"	16	0.699908262591395	0.215232407401963	0.598277994514213	0.59776642925088	0.349766622914153	0.106043145464484
"817"	17	0.652230989750783	0.200561014162321	0.556562014602656	0.565157943290517	0.315631514167473	0.102053557100687
"818"	18	0.60389903808157	0.18719414509273	0.514419922114187	0.530349727186614	0.282276111990298	0.0980509761983741
"819"	19	0.555600942869087	0.175120198844579	0.472301922581728	0.493897113689589	0.250026439111133	0.0940833394673933
"820"	20	0.507995431391228	0.164314717217127	0.430646350458634	0.456388050955668	0.219179474816978	0.0901974552286689
"821"	21	0.461697491788768	0.154740467005763	0.389873544640682	0.418432267950195	0.189999577939541	0.0864383559487204
"822"	22	0.41726622516029	0.146347740966406	0.350379708217488	0.380649731993698	0.162715586831646	0.0828486979044008
"823"	23	0.375194850454692	0.13907490693485	0.312530997838849	0.343658711145751	0.137518671433449	0.0794682378886952
"824"	24	0.33590313186045	0.132849238711234	0.276658123079566	0.308063827072374	0.114560981625259	0.076333415861683
"825"	25	0.299732360945861	0.127588046198037	0.243051690538818	0.27444449414132	0.0939551030254698	0.0734770666174161
"826"	26	0.266942900784149	0.123200100935576	0.211958458890277	0.243344080041854	0.0757743005091967	0.0709282682678335
"827"	27	0.237714204484137	0.119587345897856	0.183578608349769	0.215260047605274	0.0600535058258631	0.0687123216298693
"828"	28	0.212147133301367	0.116646873209248	0.158064074939671	0.190635275654726	0.0467909917706389	0.0668508510842031
"829"	29	0.190268315383009	0.114273136395588	0.135517953002302	0.169850707389379	0.0359506630893764	0.0653620219819723
"830"	30	0.172036208645243	0.112360334897071	0.115994926728052	0.15321942905021	0.0274648820051543	0.0642608689519106
"831"	31	0.157348463090696	0.110804874794029	0.0995026540711037	0.140982240479958	0.0212377380822065	0.0635597192193129
"832"	32	0.146050144509895	0.109507792357485	0.0860040002187877	0.133304741959505	0.0171486651788971	0.063268688765977
"833"	33	0.137942416612045	0.10837703073472	0.0754200018958866	0.130275932376942	0.0150563051922035	0.0633962319309918
"834"	34	0.132791344837676	0.107329457185881	0.0676334395683488	0.13190829455143	0.0148025194572231	0.0639497238268411
"835"	35	0.130336507396236	0.106292516004152	0.0624928961857693	0.138139325555816	0.0162164567951925	0.0649360494301729
"836"	36	0.13029908464397	0.105205441063116	0.0598171852322882	0.148834450433947	0.0191185989928708	0.0663621700737619
"837"	37	0.132389142706626	0.104019985614163	0.059400038278973	0.163791240347401	0.0233247114232558	0.0682356382032659
"838"	38	0.136311966819947	0.102700668693811	0.0610149479904149	0.182744835469757	0.0286496310318333	0.0705650355801261
"839"	39	0.141773421633234	0.101224574403464	0.0644200734644702	0.205374449266818	0.0349108286203357	0.0733603156068455
"840"	40	0.148484375697323	0.0995807481591688	0.069363123477378	0.231310809675221	0.0419316874616262	0.0766330343681139
"841"	41	0.156164287282647	0.0977692260240582	0.0755861327726034	0.260144369904455	0.0495444478676819	0.0803964624418641
"842"	42	0.164544097265563	0.0957997306764449	0.0828300585631215	0.291434102190287	0.0575927768172603	0.0846655814667647
"843"	43	0.173368582646767	0.0936900829804697	0.0908391372841051	0.324716666833509	0.0659339341158821	0.0894569815155807
"844"	44	0.182398292288785	0.0914644079991002	0.099364946851814	0.359515716197479	0.0744405219625452	0.0947886855148791
"845"	45	0.191411142220586	0.0891512534518903	0.108170132106512	0.395351050482201	0.0830018099980184	0.10067993290293
"846"	46	0.200203709449206	0.0867817610679426	0.117031761133698	0.431747309434499	0.0915246186551678	0.107150954838544
"847"	47	0.208592233816424	0.0843880236083335	0.125744286655181	0.468241909205607	0.0999337324560988	0.11422276992451
"848"	48	0.216413307580856	0.0820017351145854	0.134122085110334	0.504392011664495	0.10817181758071	0.121917020502583
"849"	49	0.223524239124885	0.0796532080560319	0.142001541541285	0.53978038943321	0.116198852970581	0.130255852589421
"850"	50	0.229803113251353	0.0773707855825165	0.149242657920207	0.57402008716129	0.12399113403443	0.139261826284214
"851"	51	0.235148598448	0.0751806305723527	0.155730170292442	0.60675783787685	0.131539929096428	0.148957833379157
"852"	52	0.239479572097242	0.0731068338146052	0.161374161016939	0.637676316919558	0.138849867054448	0.159366991851442
"853"	53	0.242734642889906	0.0711717551686821	0.166110153157794	0.666495415173015	0.145937124740021	0.170512479025558
"854"	54	0.244871629040343	0.0693965119834148	0.169898680922092	0.692972702746694	0.152827469131226	0.182417262459492
"855"	55	0.245867014097409	0.067801539267244	0.172724341036518	0.716903206259535	0.159554200623719	0.1951036989772
"856"	56	0.245715364704484	0.0664071397812068	0.17459433443997	0.738118607069742	0.166156053579696	0.208592994608523
"857"	57	0.24442867086017	0.0652339502919166	0.175536514267646	0.756485981811917	0.172675126322696	0.222904537674832
"858"	58	0.242035585823346	0.0643032634526378	0.175596985267384	0.771906225347457	0.179154914632721	0.238055134673753
"859"	59	0.238580578829775	0.0636371579282718	0.17483733924352	0.784312301934689	0.185638521471247	0.25405819332572
"860"	60	0.234123036423512	0.0632584076940723	0.173331632467414	0.793667488706485	0.19216710486469	0.270922904356147
"861"	61	0.228736346352809	0.0631901546438677	0.171163224678932	0.799963744963793	0.198778604664931	0.288653454114265
"862"	62	0.222506988335022	0.0634553444812895	0.16842160655677	0.803220237897566	0.205506766222783	0.307248260483119
"863"	63	0.215533636651061	0.0640759441598106	0.165199335175086	0.803482009386997	0.212380448465126	0.326699191559965
"864"	64	0.207926244099519	0.065071983924658	0.161589180656498	0.800818789600886	0.219423171936534	0.346990727324765
"865"	65	0.199805051385328	0.0664604874160948	0.157681567533747	0.795323927658788	0.226652843628752	0.368099054554563
"866"	66	0.191299460546041	0.0682543590163626	0.153562369987365	0.787113308924338	0.234081585792749	0.389991119217026
"867"	67	0.182546736390696	0.0704612885145228	0.149311096182258	0.776324015440147	0.241715592282325	0.412623672519058
"868"	68	0.173690551227965	0.0730827194549045	0.144999478085024	0.763112456098062	0.249554937649309	0.435942326069719
"869"	69	0.164879409953227	0.0761129256342585	0.140690471890936	0.747651844461452	0.257593276732162	0.459880607385683
"870"	70	0.156264971346774	0.0795382471110932	0.136437670436247	0.730129147024928	0.265817397509934	0.484359010147949
"871"	71	0.148000243132801	0.0833365311458081	0.132285125350211	0.710741768163732	0.274206622018828	0.509284057719198
"872"	72	0.140237614105449	0.0874768077742517	0.128267560815007	0.689694223791133	0.282732099073574	0.534547418644053
"873"	73	0.133126708010903	0.0919192342699804	0.124410936403366	0.667194956006316	0.291356087083632	0.560025142869023
"874"	74	0.126812082998955	0.0966153575437955	0.120733301194326	0.643453384440099	0.300031352848988	0.585577147850208
"875"	75	0.121430847381563	0.101508724608982	0.117245874099092	0.61867731359236	0.308700805896294	0.611047107046521
"876"	76	0.117110266515849	0.106535833233011	0.113954279016727	0.593070802392932	0.317297453082471	0.636262862939833
"877"	77	0.113965398528528	0.111627407857685	0.110859852618547	0.566832496833311	0.32574471725597	0.661037441652395
"878"	78	0.112096781731396	0.116709985197494	0.107960924330193	0.540154293074599	0.333957139706745	0.685170719608283
"879"	79	0.111588230938091	0.121707766796788	0.105253970061714	0.513220115729984	0.341841482993485	0.708451803477833
"880"	80	0.112504844984149	0.126544677508679	0.102734567613281	0.486204654834537	0.349298267708093	0.730662213518087
"881"	81	0.114891334442183	0.131146550819727	0.100398111343823	0.459272078074544	0.356223778779622	0.751579933437526
"882"	82	0.118770725505914	0.135443333519348	0.0982402834276911	0.432574864049156	0.362512546592181	0.770984294658594
"883"	83	0.124143433372935	0.139371187899852	0.0962573184724842	0.406252934497595	0.368060264154296	0.78866157893177
"884"	84	0.13098666338134	0.142874373195229	0.0944461097894648	0.380433221027991	0.37276706205418	0.804411144267981
"885"	85	0.139254104606641	0.145906814567783	0.0928041937648538	0.355229712518095	0.376541017188501	0.818051766213012
"886"	86	0.148875922631105	0.148433317500166	0.0913296329203375	0.330743931436897	0.37930172291179	0.829427802777743
"887"	87	0.159759111875228	0.150430431231584	0.0900208095443835	0.307065706815413	0.380983708678758	0.838414753244336
"888"	88	0.171788294208832	0.151886976521141	0.0888761398526897	0.284274058332853	0.381539464270347	0.844923759524075
"889"	89	0.184827027708909	0.152804221168883	0.0878937173830519	0.262438005758112	0.380941809504705	0.848904635499982
"890"	90	0.198719638444479	0.15319566320093	0.0870709001032905	0.241617208882236	0.379185375010226	0.850347133976394
"891"	91	0.213293532234323	0.153086377617404	0.0864038737343172	0.221862442811321	0.376286982719092	0.849280237773004
"892"	92	0.228361888503009	0.152511885692326	0.085887234598852	0.20321593193182	0.372284773036066	0.845769379188173
"893"	93	0.243726617329626	0.151516542218945	0.0855136324198422	0.185711531058368	0.367236117378065	0.83991182858042
"894"	94	0.259181517249824	0.15015150087705	0.0852735027049134	0.169374723092964	0.361214554880724	0.831830783994411
"895"	95	0.274515635099656	0.148472366475453	0.0851549051773797	0.154222452384263	0.354306081213802	0.821668753554851
"896"	96	0.289516833730337	0.146536665360608	0.0851434762752535	0.140262877838201	0.346605138694899	0.8095807878754
"897"	97	0.303975533543101	0.144401274546158	0.0852225001593302	0.127495142208413	0.338210645205353	0.795728089394783
"898"	98	0.317688534338945	0.142119962738482	0.0853731010971024	0.115909234533849	0.329222361402033	0.780272497597782
"899"	99	0.330462767796175	0.139741208725743	0.0855745579164	0.105485998252797	0.319737829671162	0.763372257045418
"900"	100	0.342118801938333	0.137306444515195	0.0858047302139665	0.0961973187967242	0.309850035848305	0.745179304368241
"901"	101	0.352493901485028	0.134848828866371	0.0860405753189397	0.0880065082809022	0.299645858660827	0.725838119184467
"902"	102	0.361444463662662	0.132392608320004	0.0862587367369888	0.0808688891526215	0.289205283313865	0.705485991826069
"903"	103	0.368847752523386	0.129953065207368	0.0864361916421517	0.0747325634677318	0.278601276955035	0.684254380024147
"904"	104	0.374602988863864	0.127536995468686	0.0865509461023391	0.069539343703461	0.267900169514473	0.662270910851592
"905"	105	0.37863189513054	0.125143624390236	0.0865827618968824	0.0652258139796111	0.257162372089351	0.639661612363976
"906"	106	0.380878811640362	0.122765858327505	0.0865138890313303	0.0617244856831485	0.246443296672461	0.616553088658172
"907"	107	0.381310501833628	0.120391774705333	0.0863297681398172	0.0589650051093766	0.235794367395388	0.59307443892559
"908"	108	0.379915728283604	0.118006246900164	0.0860196605421209	0.0568753660560315	0.225263999452444	0.569358703853217
"909"	109	0.37670464265255	0.115592608508903	0.0855771586710774	0.0553830834928483	0.214898409442332	0.545543601993688
"910"	110	0.371708029590195	0.113134290512493	0.0850005207615903	0.0544162896114473	0.204742165800271	0.521771404212299
"911"	111	0.364976455642469	0.110616380726551	0.0842927775797553	0.0539047243814891	0.194838454092366	0.49818793074155
"912"	112	0.356579361601893	0.10802705828469	0.0834615878007934	0.0537806100051044	0.185229054663412	0.474940736632918
"913"	113	0.346604124033382	0.105358841441699	0.082518861512321	0.0539794084524311	0.175954029355778	0.452176584172221
"914"	114	0.335155129262041	0.102609573389024	0.081480205711248	0.0544404608481248	0.167051154895914	0.430038388842326
"915"	115	0.322352895456979	0.0997830904697395	0.0803642556282802	0.0551075035343377	0.158555194543125	0.408661901227903
"916"	116	0.308333229477906	0.0968895517880854	0.0791919433172875	0.0559290515519624	0.150497116541694	0.388172390552195
"917"	117	0.293246368620612	0.093945425693876	0.0779857327964741	0.0568586437706233	0.142903361690718	0.368681574804756
"918"	118	0.27725604099422	0.0909731439311447	0.0767688344399435	0.0578549554407697	0.135795238257132	0.350284985534454
"919"	119	0.26053835051984	0.0880004463021726	0.0755644097274774	0.0588817908568959	0.129188487886993	0.3330598788087
"920"	120	0.24328041153367	0.0850594535250785	0.0743947906395235	0.0599079693335212	0.123093033353158	0.317063730478088
"921"	121	0.225678736905862	0.0821855305793701	0.0732807473512866	0.060907120849034	0.117512887457401	0.302333286234118
"922"	122	0.207937424447244	0.0794160243245662	0.0722408351463934	0.0618574109443031	0.11244618087029	0.28888409584188
"923"	123	0.190266182195549	0.0767889644282153	0.0712908524995269	0.062741212574634	0.107885274399538	0.276710475988743
"924"	124	0.172878208438146	0.0743418047270187	0.0704434411000038	0.0635447403438071	0.103816952388159	0.265785903229373
"925"	125	0.155987951902513	0.0721102638025427	0.0697078452218422	0.064257662714716	0.100222713925334	0.256063866166905
"926"	126	0.139808811285164	0.0701273025218024	0.0690898333452029	0.0648727116003483	0.0970791804360228	0.247479196690287
"927"	127	0.124550838054491	0.0684222511237563	0.068591777210909	0.0653853131294012	0.0943586322489309	0.239949886635316
"928"	128	0.110418486848532	0.0670200869904763	0.0682128817627091	0.0657932588975478	0.0920296726407137	0.233379375482972
"929"	129	0.0976084245156487	0.0659408774679767	0.0679495574529066	0.06609642720428	0.0900579993680878	0.227659265391864
"930"	130	0.0863073876562246	0.0651994032345455	0.0677959196585954	0.0662965580863318	0.0884072479786605	0.2226723874111
"931"	131	0.0766900966182111	0.0648049578188445	0.0677443890871536	0.0663970836957953	0.0870398648831754	0.21829612429702
"932"	132	0.0689172714391005	0.0647613068295396	0.0677863535158804	0.0664030131885694	0.0859179684430092	0.214405900227379
"933"	133	0.0631337927245593	0.0650667872964457	0.0679128451454988	0.0663208695570744	0.0850041648306031	0.210878753446622
"934"	134	0.0594670080753492	0.0657145362556799	0.0681151968474902	0.0661586662553437	0.0842622999653354	0.207596900414517
"935"	135	0.0580251609348826	0.0666928403667623	0.0683856461665961	0.0659258997665244	0.0836581313458108	0.20445117084473
"936"	136	0.0588959164045319	0.0679855830201762	0.0687178535575402	0.0656335316069589	0.0831599000846731	0.201344171259589
"937"	137	0.062144936456423	0.0695727443494832	0.0691073036991636	0.065293941738673	0.0827387868243409	0.198193046215825
"938"	138	0.067814440927287	0.0714309002919972	0.0695515669708864	0.0649208447659172	0.0823692515365329	0.194931762855469
"939"	139	0.0759217147648648	0.0735336595031029	0.0700504192592627	0.0645291636215069	0.0820292734182937	0.191512897716989
"940"	140	0.0864575669710638	0.0758519884160847	0.0706058382577072	0.0641348564097066	0.081700502767422	0.187908901243373
"941"	141	0.0993847910215489	0.078354411495294	0.0712218919262558	0.0637546920519607	0.0813683200073012	0.184112782146403
"942"	142	0.114636705819683	0.0810071034439712	0.0719045271729619	0.0634059652245191	0.0810217858103486	0.180138125946663
"943"	143	0.132115873431882	0.0837739140935618	0.0726612670750622	0.0631061352763448	0.080653462639141	0.176018359465466
"944"	144	0.151693099899032	0.0866163786688671	0.0735008256321115	0.0628723761186351	0.0802590928607402	0.171805228621587
"945"	145	0.173206812979056	0.089493765524078	0.0744326472544235	0.0627210423589258	0.0798371462724407	0.167566563510504
"946"	146	0.196462916678204	0.0923632217028551	0.0754663772720265	0.0626670773245303	0.0793882773334221	0.163383483376696
"947"	147	0.22123524327454	0.095180076087555	0.0766112733567649	0.0627233963978095	0.0789147387002372	0.159347199924782
"948"	148	0.24726671836337	0.0978983475818245	0.0778755735417837	0.0629002788167854	0.078419793609943	0.155555549609898
"949"	149	0.274271335626017	0.100471490941644	0.0792658454722647	0.063204794986463	0.0779071629619656	0.152109361136268
"950"	150	0.30193701525021	0.102853390739973	0.0807863488095221	0.0636402897841786	0.0773805347818259	0.14910875365124
"951"	151	0.329929376467002	0.104999589624574	0.0824384467935898	0.0642059404237604	0.0768431574950475	0.14664945798239
"952"	152	0.357896419785538	0.106868724989342	0.0842201072212704	0.0648964085962051	0.0762975400955614	0.144819264319765
"953"	153	0.385474086313545	0.108424136498449	0.0861255279596671	0.0657016033846883	0.0757452819424709	0.143694709208885
"954"	154	0.412292618475229	0.10963557855676	0.0881449106171368	0.066606569267782	0.0751870485997432	0.143338106374788
"955"	155	0.437983582135852	0.110480941801256	0.0902643965073063	0.0675915105610266	0.0746227049391187	0.14379501121899
"956"	156	0.462187325306442	0.110947876586194	0.0924661753086598	0.0686319518496549	0.0740516135148683	0.145092189779767
"957"	157	0.484560590687137	0.111035218204189	0.0947287834314741	0.0696990228124317	0.0734731012847731	0.147236138576293
"958"	158	0.504783975768428	0.110754137217021	0.0970276085007402	0.070759856808026	0.0728870863810492	0.15021217938726
"959"	159	0.522568969857997	0.11012896610735	0.0993355977230307	0.0717781026950699	0.0722948500879341	0.153984144373441
"960"	160	0.537664429517784	0.109197680690679	0.10162414017786	0.0727145562805443	0.0716999366975269	0.158494658534751
"961"	161	0.549862405559293	0.108012028591675	0.103864070396458	0.0735279183931572	0.071109153957237	0.163666002299833
"962"	162	0.559003172410208	0.106637293657364	0.106026733911166	0.0741756848452188	0.070533639654535	0.169401514446531
"963"	163	0.564979213683918	0.105151684426226	0.108085074460869	0.0746151696908199	0.0699899583822539	0.175587490207262
"964"	164	0.567737802890866	0.103645348297517	0.110014728065175	0.0748046572619462	0.0695011893577892	0.182095534230004
"965"	165	0.567281809779142	0.102219037311973	0.111795120069859	0.07470467082559	0.069097962610382	0.18878533972986
"966"	166	0.563668607140461	0.100982460386432	0.113410567848338	0.0742793386072762	0.0688193996204765	0.195507872288198
"967"	167	0.557007339980593	0.100052342671766	0.114851391969001	0.0734978318049832	0.0687139164321548	0.202108927536011
"968"	168	0.547455032896289	0.0995502069231826	0.11611503269485	0.0723358405963472	0.0688398482352029	0.208433009605252
"969"	169	0.535212013390306	0.0995999121678205	0.117207163721631	0.0707770458006344	0.069265850479647	0.214327445659736
"970"	170	0.520517058231329	0.100325015130729	0.118142787024808	0.0688145442357021	0.0700710281413256	0.219646621643769
"971"	171	0.503642567457005	0.101846032082755	0.118947279844282	0.0664521935590921	0.0713447418785469	0.224256201152857
"972"	172	0.484889930526088	0.10427768702692	0.119657353120802	0.0637058425271051	0.0731860386315445	0.228037171799841
"973"	173	0.464585139729703	0.107726239303469	0.120321871984767	0.0606044087916114	0.0757026626820508	0.23088955449459
"974"	174	0.443074656375558	0.112286977456221	0.121002486461962	0.0571907705742534	0.0790096122600917	0.232735609414435
"975"	175	0.420721484400841	0.118041953636335	0.121774028214092	0.0535224415933367	0.0832272208739856	0.23352237095919
"976"	176	0.397901352252892	0.125058014683913	0.122724628395953	0.0496719998157039	0.0884787661277901	0.233223350583114
"977"	177	0.374998960433293	0.133385169996333	0.123955486151513	0.0457272441813871	0.0948876405566623	0.231839292417617
"978"	178	0.352404359470184	0.143055323093014	0.125580191020768	0.0417910520426636	0.102574158909895	0.22939796015034
"979"	179	0.330509501236078	0.154081380857762	0.127723485138298	0.0379809084919632	0.111652118042637	0.225953045100048
"980"	180	0.309704897923598	0.166456758034417	0.130519340325394	0.0344280779822411	0.122225251482035	0.221582344991337
"981"	181	0.290376233468079	0.18015529938763	0.134108248370836	0.031276387830548	0.134383717429216	0.21638536022795
"982"	182	0.272900797742642	0.195131622240221	0.138633737632215	0.0286806008179891	0.148200739826955	0.210480430426674
"983"	183	0.257643745724015	0.211321854409547	0.144238257041559	0.0268043752626068	0.163729498991945	0.204001503066773
"984"	184	0.244954243209707	0.228644717897233	0.151058609516712	0.0258178380983076	0.181000349637089	0.197094611793627
"985"	185	0.235161508775875	0.247002887229772	0.159221107777523	0.0258948110809919	0.200018432966986	0.189914160723474
"986"	186	0.228570678753139	0.266284549295891	0.168836616240933	0.0272097327615845	0.220761737918966	0.182619117025843
"987"	187	0.22545834579296	0.286365114880537	0.179995651157197	0.0299343194222327	0.243179650826402	0.175369207529354
"988"	188	0.226067598594495	0.307109083739427	0.192763714077893	0.0342340132374876	0.26719201325839	0.168321209089568
"989"	189	0.230602406037998	0.328372086879113	0.207177021999706	0.0402642716981465	0.292688688341545	0.161625401717057
"990"	190	0.239221272764357	0.350003088897905	0.223238805024215	0.0481667595013019	0.319529641685106	0.155422237443463
"991"	191	0.252030344153304	0.371846681330856	0.240916355101297	0.0580655122045635	0.347545540627555	0.149839274347317
"992"	192	0.269076359526712	0.393745340263123	0.260138992902555	0.0700631440026333	0.376538841011787	0.144988420613319
"993"	193	0.290339909519887	0.415541452872391	0.28079707999466	0.0842371727656639	0.406285280240209	0.140963524569599
"994"	194	0.315729437877998	0.43707887709214	0.302742151196097	0.100636535456434	0.436535646819694	0.137838332836624
"995"	195	0.345076375478636	0.458203856688301	0.325788198861243	0.119278366969432	0.467017718380934	0.135664837828797
"996"	196	0.378131723155601	0.478765215247405	0.349714107100319	0.140145115821582	0.497438376746679	0.134472044540832
"997"	197	0.414564334411924	0.498613796284738	0.374267195554954	0.163182068273162	0.527486016478487	0.134265193648371
"998"	198	0.453961099129459	0.517601182793884	0.399167791945742	0.188295355580413	0.55683340620439	0.135025491471944
"999"	199	0.495829218046704	0.535577924116052	0.424114713132452	0.215350536623906	0.585141184943216	0.136710399715745
"1000"	200	0.539600759745921	0.552391679635035	0.448791507475725	0.244171875484508	0.612062141825945	0.139254515277017
"1001"	1	0.378391035256316	0.898601252272022	0.215152979960364	0.0548290254760977	0.27229354006453	0.0980539499533669
"1002"	2	0.358484006682841	0.899704896885887	0.239138915411039	0.0718475877448145	0.306342702903385	0.0971523664228805
"1003"	3	0.343115235287095	0.892508874659479	0.265227496322607	0.0927619897380939	0.342735493785818	0.0974098306934839
"1004"	4	0.332704126045795	0.877288302749208	0.293132925055918	0.117682994256185	0.380955105995695	0.0988171772977881
"1005"	5	0.327473177121578	0.854557957257373	0.322494391699004	0.146611328977766	0.420359929651106	0.101328479374006
"1006"	6	0.327458440089513	0.825023961326996	0.352883823203134	0.179432217732323	0.460192742544853	0.104864718655163
"1007"	7	0.33248504362904	0.789578253178599	0.383810281995014	0.215883352547996	0.499596847344582	0.109310902424154
"1008"	8	0.342209965790412	0.749209524106218	0.414740266698594	0.255573126379144	0.537646001094112	0.114526461483827
"1009"	9	0.356131742340265	0.704967343141951	0.445111318568323	0.297974646740732	0.57337403772614	0.120348724177263
"1010"	10	0.373617914876463	0.657913958992049	0.474347477142895	0.34243355249099	0.605805075731385	0.1265993253726
"1011"	11	0.39391387267743	0.609097609847174	0.501886288202567	0.388169125439886	0.634015082751585	0.133088760303667
"1012"	12	0.416193308051363	0.559503685363445	0.527194785079701	0.434303939822791	0.657162405396576	0.139625721373093
"1013"	13	0.439585480396789	0.510036725298932	0.549786972555406	0.479882466338327	0.674530089666017	0.146022368118471
"1014"	14	0.463206133143857	0.461507953674154	0.569232281263611	0.523893462011704	0.685549988656713	0.152098508088404
