0.0041727,0.0125792,0.000666201,0.00202966,0.000604186,0.00523567,0.00621514,0.00549421
0.00288568,0.0106816,0.000713875,0.00174694,0.000620802,0.00497121,0.00661359,0.00563464
0.00258346,0.0107587,0.00069356,0.00171698,0.000611333,0.00454035,0.00668539,0.00564528
0.00259027,0.00993224,0.000661769,0.00156369,0.00062439,0.00412347,0.00662315,0.00551693
0.00217938,0.00930475,0.000663157,0.00140677,0.000609832,0.00364986,0.00580811,0.00540408
0.00531544,0.00857297,0.000665137,0.0013232,0.000630296,0.00373121,0.00607577,0.00615186
0.00652885,0.00757394,0.000687772,0.00133099,0.000659656,0.00395371,0.00609494,0.00607783
0.00651275,0.00696521,0.000693975,0.0013358,0.000663624,0.00335404,0.00613672,0.00613868
0.00648397,0.00716389,0.000668291,0.00110841,0.00064471,0.00331204,0.00545004,0.00582777
0.00646389,0.0104678,0.000693368,0.00100235,0.000677601,0.00317981,0.00471768,0.00475504
0.00661858,0.0108311,0.000685155,0.000993054,0.000681052,0.00318103,0.00397669,0.00461857
0.00690992,0.0105762,0.000684767,0.00103912,0.000674499,0.00264522,0.00331961,0.00426808
0.00735098,0.00996014,0.00068888,0.00110339,0.000689854,0.00246681,0.00319211,0.00404891
0.00775273,0.0114366,0.000716079,0.00112192,0.00069267,0.00246036,0.00281605,0.00406952
0.00706528,0.0146412,0.000741003,0.0010469,0.000680457,0.00241664,0.00244404,0.00381215
0.00323483,0.014702,0.000718893,0.000905531,0.000647767,0.00184636,0.00189363,0.00303377
0.00230719,0.014792,0.000700148,0.000918821,0.000603474,0.00149489,0.00173713,0.00298957
0.00237503,0.014577,0.000742322,0.000907337,0.000611392,0.00141988,0.00168454,0.00322124
0.00253942,0.0111425,0.000732055,0.000846654,0.000515066,0.00130896,0.00158185,0.00341254
0.00266921,0.0088232,0.000680272,0.000818925,0.000465917,0.00123921,0.00158378,0.00327166
0.00253067,0.00899541,0.000680777,0.000809484,0.000452981,0.00113724,0.00157537,0.00283158
0.00224587,0.0104714,0.000694634,0.000766903,0.000428154,0.00104981,0.00141602,0.00281659
0.00229721,0.0110948,0.000712701,0.00074761,0.000434524,0.00103193,0.00112555,0.00279444
0.00337542,0.0096952,0.000709193,0.000654227,0.000440831,0.00156777,0.000977084,0.0025531
0.00346656,0.00811413,0.000702087,0.000629039,0.000476843,0.00163888,0.00089899,0.00252984
0.00350522,0.00833318,0.000733218,0.000617662,0.000492314,0.00174876,0.000891818,0.00234433
0.00340831,0.00841404,0.000723106,0.000614678,0.000514331,0.00199394,0.000869005,0.00209472
0.00376438,0.00930012,0.000714706,0.000588026,0.000530593,0.00201735,0.00089368,0.00170575
0.00370206,0.0100297,0.000704339,0.000643877,0.000528688,0.0020486,0.000949871,0.00176045
0.00368471,0.0128312,0.000732766,0.000640912,0.000556926,0.00223167,0.000908065,0.0017743
0.00365193,0.012835,0.000746637,0.000625811,0.000565268,0.00229661,0.000902639,0.00179907
0.00366522,0.0111422,0.00076493,0.000589872,0.000563556,0.00222895,0.00088245,0.00166004
0.00217257,0.00922098,0.000746023,0.000581035,0.000539439,0.00200166,0.000880071,0.00155289
0.00181716,0.00859105,0.000713819,0.000593803,0.000542614,0.00150337,0.000845503,0.0016554
0.00220795,0.00961611,0.000690298,0.000614933,0.000527844,0.00141269,0.000806682,0.00175653
0.00250939,0.0111131,0.000654478,0.000620624,0.000529317,0.00111454,0.000818571,0.00190414
0.00234728,0.01088,0.000631734,0.000614608,0.000511025,0.000980396,0.000815637,0.00171953
0.00201685,0.0115137,0.000680365,0.000608498,0.000539528,0.000971951,0.000798591,0.00150802
0.00197611,0.0109419,0.000679628,0.000560215,0.000528161,0.00100821,0.000713302,0.00136994
0.00196828,0.00872128,0.000689051,0.000566408,0.000530974,0.000806204,0.00074648,0.0013428
0.00273305,0.0112416,0.0006803,0.000584561,0.000540051,0.000874441,0.00068363,0.00127312
0.00339578,0.0135845,0.000666737,0.000582004,0.000556996,0.000905615,0.000692495,0.00126991
0.00350643,0.0152868,0.000680789,0.000587395,0.000560768,0.000915476,0.000664436,0.0013225
0.00378696,0.0151333,0.000700289,0.00059034,0.000550436,0.000826722,0.000746434,0.00145044
0.00406914,0.0129129,0.000706673,0.000575141,0.000546738,0.000817015,0.000747169,0.00145504
0.00392664,0.0126761,0.000722429,0.000552785,0.000553333,0.000820625,0.000710934,0.00116672
0.0040148,0.0141065,0.000759294,0.000547841,0.000510803,0.00085235,0.000725147,0.00116265
0.0044398,0.0133318,0.00072212,0.000519374,0.000526472,0.00104173,0.000745642,0.00128492
0.00583679,0.0142013,0.000725378,0.000506827,0.000533622,0.00106484,0.000715711,0.00130435
0.00614143,0.0166978,0.000749884,0.000483557,0.000530386,0.00114148,0.000712419,0.00131538
0.00539966,0.0142119,0.000744347,0.000486819,0.00052957,0.00114233,0.000680741,0.00137176
0.00517358,0.0112384,0.00071927,0.000505525,0.000528483,0.00113729,0.00067211,0.00150164
0.00508461,0.0105713,0.000735588,0.000470949,0.000568564,0.00117492,0.000631069,0.00131131
0.00663009,0.0117792,0.000710401,0.000475123,0.00055683,0.00119034,0.000604866,0.00117535
0.00712656,0.0125301,0.000665806,0.000489149,0.000590325,0.00118307,0.000598012,0.00120679
0.00744834,0.0130665,0.00068878,0.00050349,0.000643474,0.00120412,0.000579796,0.00123832
0.00778345,0.0147039,0.000657084,0.000506025,0.000680453,0.00110746,0.000574816,0.00111781
0.00697142,0.0150523,0.000655225,0.000503644,0.000670622,0.000951551,0.000579842,0.0010379
0.00620958,0.0125542,0.000642295,0.000505438,0.000706859,0.000917932,0.000620073,0.00107352
0.00599406,0.0102018,0.000613413,0.000511868,0.000679857,0.000818666,0.000647173,0.00103661
0.00585865,0.0101213,0.000629918,0.00050665,0.000699577,0.000873346,0.00063575,0.000961109
0.00880971,0.0100202,0.000604827,0.000489274,0.000819595,0.000805229,0.000617552,0.000930217
0.00838942,0.00951923,0.000654923,0.000517376,0.000871685,0.000735648,0.000606358,0.00116774
0.00656625,0.00999741,0.000795925,0.000502375,0.000909641,0.000731755,0.000621792,0.00119487
0.0065428,0.0105144,0.000815914,0.000491423,0.000915135,0.000732954,0.000630153,0.00116555
0.00730412,0.0105563,0.000840561,0.00050632,0.00102845,0.000746951,0.000618629,0.00128443
0.00708689,0.00887549,0.000885519,0.000480366,0.00107753,0.000790827,0.000634043,0.00129291
0.00701808,0.00918039,0.000912562,0.000489512,0.00107492,0.000752781,0.000619294,0.00153769
0.00682494,0.00946733,0.000914057,0.000489354,0.00108458,0.000846659,0.000591575,0.00167214
0.00670949,0.00987872,0.000926748,0.000511172,0.00110678,0.000838895,0.000618831,0.00182335
0.00565472,0.00990134,0.000920217,0.000546971,0.00109203,0.000761746,0.000675406,0.00174642
0.00324245,0.00987827,0.000964317,0.000500259,0.00108572,0.000804673,0.000686273,0.00168872
0.00271987,0.00956733,0.000876572,0.00054304,0.00104762,0.000818987,0.000684383,0.00144442
0.00262518,0.00722713,0.000850974,0.000564229,0.00106974,0.000845914,0.000691342,0.00135283
0.00156581,0.00564542,0.000832617,0.000573506,0.00105961,0.000814632,0.0007868,0.00129063
0.000724772,0.00359824,0.000809133,0.000554383,0.000967226,0.00079971,0.000794861,0.00124061
0.000541654,0.00322859,0.000822716,0.000563599,0.000959982,0.000846551,0.000793031,0.0011951
0.000525825,0.00250207,0.00081121,0.000545168,0.000952378,0.000827596,0.0008002,0.000858147
0.000524023,0.00195662,0.000848442,0.000566918,0.000980995,0.00071193,0.000793471,0.000819167
0.0005655,0.00136164,0.000875959,0.00053954,0.00116777,0.000675857,0.000796104,0.000727821
0.000566097,0.00133577,0.000865729,0.000517837,0.00105567,0.000659971,0.00077796,0.000739859
0.000546628,0.00125166,0.000850159,0.000549019,0.00105669,0.000646706,0.000799699,0.000725727
0.000553087,0.00133607,0.000842588,0.00059212,0.0010412,0.000655689,0.000846803,0.000760094
0.00055481,0.00132395,0.000910002,0.000591945,0.00101807,0.000660592,0.000792271,0.00077916
0.000540977,0.00120135,0.00088435,0.000630501,0.00100138,0.000654552,0.000737959,0.000775151
0.000546193,0.00113256,0.000878767,0.000657107,0.00102119,0.000617822,0.000775922,0.000731729
0.000540989,0.00119977,0.000868907,0.000738712,0.0010056,0.000594842,0.000791324,0.000739823
0.000536094,0.00246205,0.000835644,0.000770547,0.000977238,0.00070415,0.000808014,0.000721971
0.000500285,0.00352099,0.000802496,0.000766563,0.000810382,0.00076333,0.00079404,0.000720838
0.000488238,0.00360773,0.000797297,0.000796395,0.000767065,0.000881537,0.000796002,0.000736966
0.00049045,0.00356961,0.000800929,0.000882721,0.000831061,0.000948649,0.000770175,0.000763735
0.000505627,0.00352184,0.000757033,0.000883495,0.000860142,0.00092307,0.000767734,0.000782355
0.000529189,0.00350416,0.000731537,0.000886879,0.000910098,0.000933793,0.000752077,0.000795631
0.000537058,0.00349141,0.000717423,0.000886921,0.000926324,0.000996718,0.000737331,0.000805735
0.000550033,0.00364904,0.000725137,0.000855119,0.000868669,0.00108037,0.000730327,0.00086175
0.000541363,0.00433266,0.000701807,0.000798694,0.000903934,0.0011293,0.000711631,0.0010953
0.0005511,0.00419945,0.000663251,0.000784187,0.000931221,0.00118053,0.000669907,0.00114306
0.000552346,0.00280154,0.000679246,0.000778825,0.000930013,0.00110369,0.00065642,0.0011579
0.000541994,0.00230565,0.000683984,0.000785262,0.000913447,0.00112419,0.000646681,0.00117315
0.000556618,0.00233131,0.000682979,0.000752506,0.000842134,0.00128758,0.000650872,0.00113587
0.000546886,0.00175205,0.000538123,0.000628703,0.000274554,0.00029185,0.00410419,0.00246147
0.000820185,0.00174682,0.000547286,0.000826342,0.000294125,0.000328061,0.00437793,0.00288737
0.000948943,0.00172113,0.000594785,0.00090239,0.000341076,0.000390577,0.00452195,0.00366293
0.000972623,0.00171785,0.000626972,0.0010233,0.000385758,0.000467629,0.00479717,0.00416463
0.00101158,0.00171667,0.000673139,0.00111276,0.000413668,0.000533355,0.00490138,0.00545889
0.00116122,0.0016809,0.000679142,0.00120028,0.000436762,0.000624462,0.0050348,0.00639006
0.00131206,0.00159835,0.000684954,0.00122455,0.000463726,0.000631034,0.00479926,0.00720724
0.00182879,0.00166987,0.000683163,0.00115077,0.000478188,0.000634287,0.00500263,0.00759614
0.0022207,0.00329992,0.000658972,0.00109604,0.000514891,0.000626845,0.00519302,0.00793977
0.00226905,0.00365901,0.000654992,0.00111488,0.000501068,0.000634638,0.00511656,0.0078176
0.00214664,0.00396855,0.000666875,0.00103057,0.000504045,0.000625993,0.00499676,0.00842087
0.0021018,0.00391278,0.000647041,0.00109022,0.000492673,0.000642676,0.00510719,0.0081477
0.00221635,0.00413974,0.000697152,0.00116753,0.000490929,0.000631021,0.00495757,0.00817311
0.00229793,0.00476492,0.000718793,0.00112616,0.00048635,0.000623619,0.00467722,0.00849155
0.00225548,0.00663757,0.000726411,0.00112361,0.000532787,0.000667659,0.00497485,0.00782781
0.0022066,0.0070032,0.000744,0.00112188,0.000555656,0.000647902,0.0049198,0.00751116
0.00203908,0.00724385,0.000711911,0.00107074,0.000546644,0.000664233,0.00493642,0.00749597
0.00155657,0.0062981,0.000725837,0.00109479,0.000534372,0.000666383,0.00492047,0.00655063
0.00181866,0.00546751,0.000733308,0.00107464,0.000539522,0.000652388,0.00478043,0.00652459
0.00193754,0.0051425,0.000757749,0.000980306,0.000517037,0.00065332,0.00452632,0.00577488
0.00200751,0.0052043,0.000781967,0.000926565,0.000545162,0.000657665,0.00431467,0.00570824
0.00200634,0.00557956,0.000782023,0.000837249,0.00055636,0.000661138,0.00449139,0.00614515
0.001909,0.00518305,0.000692766,0.000828276,0.000575438,0.000644441,0.00466323,0.00578157
0.0018675,0.00417807,0.000678548,0.00079768,0.000655108,0.000623219,0.00395549,0.00550583
0.00203175,0.00302734,0.000676616,0.000876343,0.00062026,0.000610661,0.00402161,0.00579722
0.00179681,0.00278428,0.000667996,0.000944598,0.000615654,0.000607522,0.00406192,0.00484899
0.00170392,0.0026347,0.000666218,0.00102638,0.000601546,0.00062552,0.00391128,0.00552384
0.00148407,0.0025956,0.000637771,0.00105687,0.000605553,0.000640046,0.00378424,0.00538916
0.0011194,0.00254935,0.00065928,0.00106607,0.000614872,0.000645756,0.00381206,0.0053443
0.00104332,0.0025794,0.000626187,0.00116906,0.000599637,0.000647575,0.00453574,0.00499199
0.000895352,0.00192036,0.000642724,0.00116804,0.000654773,0.00065507,0.00446626,0.00417336
0.000824279,0.00192253,0.000667225,0.00116276,0.000639554,0.000705254,0.00441772,0.00566626
0.000818393,0.00191861,0.000706304,0.0011813,0.000585229,0.000687364,0.00469949,0.00581085
0.0011179,0.00326802,0.00071035,0.00119448,0.000568211,0.000688564,0.00441128,0.00559054
0.00125442,0.00417562,0.000746553,0.00112851,0.000601745,0.000680929,0.00489325,0.00593824
0.00125047,0.00422521,0.000766533,0.00111346,0.000616168,0.000677889,0.00513521,0.00578376
0.00128346,0.00432737,0.000785049,0.00108102,0.000601611,0.000651418,0.00491818,0.00568765
0.00125075,0.00421386,0.000784559,0.00117546,0.0006235,0.000634248,0.00511993,0.00558758
0.00122546,0.00423522,0.000771844,0.00119574,0.000635276,0.000619576,0.00494328,0.0062953
0.00120555,0.00468663,0.000774343,0.00105246,0.000630489,0.000637185,0.00462103,0.00651637
0.00128574,0.00493299,0.000777061,0.00105822,0.000624515,0.000559834,0.00462107,0.00561089
0.00138446,0.00488199,0.000746879,0.00124183,0.000625826,0.000562087,0.00464232,0.00605021
0.00135696,0.00450821,0.000765532,0.00123607,0.000596678,0.000588527,0.00485256,0.00714074
0.00113193,0.00267142,0.000765683,0.00120991,0.000588292,0.000595762,0.00428997,0.00664586
0.001526,0.00251444,0.000788685,0.0011542,0.000554186,0.000610824,0.00415526,0.0072046
0.00179684,0.00236959,0.000746879,0.0011471,0.000538893,0.000588481,0.0043383,0.00682167
0.00184036,0.00236108,0.000747017,0.00105742,0.000510427,0.00060541,0.0042074,0.00697083
0.0018473,0.00232145,0.000744718,0.0010354,0.000510571,0.000634386,0.00420918,0.00681403
0.00188816,0.00224807,0.000735122,0.00110861,0.000506566,0.000654302,0.00447136,0.00694211
0.00192346,0.00165343,0.000729444,0.0013073,0.000482205,0.00064597,0.00429184,0.00716078
0.00172497,0.00156938,0.000744532,0.00129636,0.000481253,0.000649395,0.00445509,0.00682655
0.00170106,0.00313056,0.000734772,0.00116189,0.000471441,0.000670172,0.00399575,0.00587165
0.00156967,0.00365351,0.000737621,0.00116529,0.000471513,0.000631581,0.00416635,0.00594834
0.00130537,0.00373061,0.000687017,0.00119287,0.000549687,0.000611609,0.00420132,0.00647593
0.00102095,0.00367077,0.000682675,0.00127195,0.000582359,0.000659383,0.00443709,0.00695139
0.000955725,0.00380817,0.000705509,0.00130165,0.00058644,0.000673361,0.00470319,0.00789392
0.00141805,0.00379323,0.000719244,0.00140509,0.000574121,0.000664443,0.0048211,0.00783736
0.00150579,0.00383937,0.000688264,0.00146844,0.000567626,0.000668649,0.00455232,0.0071041
0.00147996,0.00377947,0.000709923,0.00126399,0.00056453,0.000657231,0.00470893,0.00741935
0.00147742,0.00382694,0.000706912,0.00117087,0.000568834,0.000641229,0.00451375,0.00796973
0.00145441,0.00318745,0.000728476,0.00116592,0.000559731,0.000635375,0.00523055,0.00829489
0.00147138,0.00174957,0.000737646,0.00126475,0.00057235,0.000648454,0.00529401,0.00753364
0.00150063,0.0015194,0.000730574,0.00125474,0.000523796,0.000663385,0.00547213,0.00724766
0.00137944,0.00145341,0.000740504,0.00129521,0.000511259,0.000689222,0.00537578,0.00739537
0.00134793,0.00130851,0.000717309,0.00139778,0.000517026,0.000614425,0.00538973,0.00735087
0.00107169,0.00127565,0.000711877,0.00149128,0.000534502,0.000620861,0.00553608,0.00757853
0.000811872,0.00126323,0.000721781,0.00134959,0.000546138,0.000628209,0.00548676,0.00767968
0.000867502,0.00125051,0.000736583,0.00138907,0.000534159,0.000616246,0.00574866,0.00746807
0.00105017,0.00129481,0.000719961,0.00139877,0.000531213,0.000617506,0.00550149,0.0072715
0.00109487,0.00119791,0.000726332,0.00138397,0.000536283,0.000648949,0.00519238,0.00650823
0.00108154,0.00133063,0.000667056,0.00132321,0.000522503,0.000662016,0.00500657,0.00627147
0.000985117,0.00135701,0.000684386,0.00127487,0.000499372,0.000632015,0.00493334,0.00580512
0.00140068,0.00148298,0.000664976,0.00118553,0.000504713,0.000584812,0.00489244,0.00536204
0.00174568,0.001487,0.000680298,0.00115404,0.000504635,0.000595653,0.00504583,0.00496722
0.00178176,0.00151423,0.000686136,0.00115148,0.000516836,0.000623899,0.00521375,0.00451593
0.00189654,0.00151739,0.000659719,0.00116978,0.000519447,0.000605191,0.00478375,0.00444031
0.00192493,0.00146689,0.000647481,0.00120984,0.000537296,0.000602178,0.00474523,0.00461581
0.00171756,0.00146056,0.000626091,0.00136156,0.000551116,0.000608443,0.00531026,0.00449689
0.00163143,0.00146268,0.000611206,0.00146348,0.000561037,0.000609375,0.00522069,0.0044492
0.00164543,0.00143024,0.000593393,0.00149273,0.000574077,0.000591212,0.00522945,0.00435137
0.00164791,0.0013108,0.000624366,0.00149394,0.000598901,0.000596747,0.00514817,0.00428673
0.00185831,0.00130172,0.000608694,0.00148362,0.000601959,0.000623981,0.00508478,0.00439699
0.00139742,0.00123731,0.000589581,0.00147208,0.0006286,0.000657677,0.00488171,0.00469687
0.00127952,0.00120439,0.000583971,0.00137967,0.000623729,0.000627326,0.00410412,0.00489803
0.00126408,0.00174271,0.000597745,0.00150556,0.000615528,0.000609025,0.00440905,0.00522033
0.00124638,0.00204221,0.000617372,0.0015807,0.000611683,0.000585722,0.004875,0.00498014
0.00162299,0.0020484,0.000668639,0.00155163,0.000628452,0.000577359,0.00416173,0.00559377
0.0019475,0.00207203,0.000706799,0.0013898,0.00061108,0.000570921,0.00436817,0.00613571
0.00212483,0.00203846,0.000724092,0.00145854,0.000600983,0.000569734,0.00476723,0.0065907
0.00217101,0.0020874,0.000740002,0.00141432,0.000598428,0.000569157,0.00509817,0.00681869
0.00221469,0.00205569,0.000711674,0.00142988,0.000569925,0.000534775,0.00481024,0.00675998
0.00204487,0.00207698,0.000711669,0.00141304,0.000568483,0.000516474,0.00489315,0.00612146
0.00217788,0.00209207,0.000714533,0.00146627,0.000577982,0.000521288,0.00470616,0.00605825
0.00205152,0.00171476,0.000706381,0.00135133,0.000571648,0.000540263,0.00480858,0.00658108
0.00199501,0.00135496,0.000709271,0.00121749,0.000574267,0.000539966,0.0045033,0.00681543
0.00186184,0.00127523,0.000746204,0.0012466,0.000556585,0.000560179,0.00449049,0.00678577
0.00132269,0.00133545,0.000701473,0.00133581,0.000572765,0.000572306,0.00537725,0.0060153
0.00118371,0.00185727,0.000724995,0.00129158,0.000577556,0.000589649,0.00512001,0.00585474
0.00106951,0.00189087,0.000740014,0.00124393,0.000564507,0.000575708,0.00475643,0.00628037
0.00126578,0.00192205,0.000755896,0.00128163,0.000580489,0.000583538,0.00465864,0.00704647
0.00744755,0.0151622,0.000702382,0.00147538,0.000563796,0.00257126,0.00342853,0.00510418
0.00876958,0.0133145,0.000689294,0.00118644,0.000565804,0.00249348,0.00379073,0.00574927
0.0107332,0.0125101,0.000701885,0.00105475,0.000573145,0.00265535,0.00391352,0.00483798
0.00989749,0.0137166,0.000699356,0.00118364,0.000602431,0.00267246,0.00450323,0.00462686
0.00673979,0.0120914,0.000780424,0.00159922,0.000572846,0.00280716,0.00476111,0.00487298
0.00615002,0.0110502,0.000762412,0.00166947,0.000553434,0.0020914,0.00492455,0.00537553
0.00601706,0.009586,0.000751935,0.00176366,0.000529233,0.00214406,0.00424473,0.00603781
0.00654021,0.00801584,0.00075559,0.00188024,0.000532736,0.00242706,0.00436818,0.00532612
0.00621843,0.00765322,0.000739023,0.00207862,0.000557367,0.00282669,0.00431694,0.00483509
0.00523281,0.00963538,0.00072553,0.00205265,0.00055367,0.00280584,0.00364164,0.0034269
0.00273312,0.0117541,0.000738641,0.00186842,0.000538949,0.00282134,0.00309431,0.00323362
0.00230756,0.0123719,0.000732019,0.00205595,0.00052209,0.00289559,0.00303863,0.00413676
0.00307183,0.0119542,0.000722812,0.00185138,0.00056689,0.00314693,0.00238558,0.00436327
0.00298027,0.0137727,0.00069303,0.00165554,0.000583407,0.00282991,0.00234828,0.00389077
0.00351668,0.0144128,0.00068006,0.00157014,0.000568539,0.00351327,0.00229662,0.00420046
0.00629018,0.0144001,0.000672648,0.00156457,0.000592277,0.00391058,0.00285397,0.0034733
0.00627503,0.014596,0.00064953,0.00160474,0.000609573,0.00428986,0.00303607,0.00394919
0.00656347,0.013663,0.000662201,0.00143601,0.000603078,0.00403237,0.00292865,0.00394503
0.00739887,0.0119901,0.000696127,0.00136826,0.000637568,0.00408636,0.00280953,0.00390652
0.007416,0.0123824,0.000680296,0.00121193,0.000660438,0.00408844,0.0025342,0.00331715
0.00672761,0.0156381,0.000676791,0.00119987,0.000627008,0.00369598,0.00256784,0.00263711
0.00855446,0.0162445,0.000663438,0.00123604,0.00060945,0.00364467,0.00221637,0.00248806
0.00926597,0.0155781,0.000661398,0.00126411,0.000635816,0.00389145,0.00215589,0.00301288
0.00803988,0.0180058,0.000678886,0.00145918,0.000628371,0.00338236,0.00196956,0.00238131
0.00581768,0.0179222,0.000674049,0.0012025,0.000619399,0.0029578,0.00123714,0.00233881
0.0055691,0.0177371,0.000680288,0.00113837,0.000569014,0.00270388,0.00103559,0.00197864
0.005487,0.0175984,0.000666927,0.00112968,0.000550568,0.00271672,0.00104653,0.00201007
0.00500851,0.0184639,0.000640886,0.00113859,0.000520685,0.00269377,0.00109088,0.0022698
0.00501848,0.0163886,0.000669603,0.00108048,0.000499321,0.00263434,0.00105384,0.00245823
0.00532812,0.0167207,0.000659778,0.00104634,0.000490908,0.00240835,0.00096021,0.00256586
0.00260786,0.0167342,0.000690017,0.00103315,0.000486435,0.00225648,0.000920543,0.00210845
0.0018598,0.0140597,0.000685639,0.000898774,0.000471559,0.001706,0.000859973,0.00155549
0.00241867,0.0140176,0.000675795,0.000776576,0.000495166,0.00168214,0.000833961,0.00141234
0.00422089,0.0134779,0.000661714,0.000774471,0.000499482,0.00150343,0.000785433,0.00133492
0.00419007,0.0128375,0.000681568,0.000767109,0.000510186,0.00155811,0.000673487,0.00125454
0.00392854,0.0125397,0.00067197,0.000740132,0.000505623,0.00202987,0.000648834,0.00117451
0.00431277,0.0113559,0.000665185,0.00080444,0.00053086,0.00236735,0.000663762,0.000952682
0.00581909,0.011267,0.000663458,0.000874145,0.000573449,0.00270395,0.000733072,0.000691662
0.00727946,0.0084254,0.000649718,0.000775922,0.000561945,0.00275745,0.000754602,0.000666591
0.00784816,0.00827474,0.000667419,0.000752072,0.000568519,0.00271411,0.00073833,0.000652989
0.00828041,0.00868019,0.000655963,0.000717739,0.00057712,0.00268049,0.000726668,0.000703992
0.00692955,0.00912085,0.000649068,0.000730441,0.000562524,0.00248381,0.00072051,0.000658111
0.00601048,0.010062,0.000632117,0.000711488,0.000558596,0.00246982,0.000748154,0.000642381
0.00594227,0.0100542,0.000641458,0.000778885,0.000569808,0.0021285,0.00073443,0.000925372
0.00579074,0.00915885,0.000624065,0.000935264,0.000592243,0.00151109,0.000705519,0.000993143
0.00481001,0.00783724,0.000611246,0.000882681,0.000557003,0.00131609,0.000676661,0.00111867
0.00209246,0.00735329,0.000648103,0.000804568,0.000553487,0.00114966,0.000578116,0.00116958
0.00188999,0.00832377,0.000655875,0.000797549,0.000529198,0.00140022,0.000564273,0.00120636
0.0016993,0.0103519,0.000666616,0.000795092,0.00054739,0.00142844,0.000592258,0.00128788
0.00153567,0.0119064,0.000664372,0.000801136,0.00052924,0.00155674,0.000609172,0.00128011
0.00262693,0.0119573,0.000675199,0.000773918,0.000553076,0.00163612,0.000606946,0.00127303
0.00318726,0.0118747,0.000702283,0.000748615,0.000562273,0.00169523,0.000635151,0.00124071
0.00349245,0.0122719,0.000717619,0.000656161,0.000575556,0.00176746,0.000624127,0.00105354
0.00453395,0.0133622,0.000750833,0.000519998,0.000582312,0.00183731,0.00061889,0.00116941
0.00512565,0.0134924,0.000756694,0.000509942,0.000579074,0.00172948,0.000629269,0.00110272
0.00655586,0.0135289,0.00071673,0.000488092,0.000552819,0.00178497,0.000624442,0.00111426
0.00831337,0.0137054,0.000703955,0.00048634,0.00055501,0.00187571,0.000623975,0.00101534
0.00863331,0.0148445,0.00070815,0.000458858,0.000585218,0.00181778,0.000625222,0.000952615
0.00870739,0.0136547,0.00068663,0.000460515,0.000579594,0.00193573,0.00062824,0.00118071
0.00758315,0.0121772,0.000680669,0.000509323,0.000557171,0.00190938,0.000614482,0.00134227
0.00716029,0.0122851,0.00067471,0.000502062,0.000573242,0.00191084,0.000620489,0.00135936
0.00695597,0.0130392,0.00068808,0.000541718,0.000532218,0.00180852,0.000673572,0.00134666
0.00615129,0.0155432,0.000690446,0.000581222,0.00052233,0.00187888,0.000663618,0.00121759
0.00642124,0.0166526,0.000694059,0.000569239,0.000553399,0.00182012,0.000656957,0.0011723
0.00745988,0.0167387,0.000643866,0.00058473,0.000600765,0.00169513,0.000662813,0.00118614
0.00691134,0.0147167,0.000631131,0.00056619,0.000589595,0.00128336,0.000663947,0.0012376
0.00666972,0.0124535,0.000633866,0.000562157,0.000579972,0.00124988,0.000676232,0.00127279
0.00652185,0.0128309,0.000681049,0.000596243,0.000565558,0.00109602,0.000697469,0.00101068
0.00753867,0.0131114,0.000678192,0.000560529,0.000583325,0.00108437,0.00135897,0.000976049
0.00810437,0.0145043,0.000664002,0.000580558,0.000586433,0.00102913,0.00147937,0.000946666
0.0084189,0.0148729,0.000606589,0.000586631,0.000590783,0.000970094,0.00157235,0.00102823
0.00888509,0.0123835,0.000608745,0.000557657,0.00059176,0.000894602,0.00161453,0.00108953
0.00721853,0.0128706,0.000599887,0.000566545,0.000565193,0.000926546,0.00161913,0.00107308
0.00741505,0.0127689,0.000630878,0.0005836,0.000651092,0.000801694,0.00157188,0.00111246
0.00746202,0.012995,0.00064815,0.000611988,0.000637795,0.000725642,0.00162894,0.00104504
0.00738523,0.0132936,0.000669188,0.000601172,0.00064042,0.000735156,0.00162351,0.0010782
0.00714372,0.0128893,0.000650701,0.000584312,0.000769283,0.000733026,0.00150945,0.00114679
0.00608421,0.0117118,0.000659785,0.000535352,0.000771681,0.000737758,0.000930384,0.00109381
0.00588186,0.0105817,0.000724004,0.000518106,0.000807497,0.000733269,0.000784338,0.00103466
0.00490985,0.0075933,0.000763206,0.000496373,0.000865825,0.000759617,0.000731458,0.000914811
0.00452819,0.00736056,0.000716259,0.000488166,0.000864625,0.000739828,0.000683026,0.000849061
0.00254337,0.00758289,0.000787685,0.00050962,0.000859712,0.000751939,0.000672253,0.000907227
0.0010515,0.00764757,0.000916807,0.000470451,0.000912477,0.000901921,0.000804481,0.000914227
0.000978996,0.00647971,0.000949627,0.000499483,0.00103393,0.000922985,0.0008614,0.000930958
0.000883689,0.00570738,0.000905229,0.000544444,0.00103538,0.000919382,0.000897811,0.000956669
0.000898063,0.00560071,0.000920726,0.000557878,0.00095641,0.000915933,0.000928756,0.00106829
0.00076406,0.00504998,0.000920308,0.000576094,0.000974794,0.000929413,0.000947548,0.00112825
0.000680711,0.00481365,0.000921746,0.000587837,0.00098625,0.000924142,0.000969847,0.00111402
0.000680463,0.00439048,0.000927584,0.000605993,0.000975945,0.000890318,0.000978023,0.00110588
0.000683364,0.0029211,0.000942535,0.000619764,0.000990106,0.000902999,0.00100876,0.00104932
0.000633415,0.00228733,0.000802757,0.000661721,0.000977176,0.000825876,0.00100138,0.00101366
0.000598294,0.00179729,0.000744879,0.000796334,0.000854969,0.000708528,0.00086329,0.000994769
0.00057546,0.00147887,0.000718278,0.000863499,0.000788008,0.000718684,0.000799121,0.00101
0.000588529,0.00145941,0.00074081,0.000889271,0.0007918,0.000719519,0.000783146,0.000932615
0.000558374,0.00147415,0.000732605,0.000884818,0.000756381,0.000684546,0.000795293,0.000807895
0.000549853,0.00148322,0.00071742,0.000910232,0.000730362,0.000681922,0.00075542,0.00077777
0.000528277,0.00162335,0.000684194,0.000974895,0.000659451,0.000708305,0.000892756,0.000791181
0.000537221,0.00348119,0.000727475,0.000988176,0.000680038,0.000821458,0.000993227,0.000778403
0.000519639,0.00425861,0.000740678,0.000989193,0.000660927,0.000804536,0.00101335,0.000789093
0.000536426,0.00436946,0.000752349,0.000948447,0.000703238,0.000827888,0.00106833,0.000797627
0.000546886,0.00175205,0.000538123,0.000628703,0.000274554,0.00029185,0.00410419,0.00246147
0.000826319,0.00174097,0.000546913,0.000835957,0.000302817,0.000337748,0.00435404,0.00289917
0.000958886,0.00170236,0.000594123,0.000907381,0.000357338,0.000398891,0.00453888,0.00367625
0.000985716,0.00171179,0.000642025,0.00104087,0.000397112,0.000489099,0.0048422,0.00440731
0.00102827,0.00170061,0.000668731,0.00114454,0.000419278,0.00055951,0.00492423,0.00575649
0.00118074,0.00170429,0.000667695,0.00119465,0.000443017,0.00063748,0.00504471,0.00669078
0.00150049,0.0015859,0.000695857,0.00119013,0.000466952,0.000645846,0.00503194,0.00724348
0.00210041,0.00248231,0.000667803,0.00108698,0.000507223,0.000621783,0.00507183,0.00789533
0.00228838,0.00344951,0.000668254,0.00109802,0.000511867,0.000647811,0.00512431,0.00767313
0.00224581,0.00390365,0.000653437,0.00108063,0.000505242,0.000624867,0.00504764,0.00829527
0.00204187,0.00392718,0.000643565,0.00106537,0.000499198,0.000635925,0.00519524,0.00833516
0.00219172,0.00408715,0.000684938,0.0011837,0.000487691,0.000623413,0.00493092,0.00818468
0.00229359,0.00470371,0.000719593,0.00112532,0.000482889,0.000624131,0.00466718,0.00855545
0.00224566,0.00668828,0.000731337,0.00112197,0.000538221,0.000665479,0.00497782,0.00779307
0.00221735,0.00706066,0.000732315,0.00112458,0.000560063,0.000653897,0.00491468,0.00746432
0.00187264,0.0072373,0.000712209,0.00107398,0.000552426,0.000674916,0.00490666,0.00720581
0.00153287,0.00562595,0.000727997,0.00109866,0.000533219,0.000651827,0.00495151,0.00640682
0.00189,0.0052971,0.000729787,0.00103708,0.000524443,0.000643336,0.00489733,0.00626924
0.00197605,0.00495028,0.000749399,0.000949911,0.000542054,0.000676757,0.00440044,0.00576907
0.00198511,0.00560627,0.000769219,0.000879581,0.00054904,0.000655239,0.00439058,0.00588711
0.00194361,0.0055449,0.00070907,0.000852357,0.000564307,0.000655513,0.00448505,0.00623137
0.00186344,0.00455405,0.000666034,0.000803623,0.000654813,0.000654297,0.00430297,0.00567306
0.00198429,0.00308459,0.000669443,0.000842865,0.000630211,0.00060278,0.00402133,0.00577233
0.00184629,0.00278176,0.000675852,0.000953693,0.000602652,0.000599576,0.00407111,0.00489066
0.00171237,0.00263232,0.000667163,0.00102243,0.00060115,0.000624952,0.00391723,0.00551459
0.00149428,0.00259457,0.000639959,0.00105524,0.000606374,0.0006415,0.00378218,0.00539372
0.00111002,0.00254582,0.000652138,0.00106547,0.000609803,0.000645214,0.00381649,0.00535095
0.00102313,0.0024977,0.000628202,0.00116027,0.000606907,0.000645751,0.00443184,0.00486654
0.000863952,0.0019336,0.000638091,0.00116213,0.000644962,0.000679926,0.0043362,0.00470705
0.000822019,0.00186217,0.000695287,0.00115973,0.000643462,0.000703879,0.0045803,0.00589566
0.000897636,0.00204983,0.000707898,0.00117732,0.000577168,0.000686101,0.00464206,0.00585293
0.00121535,0.00386178,0.00071822,0.00118013,0.000589223,0.000679011,0.00478928,0.00580934
0.00124833,0.00418825,0.000761959,0.001121,0.000612933,0.000662179,0.00515627,0.00590785
0.00128685,0.00433185,0.000772499,0.00106268,0.000608005,0.000668868,0.00498424,0.00573888
0.00124979,0.00422201,0.000792949,0.001152,0.00061962,0.000646092,0.00510767,0.00557848
0.00124042,0.00426504,0.000758084,0.00121258,0.000634531,0.000624262,0.00524025,0.00619918
0.00121406,0.00446374,0.000777526,0.00107486,0.000636951,0.000637521,0.00456374,0.00649391
0.00127882,0.00492913,0.000776122,0.00106681,0.00062223,0.00056474,0.00463018,0.00582495
0.00138752,0.00488091,0.000747022,0.00124742,0.000627588,0.000560644,0.0046468,0.00612159
0.00135444,0.00445331,0.000765683,0.00122252,0.000603414,0.000591037,0.00484528,0.00718932
0.00120004,0.00253203,0.00078165,0.00120481,0.000581825,0.000591161,0.00434219,0.00662437
0.00163625,0.00251404,0.000782278,0.00112911,0.000549107,0.000609871,0.00413114,0.00708916
0.00182359,0.0023364,0.000748717,0.00112737,0.000524989,0.000586327,0.00441355,0.00680769
0.00184336,0.00236006,0.000739108,0.00100002,0.000502414,0.000617335,0.00426796,0.00693783
0.00187517,0.00234608,0.000748229,0.00100813,0.000523144,0.000634645,0.00431175,0.00704783
0.00191666,0.00175332,0.000732486,0.00121034,0.000491059,0.000641708,0.00438105,0.00697252
0.00176127,0.00154637,0.00072321,0.00131888,0.000469191,0.000650378,0.00460514,0.00717798
0.00171227,0.00284193,0.000737014,0.00114319,0.000473074,0.000672066,0.00391351,0.00557628
0.00155507,0.00356991,0.000733377,0.00117949,0.000463558,0.000635547,0.00414942,0.00597032
0.00130227,0.00375497,0.000695667,0.00117989,0.00054964,0.00062062,0.00424955,0.00651441
0.00103139,0.00366323,0.000680159,0.00127539,0.000581265,0.000657424,0.00442029,0.00691753
0.000986521,0.0038031,0.000708478,0.00129983,0.000589565,0.00067155,0.00472932,0.00789743
0.0014324,0.00379291,0.000719016,0.00139817,0.000578036,0.000675555,0.00487415,0.00784007
0.00149817,0.00383856,0.000684621,0.00145666,0.000561373,0.000650591,0.00445083,0.00713196
0.00147849,0.00377366,0.000721168,0.00118011,0.000574617,0.000654106,0.00471042,0.00760752
0.00148404,0.00385385,0.000685788,0.00113948,0.0005675,0.000627668,0.00472943,0.00810498
0.0014478,0.0020947,0.000736284,0.0011906,0.000565775,0.00063797,0.00514558,0.00774858
0.00150427,0.00163111,0.000714068,0.00126812,0.000585708,0.000651635,0.00541567,0.00756558
0.0014017,0.00142767,0.000746424,0.00129344,0.000516924,0.000701789,0.00547328,0.00747896
0.0013459,0.00135778,0.000718762,0.00139044,0.000510378,0.000630566,0.00538613,0.00742699
0.00117082,0.00128458,0.000721878,0.00151035,0.000532236,0.000630883,0.00554433,0.00746123
0.000838571,0.00125936,0.000727825,0.00137139,0.000556302,0.000623468,0.00549815,0.00765162
0.000875175,0.00124612,0.000739992,0.00137961,0.000531703,0.000617756,0.00577669,0.0074806
0.00105073,0.00129404,0.000718882,0.00139804,0.000532115,0.000618308,0.00550518,0.00726242
0.00109663,0.00120744,0.000705937,0.00137899,0.000537692,0.000644149,0.00517787,0.0064952
0.00106781,0.00138439,0.000650583,0.00128766,0.000517908,0.000666658,0.00497024,0.00625485
0.000957452,0.00133947,0.000687162,0.00126915,0.000504594,0.000631914,0.00497279,0.00572898
0.00151902,0.00150887,0.000663853,0.0011922,0.000504081,0.00058154,0.00490545,0.00538403
0.00175258,0.00150562,0.000679145,0.00127239,0.000506502,0.000625554,0.00537389,0.00465728
0.0018622,0.00155098,0.000681556,0.00114,0.000518054,0.000606365,0.00503303,0.00420892
0.00193657,0.00149233,0.000662645,0.00117927,0.000524285,0.000594282,0.00489371,0.00459361
0.00177253,0.00149044,0.000640208,0.00125971,0.000547621,0.00062355,0.00521124,0.00467889
0.00163174,0.00147014,0.000631321,0.00146906,0.000560846,0.000611941,0.0052716,0.00407802
0.00165776,0.0014264,0.000601875,0.00146967,0.00056502,0.000594324,0.00535682,0.00436593
0.00163867,0.0013102,0.000620579,0.00149628,0.000595141,0.00059194,0.00521591,0.00426218
0.00190452,0.00130894,0.000610352,0.00148008,0.000601671,0.000624025,0.00507404,0.00439053
0.00137662,0.00124761,0.000589614,0.00146991,0.000626065,0.000656839,0.00484756,0.00469238
0.00127291,0.00123903,0.000579424,0.00140051,0.000620438,0.000623123,0.00412138,0.00492347
0.00127786,0.00188825,0.000603098,0.00149463,0.000614223,0.000600154,0.00437484,0.00520702
0.00125044,0.00207796,0.000620307,0.00162262,0.000600016,0.00058367,0.00485148,0.00497339
0.00180568,0.00202925,0.000673299,0.00144778,0.000619914,0.000577177,0.00407332,0.00578335
0.00202927,0.00206601,0.000725501,0.00137786,0.000611437,0.00058362,0.00452133,0.00611281
0.00214316,0.00209492,0.00074653,0.00144569,0.00060377,0.000577893,0.00495542,0.00674106
0.00223527,0.00206374,0.000722493,0.00142089,0.000580457,0.000554262,0.00492482,0.00680676
0.00206213,0.00204074,0.000719306,0.00142363,0.000570635,0.000541178,0.0048213,0.00638274
0.00217033,0.00208014,0.000715427,0.00144926,0.000573823,0.00052407,0.00479161,0.00621455
0.00207712,0.00191333,0.000720597,0.00139611,0.000579421,0.000543715,0.00487078,0.00643983
0.0019988,0.00135899,0.000707468,0.00122152,0.000575735,0.000541239,0.00450414,0.00683439
0.00186184,0.00127523,0.000746204,0.0012466,0.000556585,0.000560179,0.00449049,0.00678577
0.00131528,0.00133465,0.000705278,0.00132883,0.000577372,0.000577599,0.00538029,0.00602561
0.00114972,0.00188514,0.000710425,0.00124251,0.000571297,0.000584068,0.00506774,0.00570818
0.00108089,0.00188474,0.000761645,0.00126,0.000561689,0.000575691,0.0046345,0.00645698
0.00124228,0.00195459,0.000765521,0.00129051,0.000599626,0.000591853,0.0047426,0.00719261
0.00137705,0.00194698,0.000779191,0.00130104,0.000611,0.000584448,0.00471387,0.00734544
0.00160212,0.0019493,0.000768556,0.00141219,0.000580406,0.000572863,0.00572137,0.00746457
0.00160842,0.00203671,0.00075609,0.00145661,0.00061725,0.000537717,0.00572719,0.00662718
0.00161474,0.00202984,0.000754945,0.00155458,0.000599943,0.000555516,0.00609927,0.00609616
0.00183404,0.00198153,0.000697875,0.00141687,0.000608857,0.000594109,0.00552354,0.00583762
0.00203916,0.0018674,0.000674288,0.00130307,0.000582591,0.000558621,0.00521992,0.00587356
0.00201405,0.00129941,0.000680641,0.00151649,0.000605602,0.000589804,0.00565565,0.0053498
0.0022695,0.0157241,0.000687666,0.00292218,0.000606745,0.00293417,0.003417,0.00306047
0.00645811,0.0173922,0.000711656,0.00265611,0.000621226,0.00316413,0.00347017,0.00373515
0.00757081,0.0181988,0.000741745,0.00257948,0.000657805,0.00332489,0.00354089,0.00442758
0.00772503,0.0152126,0.000746047,0.00262005,0.000662891,0.00322803,0.00375222,0.00412894
0.00765454,0.0136604,0.000743505,0.00239209,0.000665519,0.00301403,0.00351257,0.00388819
0.00759318,0.0119296,0.000756493,0.0024142,0.000663268,0.00314321,0.00344429,0.0045465
0.00744934,0.0106692,0.000768389,0.00240179,0.000633838,0.00318903,0.00336161,0.00485548
0.00742187,0.00995106,0.00074052,0.00231484,0.000610593,0.00340561,0.00358721,0.00478765
0.00740506,0.0120157,0.000745475,0.00226689,0.000600555,0.00349679,0.00407669,0.00495892
0.00738404,0.0121877,0.00072969,0.00229382,0.000571113,0.00373358,0.00419708,0.00489486
0.00360897,0.0108725,0.000734015,0.00231651,0.000578906,0.00320761,0.00459305,0.00539585
0.00216162,0.00836991,0.000745768,0.00213723,0.000559711,0.00284557,0.00434821,0.00581823
0.00125422,0.00815294,0.000773342,0.00186349,0.000539177,0.00274805,0.00414869,0.00548938
0.00136182,0.00868836,0.000767958,0.00187907,0.000530947,0.00277469,0.0039914,0.00539704
0.00143691,0.0102934,0.000763437,0.0018497,0.0005097,0.00273765,0.00415042,0.00511371
0.00157386,0.0101379,0.000753661,0.00164334,0.00050512,0.00291963,0.00404398,0.00421714
0.00212307,0.0116218,0.000723314,0.00176028,0.000532672,0.00333095,0.00400998,0.00537718
0.00291561,0.0110078,0.000700267,0.00183744,0.000531472,0.00360821,0.00392868,0.00570848
0.00315497,0.0120982,0.000663066,0.00179374,0.000528527,0.00316096,0.00336961,0.00544684
0.0060271,0.0131902,0.000630731,0.00161326,0.000549605,0.00313612,0.00263706,0.00496447
0.00679618,0.0132371,0.000613742,0.00144574,0.000554835,0.00326174,0.00202166,0.00362033
0.00678973,0.0132929,0.000578041,0.00134146,0.000541768,0.00350212,0.00172158,0.00335157
0.00653658,0.0131689,0.000550711,0.00127257,0.00055501,0.0036342,0.00177393,0.00342771
0.00639798,0.0126821,0.000535965,0.00129129,0.000567104,0.00345621,0.00169991,0.00359629
0.00671546,0.0145184,0.000532212,0.0012814,0.000555896,0.003521,0.00185401,0.00379507
0.00728114,0.0145362,0.000570787,0.0011976,0.000525644,0.00315033,0.00199132,0.00353826
0.00658434,0.0120713,0.00058209,0.000959061,0.000547139,0.0034727,0.00181591,0.00281951
0.00632545,0.00928891,0.000623169,0.000790196,0.000543855,0.00395619,0.00168963,0.00276873
0.00460857,0.00732021,0.000610414,0.000733925,0.000509208,0.00367848,0.00169547,0.00275407
0.00279864,0.0100448,0.000648722,0.0010195,0.000478221,0.00355641,0.00173782,0.00262004
0.0026968,0.0124941,0.00068016,0.00164623,0.000474993,0.00368111,0.00177844,0.00256524
0.00258714,0.0130097,0.000686624,0.00179345,0.000468823,0.00412795,0.00167974,0.00233706
0.00303294,0.0124658,0.000699166,0.00180438,0.000482915,0.00420178,0.00159844,0.00211814
0.00689139,0.0124756,0.000703721,0.00177993,0.00048098,0.00407935,0.00128415,0.00223373
0.00626103,0.0123397,0.000679066,0.001723,0.000498989,0.00441792,0.0010806,0.00181885
0.00614777,0.0132329,0.000682043,0.00163838,0.000531226,0.00430606,0.000901759,0.00129979
0.00636839,0.013067,0.000712287,0.00163646,0.000537194,0.003209,0.000865713,0.00121366
0.00636214,0.0131484,0.000697835,0.00159531,0.000536139,0.00314236,0.000758932,0.00117965
0.00637499,0.0113022,0.000693348,0.00141545,0.000579211,0.00304559,0.000684467,0.00112488
0.00629188,0.00891707,0.000687457,0.00079738,0.000578693,0.00272318,0.000607899,0.00111918
0.00655737,0.0088677,0.000681575,0.000685258,0.000609112,0.00208021,0.000629267,0.00109775
0.00654573,0.00906717,0.000672589,0.000658904,0.000611225,0.00180145,0.000610529,0.00103157
0.00338905,0.00922297,0.000646845,0.000645126,0.000597718,0.00202099,0.000629573,0.000891051
0.00462638,0.0107795,0.000650348,0.000627339,0.000577139,0.00199632,0.000612969,0.000804647
0.00513291,0.0117288,0.000666892,0.000680796,0.000543551,0.0014164,0.000609259,0.0009574
0.00559222,0.0116049,0.000608801,0.000797488,0.000536338,0.00139227,0.00062977,0.00115639
0.00562051,0.0111428,0.00062192,0.00096187,0.000556916,0.00128958,0.00063155,0.0011964
0.00561356,0.0108981,0.000663916,0.000998328,0.000523065,0.00132121,0.000636626,0.00118946
0.00572194,0.0106834,0.000623589,0.00111447,0.000544088,0.00133226,0.000671365,0.00118397
0.00580961,0.00936913,0.000624735,0.00103707,0.000516283,0.00156009,0.000637769,0.00121426
0.00583159,0.00952827,0.000672563,0.00101031,0.000529078,0.00157657,0.000668615,0.00122642
0.00557916,0.00953883,0.000696318,0.00100421,0.00052957,0.00154678,0.00063983,0.00121278
0.00438032,0.00625563,0.000700977,0.00104293,0.000547713,0.00121827,0.000617404,0.00115273
0.00321172,0.00511394,0.000666546,0.000997483,0.000536757,0.00115839,0.00063652,0.00110607
0.00228066,0.00515577,0.00067091,0.000926964,0.000550329,0.00125772,0.00061598,0.000942725
0.00221667,0.00544477,0.000703011,0.000734657,0.000520606,0.00130924,0.000645358,0.000993572
0.00242034,0.00637072,0.000695689,0.000663919,0.00051746,0.00139074,0.000665611,0.000989115
0.00228458,0.00873141,0.000675292,0.000602056,0.000527016,0.00135691,0.000609916,0.00110864
0.00209824,0.0131607,0.000688958,0.000531044,0.000533486,0.00125726,0.000628335,0.00114673
0.00205824,0.0139793,0.000682742,0.00051574,0.000517647,0.00123028,0.000638193,0.00122945
0.00251586,0.0140786,0.000670626,0.000541746,0.000500388,0.00117194,0.000617719,0.00147408
0.00368702,0.0132705,0.000660797,0.000525719,0.000525321,0.00104283,0.000628044,0.00154549
0.00309038,0.0125266,0.000683138,0.000511162,0.000554691,0.0010493,0.000608142,0.00152965
0.00315135,0.0142454,0.000705624,0.0004932,0.000539304,0.0011216,0.000609698,0.00144005
0.00365533,0.0148269,0.000687511,0.00049569,0.00057406,0.00105978,0.000594883,0.00173986
0.0036951,0.0153253,0.000645869,0.000500257,0.000583545,0.00100841,0.000589908,0.00183839
0.00452699,0.0142791,0.00063815,0.000518637,0.000605634,0.000985311,0.000608063,0.00185493
0.00493386,0.0143498,0.000660481,0.000510786,0.000651532,0.00100901,0.000612031,0.00204331
0.00508149,0.0140184,0.000631034,0.000548698,0.000673721,0.000954608,0.000567332,0.00215222
0.00482809,0.0141544,0.000656922,0.000546455,0.000722026,0.000987463,0.000561533,0.00189889
0.00372032,0.0137797,0.000685703,0.000587998,0.000784785,0.00124007,0.000577755,0.00175208
0.00344028,0.0135913,0.000684453,0.000588931,0.000797894,0.00129591,0.000579333,0.00174346
0.00340868,0.0124237,0.000690554,0.000629206,0.000856343,0.00117179,0.000573696,0.001745
0.00288201,0.0110428,0.000689441,0.000655253,0.000969434,0.00111743,0.000559662,0.00162898
0.00244493,0.0119891,0.000782132,0.000641063,0.00101039,0.00106663,0.000521937,0.00135315
0.00172692,0.0111134,0.000807573,0.000648873,0.00107274,0.000985424,0.000549804,0.00136936
0.00106587,0.010943,0.000836732,0.000627909,0.00103109,0.000956521,0.000665342,0.00123827
0.000825421,0.00833604,0.00085696,0.000622414,0.00100406,0.000954964,0.00138386,0.00090469
0.00077816,0.0075124,0.000882613,0.000636287,0.00109183,0.000949934,0.00192273,0.00084343
0.00127506,0.00758654,0.000889459,0.00063718,0.00107779,0.000835419,0.002378,0.00097795
0.00135418,0.0075441,0.000882444,0.000649292,0.00101593,0.000790499,0.00253712,0.000982911
0.00138731,0.00770582,0.000866339,0.000630406,0.000953431,0.000796681,0.00271754,0.00102276
0.00138664,0.00822973,0.000885661,0.000610919,0.000872129,0.000814892,0.00287204,0.000950635
0.00138418,0.00629269,0.000817917,0.000645922,0.000791792,0.000788645,0.00291168,0.000976836
0.00138501,0.00526182,0.000797917,0.000654201,0.000776968,0.000813751,0.00292014,0.000956017
0.0013758,0.00365369,0.000804006,0.000679945,0.000739727,0.000817838,0.0032076,0.000999209
0.00136304,0.00297967,0.000812041,0.00072048,0.000803996,0.000834442,0.00297271,0.00109325
0.00135816,0.0024852,0.00084279,0.000819932,0.000717554,0.000875687,0.00229445,0.00110543
0.000771406,0.00218642,0.000844702,0.000819937,0.000651617,0.000845956,0.00181875,0.00101848
0.00064959,0.00199246,0.000837013,0.000820422,0.000659427,0.000792272,0.00166987,0.00102848
0.000641902,0.00190875,0.000826927,0.000831392,0.000647507,0.000745021,0.00150244,0.00105816
0.000641795,0.000997156,0.000797304,0.000901561,0.000665269,0.000753684,0.00148953,0.00104341
0.000664711,0.000953482,0.000812784,0.00087518,0.000719807,0.000885926,0.0014247,0.00101115
0.000647958,0.000958289,0.000796203,0.000876174,0.000737199,0.000970312,0.00140476,0.000940215
0.000691267,0.000873878,0.000747102,0.000854513,0.000732148,0.000974873,0.00121146,0.000929025
0.000693508,0.000895904,0.000700464,0.00082474,0.000681036,0.00109307,0.000922739,0.000876931
0.000661963,0.000915797,0.000664225,0.000727825,0.000697072,0.00103674,0.000839806,0.000857284
0.00062965,0.00115939,0.000646168,0.000711624,0.000708841,0.00102588,0.00076907,0.000903163
0.00059729,0.00132956,0.000594484,0.000716845,0.000686185,0.00105505,0.00077483,0.000894528
0.000546954,0.00136409,0.000590669,0.00071055,0.000715008,0.0010858,0.000782225,0.000792051
0.000546886,0.00175205,0.000538123,0.000628703,0.000274554,0.00029185,0.00410419,0.00246147
0.000879035,0.00173936,0.000563735,0.00086345,0.000315524,0.000358023,0.00429443,0.00339468
0.000961568,0.00171554,0.000613975,0.000978341,0.000376862,0.000448171,0.00463106,0.00399049
0.00101561,0.00171578,0.000670946,0.0011263,0.000416432,0.000552959,0.00495487,0.00565793
0.00118338,0.0017033,0.000668303,0.00119101,0.000444336,0.000642143,0.00501675,0.00668761
0.00178601,0.00155266,0.000687092,0.00116134,0.000468921,0.00064159,0.00497862,0.00752124
0.00224747,0.00337896,0.000667458,0.00109709,0.000513148,0.000635762,0.00520191,0.00789134
0.00227592,0.00383211,0.000647239,0.00109062,0.000506213,0.000629722,0.00514387,0.00817537
0.00209758,0.00390911,0.000645508,0.00108361,0.000491835,0.000641833,0.00512058,0.00815875
0.0022299,0.00428898,0.000714219,0.0011403,0.000479175,0.000620087,0.00463158,0.00836282
0.00226604,0.00629292,0.000725246,0.00112486,0.000522228,0.000657232,0.00493891,0.00794249
0.00223155,0.00704957,0.000732316,0.00112402,0.000559804,0.000652146,0.00491834,0.00746947
0.00183212,0.00709672,0.000709295,0.00107661,0.000557516,0.000668617,0.00486413,0.00703296
0.0018081,0.00551204,0.000730178,0.00108205,0.000535934,0.000651928,0.00475464,0.00659843
0.00196526,0.00501577,0.000752508,0.000951438,0.000526902,0.000656476,0.00446075,0.00559769
0.00199626,0.00558312,0.000762886,0.000868237,0.000553087,0.00065802,0.00439471,0.00595866
0.00191893,0.00523398,0.000699338,0.000827955,0.000571732,0.000650773,0.0046924,0.00583317
0.00193256,0.00339536,0.000660682,0.000828595,0.000644646,0.000596458,0.00412086,0.00546618
0.00187701,0.00279505,0.000679829,0.000957586,0.000607264,0.000596639,0.00404703,0.00509615
0.00169955,0.00263836,0.000664478,0.00102815,0.000601813,0.000628248,0.00392596,0.00553455
0.00126726,0.00265078,0.000637593,0.0010569,0.000590872,0.000645735,0.00385333,0.00538138
0.00105386,0.00257853,0.000644627,0.00116122,0.000610654,0.00064974,0.0045371,0.005071
0.000870353,0.00192768,0.000642078,0.00116472,0.000644195,0.000678307,0.00436922,0.0046024
0.000820956,0.00188239,0.000695759,0.00116908,0.000627546,0.000715048,0.00469814,0.00588974
0.00110951,0.00302456,0.000708291,0.00118357,0.000568738,0.000695385,0.00439224,0.005614
0.00124933,0.00416178,0.000743264,0.00107934,0.000608193,0.000666084,0.00490579,0.00595322
0.00128783,0.00433742,0.000770561,0.00105394,0.000606598,0.00066429,0.00494699,0.00574436
0.00124763,0.0042161,0.000783411,0.00117457,0.000625091,0.000633986,0.00511371,0.0056053
0.001223,0.00422727,0.000792039,0.00109397,0.000634455,0.000628868,0.00456576,0.00639385
0.00127618,0.004922,0.000771468,0.00107604,0.000620099,0.000586321,0.00463996,0.00608984
0.0013961,0.00487714,0.000749962,0.00125354,0.000622358,0.000561626,0.00463255,0.00649377
0.00113856,0.00316366,0.000765761,0.00120236,0.000596534,0.000602257,0.00472441,0.00707623
0.00147757,0.00251599,0.000789976,0.00117876,0.000563404,0.000609718,0.00429365,0.00718724
0.00182005,0.00234756,0.00075157,0.00114164,0.000530673,0.00059047,0.00445855,0.00678803
0.00184696,0.00237204,0.000743585,0.00102897,0.000513711,0.000635913,0.00421942,0.00683276
0.00188795,0.00224343,0.000735112,0.00111432,0.000505931,0.000653368,0.00447235,0.0069398
0.00182684,0.00155656,0.000739525,0.00128541,0.000487771,0.000642274,0.00448453,0.00712123
0.00171132,0.00288534,0.000736725,0.00114258,0.000472577,0.000671936,0.00392241,0.00560223
0.00157566,0.00369232,0.000740817,0.00115845,0.000475748,0.000630819,0.00416586,0.00601218
0.00119591,0.0036499,0.000655724,0.00125793,0.000566411,0.000592447,0.0041151,0.00646484
0.000937492,0.00381475,0.000709495,0.0012869,0.000590182,0.000677708,0.0047085,0.00787186
0.00144263,0.00380376,0.00071599,0.00140649,0.000576817,0.000676567,0.00481761,0.00773921
0.00148704,0.00380249,0.000692141,0.00130237,0.000560037,0.000649582,0.00459099,0.00732104
0.00147653,0.00382757,0.000706538,0.00117139,0.000568913,0.000642245,0.00450734,0.00796996
0.00144495,0.0021697,0.000738771,0.00120901,0.000562083,0.000635046,0.00518563,0.00775805
0.00153654,0.00159708,0.000718367,0.00127688,0.000579326,0.000655472,0.00547391,0.00757169
0.00137181,0.00145836,0.000733625,0.00131196,0.000508364,0.000663724,0.0052615,0.00748009
0.00133638,0.00129875,0.000723599,0.00148771,0.00053021,0.000626225,0.00545025,0.00727727
0.000839185,0.00125986,0.000727833,0.00137173,0.000556481,0.000623734,0.00549807,0.00765149
0.000964271,0.00126731,0.000711728,0.0014023,0.000541504,0.000612579,0.00562538,0.00721733
0.0010833,0.0012186,0.000718994,0.00138306,0.000534084,0.000626117,0.00535185,0.00681872
0.00108157,0.0013181,0.000669508,0.00132286,0.000522482,0.000663465,0.00501886,0.00629014
0.000950979,0.00134718,0.00068355,0.00126446,0.00051495,0.000626361,0.00497632,0.0057484
0.0016487,0.00149991,0.000688246,0.00117677,0.000497483,0.000601451,0.00506043,0.00508613
0.00178661,0.00152668,0.000682008,0.00114861,0.000521596,0.000629837,0.00515649,0.00444546
0.00193507,0.00150159,0.000657844,0.00117743,0.000527275,0.000600046,0.00490422,0.0045085
0.00172424,0.00147553,0.00064775,0.00130589,0.000554245,0.000619337,0.00524308,0.0046741
0.00164005,0.00148124,0.000608166,0.00147408,0.000557986,0.000605141,0.00525434,0.00438289
0.00165631,0.00134401,0.000609163,0.00151168,0.000585276,0.000580877,0.00506889,0.00428503
0.00193001,0.00131504,0.000609043,0.0014796,0.000601992,0.000624014,0.0050645,0.00438478
0.00126466,0.00126298,0.000582531,0.00141605,0.000626611,0.000650619,0.00483101,0.00492604
0.00129176,0.00165021,0.00059505,0.00150344,0.000607499,0.000603513,0.00417614,0.00513153
0.00124383,0.00204762,0.000617094,0.00159676,0.000612514,0.000586805,0.00489543,0.00495893
0.00186084,0.00202891,0.000679296,0.00143567,0.000620914,0.000577719,0.00406099,0.00582568
0.00209452,0.00204015,0.000744799,0.00143621,0.000593311,0.000588732,0.00456933,0.00653907
0.00217351,0.0020736,0.000749405,0.00140417,0.000592636,0.000561097,0.00500068,0.00684947
0.00206374,0.002039,0.000714478,0.00141931,0.000572329,0.000543452,0.00482386,0.00654518
0.00217856,0.00208275,0.00072211,0.00145063,0.000569871,0.000522027,0.00473558,0.0061044
0.00201903,0.00159366,0.000702834,0.0012639,0.000567567,0.000539919,0.00472918,0.00661757
0.00197087,0.00122944,0.000711718,0.00116209,0.000576966,0.000575803,0.00438988,0.00691026
0.00132061,0.00133741,0.000696585,0.0013344,0.000573604,0.000572741,0.00538014,0.00601873
0.00108032,0.001916,0.000718912,0.00121188,0.000566974,0.000590498,0.00471806,0.00585175
0.00112138,0.00192284,0.00074589,0.00130034,0.000576082,0.00057637,0.00459405,0.00695937
0.00132618,0.00199632,0.000774138,0.00128549,0.000603938,0.000580663,0.0047699,0.00736002
0.00160143,0.0019523,0.000766101,0.00140978,0.000584482,0.000574269,0.00574076,0.00747097
0.00161574,0.00201276,0.000770676,0.00151646,0.000612632,0.000538297,0.00581594,0.00643334
0.00163952,0.00202318,0.000716229,0.00146585,0.000611406,0.000576394,0.00573732,0.00590022
0.00202556,0.00194851,0.00069029,0.00130289,0.000577356,0.000561431,0.00523827,0.00586816
0.00201269,0.00128427,0.000666963,0.00153119,0.00061294,0.00059759,0.00560227,0.00531926
0.00177559,0.00122051,0.000647355,0.00150887,0.000601774,0.000603558,0.0053774,0.00460878
0.001421,0.00120355,0.000639145,0.00161629,0.000617574,0.000574773,0.00550393,0.00515779
0.00109369,0.00125728,0.000699483,0.00147968,0.00063425,0.000577869,0.0046649,0.004706
0.00106653,0.00119202,0.000699408,0.00135846,0.000608415,0.000584396,0.00442653,0.00485825
0.000985615,0.00130931,0.000718393,0.00132997,0.000580005,0.000567191,0.00422553,0.00594135
0.000639308,0.00142031,0.000746139,0.0013273,0.000585826,0.000594824,0.00417638,0.0063378
0.000619748,0.00155067,0.000749045,0.00107341,0.000576646,0.000615345,0.00384522,0.00591674
0.00070234,0.00154401,0.000756674,0.00106952,0.000567007,0.000609512,0.00420719,0.00521469
0.00126475,0.00148358,0.000725147,0.000935676,0.000520488,0.000622168,0.00402871,0.00441441
0.00139541,0.00142216,0.000679645,0.000985438,0.000482988,0.000628485,0.00397011,0.00485702
0.00145888,0.0015091,0.000682703,0.00104658,0.000482302,0.000636292,0.00401937,0.0047003
0.00205924,0.00171408,0.000674455,0.00105134,0.000505699,0.000625685,0.00424901,0.00399932
0.0021692,0.00235186,0.000651973,0.00101751,0.000518311,0.000593969,0.00380774,0.00396832
0.00222491,0.00228686,0.000634914,0.00102347,0.00051311,0.000569461,0.00366503,0.00407125
0.00223537,0.00231539,0.000664115,0.00110376,0.000508993,0.000569741,0.00396263,0.00426116
0.00167834,0.00230911,0.00067839,0.00108719,0.000505847,0.00056903,0.0038247,0.00436896
0.00168256,0.00231207,0.000693765,0.00104815,0.000498064,0.000568106,0.00376837,0.00390563
0.00195794,0.00217728,0.000696276,0.000961183,0.000484672,0.000560673,0.00373477,0.00379017
0.00141222,0.00166493,0.000682675,0.0009773,0.000474795,0.000547574,0.0042283,0.00360317
0.00133372,0.00116863,0.000691945,0.00101691,0.000442942,0.000561862,0.00447048,0.00340972
0.00132511,0.00115103,0.000667627,0.00110199,0.000449241,0.00058842,0.0046955,0.00345613
0.00593028,0.0162503,0.000671047,0.00116366,0.000550847,0.00165273,0.00282998,0.00390047
0.00262736,0.0169315,0.000672281,0.00111598,0.000556525,0.00188271,0.00247069,0.0044853
0.00152173,0.0160124,0.000640758,0.00101838,0.000501593,0.00203823,0.00239357,0.0045381
0.00133954,0.014864,0.000602412,0.000899241,0.000498873,0.00226031,0.00235366,0.00469106
0.00134999,0.0147306,0.000580166,0.000854582,0.0004959,0.00240581,0.00252356,0.00474382
0.00134484,0.0145518,0.00059749,0.000807894,0.00051505,0.00258702,0.00261702,0.00406893
0.00141856,0.0140587,0.000602584,0.000778099,0.000527435,0.00263646,0.00246942,0.00348028
0.00196261,0.0142601,0.000599018,0.000829291,0.000542829,0.00285315,0.00241636,0.00325987
0.0020834,0.013025,0.000596919,0.000802573,0.000521613,0.00291026,0.00249252,0.00351722
0.00269719,0.0102653,0.000622511,0.000783996,0.000521153,0.00312676,0.00258818,0.00315819
0.00291555,0.0116115,0.000612968,0.000713749,0.000574997,0.00343886,0.0022837,0.00305373
0.00286811,0.0101988,0.000611353,0.000708303,0.000573104,0.00328507,0.00193721,0.0025437
0.00302469,0.00940942,0.000616772,0.000746619,0.000556232,0.00308882,0.00187813,0.00200599
0.00424661,0.0093195,0.00064663,0.000801655,0.000551613,0.00279169,0.00184946,0.00187041
0.0062351,0.00978462,0.000648695,0.000811168,0.000556514,0.00245694,0.00178203,0.00228435
0.00679797,0.01126,0.000656114,0.000857082,0.000577578,0.00231117,0.00163759,0.00239349
0.00676987,0.0123403,0.000666824,0.000894617,0.000566636,0.00224393,0.00162923,0.00240164
0.00668278,0.0144811,0.000691007,0.00078767,0.000559754,0.00231769,0.00156736,0.00243636
0.00696816,0.015632,0.000677693,0.000750688,0.000585632,0.00266453,0.00148289,0.00217262
0.0071863,0.0152543,0.000719771,0.000730565,0.000587516,0.00277198,0.00138261,0.0020077
0.00649437,0.0111937,0.000696701,0.000672759,0.000597139,0.00235026,0.00107913,0.00193404
0.00659896,0.0101286,0.000687234,0.000682437,0.000561667,0.00245127,0.000972161,0.00174846
0.00661639,0.0121807,0.00068095,0.000642455,0.000588435,0.00275161,0.000923625,0.00172728
0.00631587,0.0147168,0.000718993,0.000595246,0.000591869,0.00279532,0.000847824,0.00165695
0.00484791,0.0159099,0.000708897,0.000565672,0.000589361,0.00282472,0.000797327,0.00148711
0.00297304,0.0158025,0.000712643,0.000542284,0.000552793,0.00272581,0.000745832,0.00108094
0.00264396,0.0146769,0.000709169,0.000489306,0.000559773,0.00275875,0.00064077,0.00103888
0.00270786,0.0150022,0.000709449,0.000488366,0.000617476,0.00283271,0.000634391,0.0011294
0.00278911,0.013158,0.000704828,0.000511564,0.000657521,0.00236445,0.000707581,0.00153029
0.00205316,0.0115807,0.000721301,0.000521417,0.00062614,0.00198112,0.000717016,0.00153666
0.0022005,0.0114885,0.000673144,0.000515543,0.000622969,0.00194026,0.000744521,0.00152764
0.0019629,0.0114284,0.000705128,0.000523881,0.000638667,0.0019247,0.000739985,0.00151699
0.00192377,0.00993683,0.000725243,0.000522782,0.000637654,0.00142865,0.000709027,0.00141296
0.00193881,0.00786917,0.000710428,0.000532811,0.000617492,0.00114579,0.00068382,0.00132063
0.00196703,0.00635169,0.000665942,0.000547603,0.000607016,0.00111325,0.000691967,0.00130527
0.00198464,0.00879729,0.000695275,0.00055068,0.000618934,0.00121747,0.000787577,0.0013047
0.00198839,0.0104508,0.000717426,0.000552846,0.000629077,0.0012082,0.000828741,0.00121755
0.00223314,0.0120336,0.000719088,0.000569154,0.000624235,0.00118705,0.000837669,0.00119842
0.00264321,0.0115722,0.000721988,0.000540487,0.000535418,0.0012473,0.000782056,0.00101379
0.00290849,0.0119011,0.000711956,0.000516247,0.000535786,0.00131092,0.000770485,0.00102486
0.00288702,0.0132027,0.000681927,0.000541364,0.000549185,0.0013527,0.000794672,0.00104445
0.00260335,0.0135245,0.000670595,0.000564308,0.00057073,0.00133275,0.000767942,0.00103361
0.00256366,0.0151241,0.000648882,0.000570882,0.000555045,0.00131212,0.000817417,0.00102631
0.00258149,0.0164598,0.000627806,0.000568878,0.00054657,0.0013269,0.000838772,0.00106057
0.00293709,0.0182061,0.000660097,0.000555016,0.000568209,0.00133623,0.000996067,0.00106813
0.00349491,0.0184918,0.000705581,0.000566541,0.000598605,0.00128778,0.00203014,0.00105721
0.00415699,0.0160877,0.000677652,0.000590173,0.00062594,0.00116232,0.00247128,0.00112957
0.00428129,0.0142789,0.000650765,0.000598228,0.000651826,0.0010909,0.00274662,0.00132324
0.00394778,0.0120879,0.000691899,0.000631789,0.000656577,0.00103529,0.00288347,0.00154159
0.00314216,0.011963,0.000722813,0.000637746,0.000663678,0.000923251,0.00301158,0.00167593
0.00270626,0.0114846,0.000754687,0.000628507,0.000696711,0.00084406,0.00315408,0.00151334
0.0028171,0.010408,0.000807227,0.000611777,0.000820514,0.000874019,0.00320241,0.00173008
0.0028644,0.010588,0.000851271,0.000606472,0.000892335,0.000946596,0.00335119,0.00195456
0.00276192,0.0105122,0.000833164,0.000655268,0.000933069,0.000973041,0.00384122,0.00204426
0.00294497,0.0107187,0.000856894,0.000650296,0.000937383,0.000985509,0.00405406,0.00219071
0.0034611,0.0105388,0.000912057,0.000665892,0.000980815,0.000982662,0.00365397,0.00222496
0.00432782,0.00915861,0.000905414,0.00065996,0.000994406,0.000967877,0.00282722,0.00233988
0.00387541,0.00895416,0.000935445,0.00068661,0.000955285,0.00098709,0.00224092,0.00234343
0.00378664,0.008914,0.000934502,0.000731565,0.000930339,0.00104307,0.00208962,0.00222465
0.00376507,0.0104112,0.000903736,0.000711591,0.000940393,0.000955374,0.0021222,0.00214881
0.00378528,0.0117751,0.000879536,0.000746081,0.000958902,0.000882312,0.00215848,0.00206178
0.00376425,0.0119334,0.000893429,0.00074478,0.000998319,0.000956544,0.00226224,0.0019904
0.00360598,0.0118773,0.000810356,0.000781586,0.000887514,0.000822575,0.00222432,0.00170009
0.00404695,0.010818,0.000790401,0.000751606,0.000861518,0.000743274,0.00198051,0.00154105
0.00408832,0.00933298,0.000839057,0.000739246,0.000871104,0.000721593,0.00154698,0.00148032
0.00365982,0.00779332,0.000857294,0.000730245,0.000859963,0.000726205,0.0014257,0.00153521
0.00227534,0.00678594,0.000782176,0.000720167,0.00086243,0.000770367,0.00142681,0.00154733
0.00124079,0.00623408,0.000762025,0.00066401,0.000828399,0.000851434,0.00143214,0.00152424
0.00120444,0.00628776,0.00072023,0.000683355,0.000859043,0.000958173,0.00145603,0.00149817
0.00118692,0.00628049,0.000727525,0.000631855,0.0009198,0.000952367,0.00146659,0.00150487
0.00118917,0.00390702,0.000751819,0.000625238,0.000885614,0.000939624,0.00125301,0.00137312
0.00119108,0.00266669,0.000753033,0.000586974,0.000911436,0.00093354,0.00114283,0.00145238
0.00118288,0.00232103,0.000780099,0.000572325,0.000945736,0.000942343,0.000924618,0.0014943
0.00103782,0.00214195,0.00080448,0.000561374,0.000927322,0.000963148,0.000917308,0.0015014
0.000568524,0.00190531,0.000832178,0.000540878,0.000888662,0.00100869,0.000915309,0.00152227
0.000480385,0.00191876,0.000807346,0.000555966,0.000929865,0.0010232,0.000878535,0.0014399
0.000487158,0.00164407,0.000771267,0.000595474,0.000917158,0.00101869,0.000888426,0.00129232
0.000495972,0.00109822,0.000807105,0.000632539,0.000938396,0.00101241,0.000875095,0.00125774
0.000508077,0.00110559,0.000826872,0.000644025,0.000997454,0.000936619,0.000835144,0.00119783
0.000492614,0.000996595,0.000835947,0.000712323,0.000941367,0.000836229,0.00083399,0.00119195
0.000509784,0.00103526,0.000845441,0.000726429,0.000949651,0.000806552,0.000813,0.00106419
0.000510027,0.00114602,0.000827084,0.000725149,0.000985862,0.000814545,0.000789255,0.000969307
0.000493081,0.00159147,0.000821132,0.000839245,0.000991053,0.000790225,0.00076388,0.000887193
0.000467373,0.00317547,0.000798983,0.00088505,0.000870918,0.000774862,0.000734891,0.000836182
0.000478104,0.00365576,0.000770448,0.000894658,0.000870415,0.000781466,0.000733668,0.00080912
0.000483801,0.00368539,0.000738833,0.000891516,0.00083355,0.000740242,0.000699101,0.000852956
0.000487234,0.00367608,0.000708404,0.000881511,0.000892245,0.000727524,0.000633661,0.000845704
0.000493895,0.00369621,0.000709071,0.000868119,0.000906893,0.000710943,0.00062971,0.000861148
0.000519802,0.00363609,0.000685771,0.000907351,0.000856705,0.000713832,0.00063563,0.000913281
0.000519384,0.00374967,0.000722685,0.000846667,0.000888816,0.000710273,0.000603258,0.000939512
0.000526278,0.00422057,0.000710448,0.000786832,0.000864945,0.000739167,0.000608085,0.00103671
0.000490086,0.00537385,0.000704996,0.000771376,0.000828907,0.000919602,0.000599816,0.00107829
0.000484962,0.00666288,0.000704145,0.000727662,0.000931528,0.00103561,0.000630308,0.00123888
0.000494517,0.00644633,0.000706724,0.000649507,0.000930816,0.00111135,0.000619317,0.00139057
0.000505527,0.00499903,0.000750659,0.000607523,0.000916176,0.00108491,0.000688842,0.00149606
0.000513697,0.00472281,0.000806937,0.000636774,0.000966936,0.00110414,0.000740956,0.00155446
0.000518161,0.0047094,0.000927868,0.00064074,0.00105798,0.00118072,0.000874523,0.00151238
0.000514001,0.00476014,0.000933828,0.000634045,0.000976967,0.0011587,0.000990192,0.00157954
0.000502879,0.00478732,0.000974154,0.000583822,0.000996241,0.00122249,0.00101417,0.00168392
0.000506944,0.00479878,0.000977722,0.000573471,0.00104276,0.00131805,0.0010615,0.00165504
0.000546886,0.00175205,0.000538123,0.000628703,0.000274554,0.00029185,0.00410419,0.00246147
0.000919178,0.0017646,0.000583742,0.000886595,0.000326978,0.000369071,0.00437328,0.00358088
0.000986588,0.00171824,0.000641062,0.00104741,0.000398213,0.000490212,0.00483419,0.00444283
0.00115751,0.00168692,0.0006833,0.00119435,0.000432976,0.00062128,0.00504156,0.00636602
0.00166301,0.00158095,0.000700056,0.00118429,0.000466849,0.000644621,0.00498569,0.00736247
0.00225328,0.00337858,0.000667057,0.00109628,0.000510976,0.000638178,0.00520393,0.00784507
0.00215455,0.00397587,0.000661485,0.00104812,0.00050381,0.000624283,0.00499287,0.00834885
0.00211839,0.00406217,0.000657129,0.00118729,0.000486252,0.000633744,0.00496766,0.00814785
0.00230145,0.00521626,0.000730215,0.00114984,0.000494105,0.000630791,0.00476156,0.00841807
0.00217059,0.00695275,0.000746626,0.00112404,0.000556991,0.000651758,0.00491954,0.00750744
0.00180736,0.00698405,0.00070723,0.0010764,0.00055875,0.000669633,0.00488788,0.00688748
0.00184588,0.00537712,0.000731445,0.00105577,0.000525925,0.000647652,0.00488987,0.00644538
0.00200765,0.00508456,0.000781436,0.00095397,0.000552168,0.000662394,0.00427561,0.00566178
0.00194318,0.00552977,0.000723978,0.000850737,0.00056504,0.000654752,0.00444854,0.00620812
0.00189579,0.00365233,0.000671763,0.00081977,0.000655212,0.000602081,0.0040131,0.00547386
0.00185616,0.0027815,0.00067704,0.000954961,0.000604539,0.00060066,0.00406672,0.0049199
0.00170303,0.00262605,0.000643141,0.0010612,0.00060766,0.000642013,0.00397504,0.00549196
0.00110644,0.00254586,0.000648135,0.00106409,0.000605838,0.000644518,0.00382998,0.00535521
0.000974403,0.00200812,0.000648283,0.00118157,0.000653536,0.00066684,0.00438961,0.00445774
0.000823267,0.00187072,0.000688794,0.00116056,0.000646081,0.000708788,0.00463794,0.00593221
0.00113563,0.00341888,0.000715243,0.00119743,0.000575159,0.000677054,0.00442892,0.0055688
0.00123749,0.00420617,0.000761605,0.00112761,0.000618934,0.000656155,0.00518172,0.00587247
0.00127643,0.00429828,0.000794795,0.00108582,0.000617984,0.000635927,0.00501726,0.00563359
0.00122346,0.00422865,0.00077577,0.00118906,0.000635672,0.000621327,0.00488747,0.00629519
0.00124778,0.00492837,0.000778399,0.00107515,0.000618417,0.000600586,0.00462179,0.0061012
0.0014062,0.00488669,0.000762429,0.0012492,0.000619767,0.00056231,0.00465748,0.00673383
0.00112718,0.00267629,0.000765507,0.00120958,0.00058811,0.000595979,0.00428976,0.00664949
0.00178373,0.00243922,0.000765578,0.0011423,0.000544898,0.000580608,0.00426028,0.00693976
0.00184092,0.00236235,0.000740646,0.000997049,0.000499218,0.000612705,0.00430835,0.00695301
0.00188969,0.002264,0.000735156,0.001089,0.000508745,0.000656532,0.00447281,0.00695616
0.00177533,0.00155184,0.000720923,0.00131107,0.00047197,0.000652439,0.00459051,0.00716233
0.00163342,0.00344125,0.000738028,0.00118521,0.000474035,0.000638324,0.00402376,0.00572397
0.00130198,0.00375037,0.000694455,0.00118403,0.000549589,0.00062075,0.00425146,0.0065161
0.000960286,0.00382895,0.000711612,0.00128332,0.000592949,0.000665822,0.00459394,0.00773533
0.00144048,0.00380167,0.000717071,0.00140267,0.000577341,0.000677802,0.00482836,0.00777034
0.00146954,0.00378009,0.000706303,0.00127197,0.000562574,0.000648187,0.00467286,0.00750278
0.0014757,0.00377409,0.000692884,0.00112637,0.000566685,0.000617981,0.00483544,0.00821181
0.00147682,0.00176157,0.000720948,0.00125603,0.000577427,0.000651174,0.00532595,0.00744807
0.00139192,0.00143932,0.000747297,0.00126981,0.000516775,0.000700277,0.00547098,0.00736031
0.00132765,0.00129694,0.000723385,0.00148868,0.000529723,0.000627095,0.00545614,0.00727652
0.000786781,0.0012588,0.000724508,0.00133907,0.000548086,0.000625175,0.00548295,0.00768756
0.00103751,0.00129838,0.000724835,0.00140231,0.000524128,0.000616783,0.0055036,0.00713391
0.00109542,0.00125719,0.000690627,0.00134499,0.000537477,0.000645375,0.00491176,0.00636252
0.000972108,0.00134647,0.000685253,0.00127028,0.000500472,0.000634609,0.00493786,0.00573266
0.00166802,0.00149212,0.000686867,0.00119125,0.000497461,0.000602836,0.00500679,0.00499719
0.00184352,0.00155257,0.000688032,0.00111902,0.000521588,0.000610566,0.00507401,0.00420363
0.00192065,0.00147435,0.000645068,0.00122359,0.000536734,0.00059768,0.00468519,0.00462551
0.0016321,0.00146968,0.000631653,0.00146821,0.000561166,0.000611821,0.00527192,0.00407345
0.00164194,0.00142146,0.000595659,0.00151269,0.000582671,0.000584918,0.00511083,0.00428575
0.00182236,0.00129611,0.000607405,0.00148929,0.000602378,0.00062373,0.00508682,0.00441005
0.00120758,0.00121626,0.000587005,0.00133674,0.000625662,0.000630699,0.00418643,0.00490818
0.00127412,0.00194011,0.000602139,0.00149724,0.000598209,0.000594009,0.00439833,0.00516336
0.00161575,0.00205015,0.000666958,0.00155671,0.000629938,0.000578416,0.00417434,0.00557546
0.00204508,0.00204649,0.000736785,0.00139821,0.00060841,0.00058723,0.0044743,0.00631496
0.00222056,0.00206119,0.000745768,0.00139893,0.000592251,0.000560828,0.00491869,0.00685478
0.00204482,0.00207631,0.000715175,0.00140922,0.000566502,0.00052239,0.00487508,0.00606777
0.00212262,0.00203671,0.000732804,0.00139048,0.000578925,0.000534606,0.00487923,0.00627012
0.00196674,0.0012859,0.000693816,0.00122658,0.000575227,0.000550061,0.0042688,0.00676599
0.00133606,0.00132452,0.00071143,0.00133613,0.000566599,0.000576372,0.00535951,0.00603403
0.0010788,0.0019437,0.000738131,0.00119806,0.000565456,0.000582096,0.00468588,0.0058478
0.00125884,0.00194706,0.00075572,0.00128197,0.000596155,0.000588921,0.00475237,0.00717456
0.00154859,0.00190959,0.000805545,0.00130101,0.000600544,0.000561983,0.00492305,0.00730941
0.00160732,0.00203147,0.00075529,0.00145372,0.000616174,0.000538616,0.00573391,0.00663496
0.00163398,0.00203026,0.000718797,0.00149683,0.000611161,0.000565557,0.0057415,0.00593028
0.00204057,0.00184075,0.000671668,0.00129445,0.000583732,0.000553454,0.00522318,0.00586171
0.0019898,0.00126257,0.000644545,0.00157344,0.000610132,0.000588357,0.00531412,0.00493881
0.00153888,0.00122238,0.000635638,0.00148285,0.000589905,0.000583273,0.00560739,0.0051183
0.00111921,0.00120292,0.000686761,0.00149972,0.000617778,0.000582124,0.00484042,0.00477897
0.001072,0.00118824,0.000701618,0.00135918,0.000608989,0.000581487,0.00447776,0.00486139
0.000865671,0.00132443,0.00072214,0.00130207,0.000587833,0.00056231,0.00428857,0.00595315
0.000623262,0.00153012,0.000765755,0.00127874,0.000569857,0.000607231,0.00409589,0.00621833
0.000699092,0.00155064,0.000748619,0.00104176,0.000568351,0.000609626,0.00414718,0.0055891
0.00121619,0.00153478,0.000753017,0.000951815,0.000533599,0.000630307,0.00408926,0.00430203
0.00139529,0.00142195,0.000680161,0.00098535,0.000483716,0.000628565,0.00396777,0.0048564
0.001493,0.00153613,0.000690748,0.00105334,0.000498544,0.000606293,0.00410619,0.00442594
0.0021449,0.00223387,0.000659088,0.000993029,0.000512937,0.000608491,0.00414638,0.00436841
0.0021971,0.00226488,0.000631241,0.00104514,0.0005087,0.000566959,0.00396725,0.00417418
0.00228739,0.00231234,0.000670659,0.00112088,0.000503541,0.000564541,0.00397014,0.0041439
0.00167774,0.00230779,0.000677783,0.00108322,0.00050573,0.000568707,0.00381617,0.0043078
0.00166807,0.00228694,0.000702028,0.00101944,0.000478619,0.0005762,0.00369577,0.00385948
0.00174741,0.00214966,0.000701723,0.000973294,0.000470891,0.00055785,0.00407639,0.0037127
0.00134657,0.00121298,0.000697556,0.00101653,0.000448431,0.000577511,0.00432839,0.00339359
0.00131066,0.00117831,0.000684221,0.00106281,0.000440251,0.000589612,0.0043717,0.00346688
0.00137653,0.00121954,0.000625801,0.000995667,0.000468385,0.000571478,0.00417713,0.00344055
0.00142114,0.0013855,0.000622175,0.00100999,0.00045274,0.000565047,0.00410731,0.0030922
0.00166296,0.00144186,0.000606553,0.000984953,0.000479201,0.0005658,0.00435658,0.00340533
0.00166589,0.00225734,0.000645138,0.000997749,0.000524167,0.00059795,0.00377059,0.00504949
0.00195318,0.00228533,0.000663765,0.000984787,0.000532747,0.000573786,0.00411227,0.00544156
0.002423,0.00227899,0.000699484,0.000974198,0.000515134,0.00053811,0.00423113,0.00579295
0.00228875,0.00218785,0.000738969,0.00103114,0.000484988,0.000601292,0.00445876,0.00563641
0.00241163,0.00206366,0.000774926,0.00103655,0.00046542,0.000563887,0.00452211,0.00594136
0.00183721,0.00177911,0.000855401,0.00104477,0.000467786,0.000578232,0.0051087,0.004942
0.00159133,0.00121647,0.000797225,0.00117407,0.000453896,0.000580089,0.00521918,0.00444117
0.00150342,0.00129896,0.000770498,0.00128004,0.000440206,0.000638473,0.00486695,0.00498787
0.00109116,0.00141116,0.000727552,0.00120339,0.000449433,0.00061263,0.00490534,0.00519085
0.00108374,0.00130133,0.000758953,0.00130528,0.000508965,0.000658553,0.00523772,0.00602762
0.00129543,0.00131167,0.000707737,0.00135147,0.000601472,0.000686881,0.00504106,0.00665028
0.00163785,0.00132417,0.000620028,0.00138151,0.000616286,0.000633942,0.00459375,0.00670067
0.00166759,0.001263,0.000614397,0.00125238,0.00061854,0.000604798,0.00403343,0.00634903
0.00185872,0.0012716,0.000643037,0.00112888,0.000631617,0.000574843,0.00418255,0.00636357
0.00182762,0.0186973,0.000823429,0.000902387,0.000986331,0.00177183,0.00230092,0.00421156
0.00206518,0.0187466,0.000837823,0.000930524,0.00106909,0.00225455,0.00207104,0.00397539
0.00224345,0.0183012,0.000875083,0.00094846,0.00112279,0.00258416,0.00199086,0.00381237
0.00232918,0.0168034,0.00086855,0.00100637,0.00113962,0.00257668,0.00203893,0.00371856
0.00235713,0.0155675,0.000899477,0.00100046,0.00112452,0.00275937,0.00218359,0.00374988
0.00249371,0.013034,0.000925423,0.000999672,0.00114962,0.00289006,0.00207809,0.00360899
0.0028052,0.0118619,0.000982772,0.000943137,0.00118737,0.00307192,0.00225193,0.00332001
0.00324536,0.0109516,0.00100873,0.000923748,0.00118004,0.00323994,0.00226979,0.00355199
0.00395361,0.0125382,0.00105291,0.000948803,0.00121149,0.00330742,0.00247769,0.0032137
0.00428177,0.0139732,0.00108119,0.000978544,0.00123466,0.00364945,0.00267071,0.0032838
0.00741826,0.0135248,0.00104991,0.000977218,0.00124512,0.00435651,0.00294881,0.00295487
0.0083074,0.0125075,0.000962766,0.00101922,0.00123838,0.00475962,0.00304341,0.00298766
0.00840291,0.0097189,0.00092201,0.00101506,0.00107244,0.00473979,0.00285601,0.00301327
0.00810943,0.00932942,0.000895066,0.00097384,0.000879093,0.00462195,0.00275062,0.00275473
0.0077747,0.00898357,0.000876933,0.000872659,0.000751826,0.00426074,0.00255362,0.00225701
0.00752972,0.00935026,0.000825975,0.000831255,0.000718641,0.00379484,0.00246958,0.00217013
0.00756652,0.0110333,0.000826075,0.000809993,0.000669846,0.00362863,0.00238025,0.00246307
0.00764797,0.0110637,0.000783703,0.00081007,0.000671801,0.00358408,0.00220145,0.00253892
0.0074919,0.0105586,0.000736502,0.000814057,0.000654458,0.0033038,0.00203123,0.00254324
0.00705522,0.0108633,0.000708434,0.000830319,0.000633233,0.00315133,0.00187611,0.00259549
0.00693201,0.0112494,0.000668796,0.000841922,0.000625344,0.00312418,0.00177111,0.0027895
0.00656314,0.0108379,0.000610359,0.000810033,0.000617027,0.00295107,0.0016673,0.00273403
0.00649831,0.0113239,0.000588551,0.00075942,0.000605823,0.00286258,0.00143111,0.00231818
0.00442681,0.0123979,0.000574082,0.000754238,0.000617941,0.00240307,0.00127008,0.00202533
0.00278622,0.0123108,0.00057019,0.00071988,0.000597428,0.00176608,0.0009707,0.00192193
0.00215109,0.0123805,0.000565153,0.000680083,0.000572256,0.00166613,0.000819276,0.00182963
0.00211145,0.012546,0.000568043,0.000666672,0.000559456,0.00179329,0.000810824,0.00173281
0.0022312,0.0155387,0.000565583,0.000678592,0.000568433,0.00182664,0.000785335,0.00171129
0.00334963,0.0158272,0.00060541,0.000700073,0.000560542,0.00173348,0.000991052,0.00165335
0.00409599,0.0151197,0.000616082,0.000697669,0.000559019,0.00172776,0.00198611,0.001495
0.00440315,0.0152316,0.000632271,0.000695594,0.000573385,0.0018503,0.00234944,0.00137351
0.00470249,0.0193313,0.000668497,0.000703171,0.000606913,0.00200518,0.00275574,0.00135208
0.00478308,0.0210411,0.000699971,0.000696589,0.000634718,0.00191712,0.00300459,0.001339
0.00472949,0.0205851,0.000675857,0.000675416,0.000637052,0.00179104,0.00304129,0.00100758
0.00665137,0.0206344,0.00068404,0.00067906,0.000618415,0.00186485,0.00305963,0.000839937
0.00770854,0.0232969,0.000710524,0.00068182,0.000667038,0.00184595,0.00302413,0.00091167
0.00805816,0.0240039,0.000743602,0.000677629,0.000675711,0.00180493,0.00304542,0.00109438
0.00827851,0.0251134,0.000780937,0.000684943,0.000677943,0.00185714,0.00304884,0.00117812
0.00829554,0.0252284,0.000797515,0.000685875,0.00067303,0.00191926,0.00303578,0.00130012
0.00826233,0.0252486,0.000775485,0.00069562,0.000676708,0.00192046,0.0030291,0.0013271
0.00816052,0.0230488,0.000780586,0.000704743,0.000660305,0.00201723,0.002973,0.0013567
0.00804182,0.0217117,0.000757143,0.000671391,0.000661199,0.00205415,0.00285877,0.00145266
0.00709813,0.0205305,0.000735998,0.000655455,0.000671291,0.00203299,0.00203139,0.00147358
0.00793704,0.0202918,0.000716558,0.000629372,0.000667825,0.00192909,0.00152738,0.00143493
0.0092192,0.0171834,0.000696086,0.000620876,0.000623156,0.00177427,0.00117734,0.00139393
0.0103779,0.0159384,0.000714226,0.000572311,0.000619137,0.00168037,0.000890786,0.00131468
0.0109473,0.01641,0.000703469,0.00059113,0.000645225,0.00170863,0.000846794,0.00129707
0.00992512,0.0188106,0.000723109,0.000559327,0.000633796,0.0016927,0.00101661,0.00129627
0.00768027,0.0167067,0.00070832,0.000558766,0.000604528,0.00168269,0.00110433,0.00130992
0.00934233,0.0137412,0.000688831,0.000574257,0.000577591,0.00164598,0.00110682,0.00122913
0.00980906,0.0116099,0.00070396,0.000557116,0.000591573,0.00155236,0.00109684,0.00144033
0.0103657,0.0111763,0.000706144,0.000544218,0.000625393,0.00148898,0.00114875,0.00150799
0.0106669,0.0111192,0.000726784,0.000535602,0.000633401,0.00143028,0.00121858,0.00151703
0.0108439,0.0111224,0.000718847,0.000527371,0.000648023,0.0011137,0.00121625,0.0015421
0.0113565,0.0111322,0.000745474,0.000539567,0.00074084,0.000906529,0.00122208,0.00152897
0.0116899,0.0114536,0.000768275,0.000525992,0.000789985,0.000897459,0.00118894,0.00145595
0.0113034,0.0123393,0.000773932,0.000537234,0.000827043,0.00091486,0.00143321,0.00146407
0.00930435,0.0125945,0.000790314,0.000535898,0.000818177,0.000914135,0.00151565,0.00145359
0.00817404,0.0123282,0.000789104,0.000540242,0.00080018,0.000897477,0.00153068,0.00145435
0.00724648,0.0136279,0.000791485,0.000527456,0.000754826,0.000898257,0.00149878,0.00146437
0.00690501,0.0153176,0.000821179,0.000513456,0.000755563,0.000838797,0.00145112,0.00148676
0.0069046,0.0137971,0.000918091,0.000526627,0.000838823,0.000813887,0.00121475,0.00155097
0.00539945,0.013292,0.000903086,0.000497515,0.000841809,0.000780592,0.00124227,0.00182708
0.00393893,0.0132128,0.000870414,0.000503726,0.000837782,0.000694654,0.00119703,0.00173253
0.00327664,0.0130211,0.000833671,0.000494311,0.0008473,0.000613626,0.00120664,0.00158125
0.00287946,0.0128445,0.000792513,0.000488942,0.000837163,0.000581397,0.00114022,0.00144567
0.00279232,0.0128707,0.000853343,0.000470568,0.000870003,0.000569679,0.00120577,0.00145344
0.00212076,0.0129291,0.000826905,0.000470125,0.000839876,0.000581513,0.00121143,0.00148881
0.00145927,0.0126272,0.000833004,0.000465547,0.00083068,0.000586356,0.001222,0.00150699
0.00124708,0.0116527,0.00086056,0.000482635,0.000796666,0.000609866,0.000986447,0.00150053
0.00108666,0.0108319,0.000879713,0.000503782,0.00083356,0.000616173,0.00093453,0.00154182
0.00101089,0.00925777,0.000954625,0.000513161,0.000906426,0.000593259,0.00110837,0.00151764
0.000971234,0.00741587,0.000958805,0.000534422,0.000934672,0.000583705,0.00117028,0.00151973
0.000958949,0.00359313,0.000901933,0.000540541,0.000909628,0.000652576,0.00118797,0.00154009
0.000951747,0.00235171,0.000807194,0.000551862,0.000824096,0.000654939,0.00122386,0.00164098
0.000956459,0.00196524,0.000842969,0.00057225,0.000816762,0.000738745,0.00123678,0.00136128
0.000950701,0.00169356,0.000845901,0.000581186,0.0008131,0.000766656,0.00125642,0.00113747
0.000945319,0.00164332,0.000840769,0.000566437,0.000820374,0.000802518,0.00129589,0.00108801
0.000960464,0.00163661,0.000868952,0.000589369,0.000866362,0.000811521,0.00130722,0.00106399
0.00100309,0.00158851,0.00086022,0.00059053,0.000859382,0.000819413,0.00124694,0.00111256
0.000954699,0.00152431,0.000836099,0.000599583,0.000782942,0.000813142,0.00125955,0.00103901
0.000797459,0.00151327,0.000841677,0.000608223,0.000758561,0.0008374,0.00128652,0.000991261
0.000651513,0.00200136,0.000819613,0.000622165,0.000772481,0.000820799,0.00126136,0.000973355
0.000642031,0.00331662,0.000834627,0.000617036,0.000766853,0.000800674,0.00123443,0.000997027
0.000618934,0.0039162,0.000778144,0.000605512,0.000708723,0.000855907,0.00105701,0.000987039
0.000598965,0.0038386,0.000800085,0.0006108,0.000746334,0.000860732,0.000930666,0.00104131
0.000602116,0.00373449,0.000890688,0.000637146,0.00092489,0.000871417,0.00090794,0.00102065
0.000602222,0.00353016,0.000885633,0.000686908,0.000985054,0.000922584,0.000887014,0.000927978
0.000592984,0.00341903,0.00088994,0.000740408,0.000987329,0.000923891,0.000830971,0.000867302
0.000589934,0.00343524,0.000867502,0.000818728,0.000994656,0.000890318,0.000828771,0.000909475
0.000571663,0.00343831,0.000873715,0.000827652,0.000962638,0.000881786,0.000788011,0.0008867
0.000563915,0.00342216,0.000914984,0.000809076,0.000909145,0.000939891,0.000772164,0.000904799
0.000542074,0.00343688,0.000865613,0.000817063,0.000909397,0.000945354,0.000696351,0.000865636
0.000528017,0.00340179,0.00089476,0.000828129,0.000893348,0.000988904,0.000705,0.00086925
0.000527554,0.0034317,0.000904115,0.000824049,0.000858329,0.000982395,0.000679101,0.000920295
0.000500103,0.00325329,0.000924303,0.00081285,0.000854296,0.00102652,0.000687098,0.000908013
0.000499636,0.00171331,0.000901685,0.000867912,0.000845942,0.00114345,0.000704635,0.00086248
0.000495503,0.000932627,0.000866992,0.000962208,0.000833601,0.00116948,0.000720976,0.000911312
0.000500565,0.00087235,0.000836471,0.00101339,0.00084604,0.00124405,0.000708143,0.000989272
0.000503297,0.00089958,0.000710847,0.00101036,0.000689651,0.00128981,0.000733408,0.00105355
0.000546886,0.00175205,0.000538123,0.000628703,0.000274554,0.00029185,0.00410419,0.00246147
0.000820644,0.00174816,0.000546796,0.000813921,0.000290907,0.000326747,0.0043888,0.0028082
0.000944571,0.00173886,0.000593339,0.00089931,0.00033606,0.000382287,0.00448906,0.00362381
0.000971131,0.00171587,0.000616709,0.000992149,0.000381723,0.000457291,0.00468901,0.00400652
0.000993409,0.00172203,0.000650877,0.00107187,0.000408733,0.000517086,0.00484594,0.00495136
0.00109893,0.00169751,0.000686573,0.00117337,0.000429863,0.00058489,0.00496827,0.00620973
0.00120346,0.0016791,0.000674583,0.00118036,0.000450902,0.000632079,0.0049394,0.00681628
0.00159701,0.00158428,0.00069953,0.00118746,0.00046787,0.000644695,0.00500687,0.00730524
0.00208607,0.00225445,0.000672786,0.00109677,0.000508121,0.000625051,0.00503555,0.00792471
0.00226544,0.00336648,0.000669784,0.0010827,0.000516851,0.000639591,0.00517694,0.00766595
0.00227128,0.00370296,0.000646564,0.00110787,0.000499377,0.000635095,0.00517004,0.00806812
0.00204324,0.00394581,0.000660925,0.00103405,0.00050645,0.000635526,0.00518188,0.0086203
0.00209672,0.00397425,0.000637556,0.00115546,0.000503434,0.000638608,0.00506098,0.0081895
0.00223176,0.00415047,0.000714891,0.00114924,0.000484752,0.000626938,0.00482931,0.00822058
0.00230097,0.00499556,0.000723904,0.00114163,0.000492902,0.000626693,0.00472772,0.00836998
0.00224136,0.00671082,0.000733526,0.00112124,0.000540636,0.00066451,0.00497838,0.007774
0.0022007,0.00699662,0.000743902,0.0011223,0.000556081,0.000647995,0.00491755,0.00752028
0.00213073,0.00722915,0.00071364,0.00107327,0.000548829,0.000665634,0.00492804,0.00756027
0.00164028,0.00670378,0.000710195,0.00109159,0.000536811,0.000661933,0.00486066,0.00652068
0.00180161,0.00551073,0.000729904,0.00108196,0.000536508,0.000655395,0.00476986,0.0065906
0.00192712,0.00523457,0.00074596,0.000994674,0.000519822,0.000643663,0.00484422,0.0058447
0.00199933,0.00504682,0.000773381,0.000963391,0.00055338,0.000658894,0.00432857,0.00557835
0.00200123,0.00557423,0.000760192,0.000865965,0.000555151,0.000658926,0.00439895,0.00596505
0.00194226,0.00552859,0.000715725,0.000851757,0.000564711,0.000655061,0.00446476,0.00621862
0.00186953,0.00494954,0.000674105,0.00082388,0.000641819,0.000662471,0.00440758,0.0057272
0.00197843,0.00334388,0.000675938,0.000836916,0.000650947,0.000598877,0.00412029,0.00552344
0.00201659,0.00294323,0.000676037,0.000887407,0.000614435,0.000600478,0.00407246,0.00551373
0.00177927,0.00266408,0.000668464,0.000967824,0.000608296,0.000619053,0.00396432,0.0050336
0.00169295,0.00263206,0.000667883,0.00104676,0.000603079,0.000628387,0.00401113,0.00554179
0.00134968,0.00263165,0.000618455,0.00105992,0.000596432,0.000629543,0.00384399,0.00535603
0.00110721,0.00254508,0.000648723,0.00106451,0.000606909,0.00064473,0.00382587,0.00535391
0.00103718,0.00256783,0.000623855,0.00116767,0.000601352,0.00064733,0.00451068,0.00496843
0.000902792,0.0019151,0.000639795,0.00116828,0.00065641,0.00065715,0.00447383,0.00419892
0.000828314,0.00194224,0.00065794,0.00116547,0.000640249,0.000706763,0.00436375,0.00573563
0.000812113,0.00189519,0.000706283,0.00117488,0.000593721,0.000690128,0.00471102,0.00580065
0.00104696,0.00245649,0.000726038,0.00117593,0.000585665,0.000701515,0.00442347,0.00573862
0.0012131,0.00411131,0.000705981,0.00116033,0.000587437,0.000683072,0.0047843,0.00585095
0.00124392,0.00420326,0.000762698,0.00112929,0.000618709,0.000657232,0.00518653,0.00585992
0.00128523,0.00432748,0.000774016,0.00106749,0.000608743,0.0006697,0.00500769,0.00573773
0.00125704,0.00427438,0.00080033,0.00110182,0.000613606,0.000639157,0.00510027,0.00560839
0.00125167,0.00426131,0.000760338,0.00116942,0.000639858,0.000644137,0.00531703,0.00591635
0.00122377,0.00422309,0.000791914,0.00109375,0.00063461,0.000628113,0.0045682,0.00638959
0.00117345,0.00488602,0.000785073,0.00107238,0.000608122,0.000625941,0.0045888,0.00667355
0.00134964,0.00491112,0.000770943,0.00104607,0.000633604,0.000575509,0.00456731,0.00509241
0.00139917,0.00487735,0.000752272,0.00126028,0.000620179,0.000563076,0.00463817,0.00661511
0.00133283,0.00438828,0.000765911,0.00121746,0.000607504,0.000593514,0.00483102,0.00719317
0.00117877,0.00260019,0.000769801,0.00121066,0.000590536,0.000592991,0.00432572,0.00663848
0.00153611,0.00251139,0.000788705,0.00114972,0.000553103,0.00061049,0.00413012,0.00720348
0.00179308,0.00237325,0.000748304,0.00114583,0.000546166,0.000587437,0.0043164,0.00682773
0.00183638,0.00234979,0.000741475,0.00108385,0.000513067,0.000606591,0.0042363,0.00695862
0.00184626,0.00234547,0.000740039,0.00103015,0.000505794,0.000624325,0.0042126,0.00679914
0.00188071,0.00233209,0.000738682,0.00104039,0.000508967,0.000653068,0.00446679,0.00701629
0.00192842,0.00171119,0.000723903,0.00124826,0.000488209,0.000639017,0.00430362,0.00694522
0.0017668,0.00154878,0.000722228,0.00131389,0.000469854,0.000651408,0.00459996,0.00717183
0.00171883,0.00226696,0.000733833,0.00114689,0.000483025,0.00066053,0.00386437,0.00562686
0.00158933,0.00349838,0.000727649,0.00117946,0.000478192,0.000646869,0.00400493,0.00580805
0.00147198,0.00369918,0.000726148,0.00114693,0.000521621,0.000624761,0.00413106,0.00631065
0.00124478,0.00367543,0.00065498,0.00124554,0.000556057,0.000592211,0.00406829,0.00636097
0.000984884,0.00377202,0.000701499,0.00127482,0.000586631,0.000653563,0.00461979,0.00727932
0.00111056,0.00378231,0.000700507,0.00131502,0.000590509,0.000677937,0.00474746,0.00786964
0.00143797,0.00379924,0.000718333,0.00139821,0.000577951,0.000679031,0.00484162,0.00779397
0.00150375,0.00383966,0.000690297,0.00145533,0.000561989,0.000660779,0.00446491,0.00711652
0.00148009,0.00377858,0.000711906,0.00124805,0.000563895,0.000662826,0.00472726,0.00741502
0.00147787,0.00382663,0.000707098,0.00117091,0.000568794,0.000640721,0.00451696,0.00796962
0.00145979,0.00332423,0.00072562,0.00114668,0.000562013,0.000632026,0.00517126,0.00825312
0.00147343,0.00177178,0.000744263,0.00126202,0.000572471,0.000643152,0.00523652,0.00756302
0.00154586,0.00158633,0.000715695,0.00127382,0.000556563,0.00065182,0.00547379,0.00747644
0.00139739,0.00143173,0.000749032,0.00129175,0.000517703,0.000702954,0.00545655,0.00739051
0.00134597,0.00135767,0.000718634,0.00139014,0.000510595,0.000630708,0.00538696,0.00742331
0.00124073,0.00129082,0.000723932,0.00148008,0.000525359,0.000635316,0.00552214,0.00732434
0.000860555,0.00127549,0.000726644,0.00140393,0.000554873,0.000632246,0.00559087,0.00762957
0.000784227,0.00124658,0.000740738,0.00132587,0.000539072,0.000620073,0.0056227,0.00763428
0.00100147,0.00127816,0.000717823,0.00140362,0.00053787,0.000602901,0.00554133,0.0071944
0.00108168,0.00123258,0.000705106,0.00137063,0.000530228,0.000623472,0.00548173,0.00682256
0.0010949,0.0012385,0.000700013,0.00137889,0.000540134,0.000649808,0.00502391,0.00652657
0.00106592,0.00140898,0.000652643,0.00126134,0.000509176,0.000665074,0.00497213,0.00623794
0.000965228,0.00134062,0.000686946,0.0012696,0.000502913,0.000634593,0.0049545,0.00572033
0.00148125,0.00149559,0.000658491,0.00118586,0.000511991,0.000586387,0.00490255,0.00547786
0.00174736,0.00149027,0.000680059,0.00114741,0.000506686,0.000600544,0.00511204,0.0049796
0.00178192,0.00151288,0.00068632,0.00115118,0.000515926,0.000622934,0.00522073,0.00452253
0.0018845,0.00152482,0.000660952,0.00117556,0.000524294,0.000613923,0.00478216,0.00440346
0.00193614,0.00146669,0.000656215,0.00118766,0.000538895,0.000603233,0.0048805,0.00457536
0.00172823,0.00147592,0.000648165,0.00129804,0.00055325,0.000619537,0.00523488,0.00469417
0.00163121,0.00147083,0.000630824,0.00147033,0.000560367,0.000612121,0.00527172,0.00408487
0.00165068,0.001435,0.000603858,0.00146884,0.000555295,0.000593055,0.00540837,0.00441958
0.00165548,0.00133703,0.000605419,0.00151493,0.000587562,0.000580058,0.00509649,0.00428364
0.00178387,0.00132434,0.000600379,0.00149046,0.000604428,0.000611462,0.00502987,0.00437497
0.00151143,0.00124146,0.000597943,0.00151402,0.000609748,0.000639821,0.00491588,0.00500118
0.00122823,0.00125107,0.000576455,0.00142721,0.000631725,0.000648809,0.00463808,0.00494827
0.00128572,0.00133293,0.000585134,0.00140008,0.000615527,0.000615575,0.00405918,0.0050463
0.00127728,0.00192865,0.000602983,0.00149193,0.00060393,0.000598203,0.00439375,0.00519548
0.00124623,0.00207679,0.000620347,0.00162632,0.000600393,0.000581978,0.00487631,0.00496399
0.00165421,0.00203181,0.000659352,0.00150625,0.000620734,0.000574321,0.00407703,0.00573115
0.0019451,0.00207166,0.000712454,0.0013835,0.000612437,0.000573086,0.00437488,0.00616335
0.00212599,0.0020385,0.000722593,0.00146701,0.000600362,0.000570557,0.00478643,0.00660271
0.00216923,0.00208531,0.000740347,0.00141988,0.00059818,0.000569018,0.00511019,0.00681765
0.00222944,0.00204836,0.000714305,0.00143602,0.000570205,0.00053709,0.00482325,0.00679352
0.0020492,0.00206039,0.000718177,0.00140975,0.000567679,0.000532379,0.00483695,0.00609355
0.00217456,0.00207988,0.000719677,0.0014484,0.000573829,0.000525492,0.00478365,0.00619049
0.00211051,0.00201115,0.00072682,0.00139963,0.00058056,0.000540935,0.00489503,0.00632384
0.00478058,0.0137554,0.000646364,0.00215096,0.000596283,0.00247577,0.00345445,0.00483094
0.00294907,0.0152753,0.000682628,0.00149745,0.000556865,0.00228163,0.00298438,0.00531444
0.00263382,0.0169251,0.000717115,0.00138923,0.000518879,0.00265966,0.0036041,0.00527128
0.00312525,0.0150219,0.000697725,0.00131758,0.000484675,0.00293791,0.00348945,0.00504289
0.00347099,0.0142637,0.000688092,0.00133084,0.000496892,0.00312672,0.00322418,0.00528563
0.00446456,0.0132372,0.000681998,0.00131643,0.000504047,0.00391439,0.00324329,0.00430395
0.00634757,0.0114752,0.000649111,0.00151091,0.000529946,0.00433854,0.00431292,0.00492852
0.00587997,0.0105379,0.000673598,0.00152224,0.000551792,0.00506179,0.00436098,0.0044191
0.00581775,0.00797477,0.000647197,0.00156325,0.000546211,0.00534581,0.00434456,0.00411637
0.00606579,0.00676485,0.000589481,0.00147747,0.000547901,0.00502239,0.00452796,0.00375074
0.00668155,0.00609245,0.00058216,0.00133679,0.000553166,0.00412572,0.00374501,0.0037121
0.00662923,0.00763934,0.000623176,0.001319,0.000569757,0.00379717,0.00364149,0.00367165
0.00667713,0.0117061,0.000641051,0.00139153,0.000546532,0.00393334,0.0036771,0.00341459
0.00564265,0.0151593,0.000686811,0.00139728,0.000532553,0.00337604,0.00346694,0.00332894
0.00313295,0.0160642,0.000692415,0.00124645,0.000481711,0.00279404,0.00238966,0.0031831
0.00308709,0.0168594,0.000661733,0.0011697,0.000474404,0.002109,0.00222804,0.00313746
0.00357812,0.0170211,0.000649769,0.0011462,0.0005324,0.00233498,0.00222643,0.00306657
0.00385014,0.0174938,0.000683848,0.00113845,0.000528716,0.00323312,0.00218011,0.00317626
0.00301774,0.0176596,0.000696744,0.00111697,0.000530278,0.00370792,0.002093,0.00367897
0.00267941,0.0182659,0.000668499,0.00102138,0.000549466,0.00375075,0.00174185,0.00345713
0.00422046,0.0205443,0.000673556,0.000773338,0.000598292,0.00360471,0.00126319,0.00338019
0.00665582,0.0189147,0.000663127,0.000668236,0.000616965,0.00359723,0.00120677,0.00297501
0.00702185,0.0198229,0.000684433,0.000632088,0.000626616,0.00402076,0.00115811,0.00221742
0.00684997,0.0190044,0.000732323,0.000749232,0.000660166,0.00410845,0.00118604,0.00208376
0.00730238,0.0188209,0.000793132,0.000720914,0.00065437,0.00361367,0.00105881,0.00192185
0.00789053,0.0180921,0.000744383,0.000684108,0.000653637,0.00277413,0.000947343,0.00128024
0.00795491,0.016291,0.000736143,0.000715279,0.000641185,0.00224382,0.000965085,0.000812519
0.00773224,0.0138948,0.000748678,0.000722129,0.000628341,0.00284591,0.000959788,0.000750934
0.00567779,0.0080034,0.000742805,0.000898395,0.000586898,0.0031399,0.000949043,0.000756975
0.00327111,0.00769644,0.000707051,0.000887929,0.000559463,0.00291013,0.000935845,0.00110523
0.00287865,0.00923725,0.000721081,0.000988274,0.000553868,0.00251682,0.000912941,0.00127725
0.00286666,0.0106304,0.000722531,0.00102914,0.000543196,0.00264093,0.000798515,0.00135341
0.00170385,0.00958138,0.000673805,0.000995419,0.00053855,0.00263586,0.000705967,0.00135783
0.00102731,0.0093847,0.000654677,0.000991829,0.000552129,0.00277852,0.000688097,0.00137551
0.00131618,0.00934411,0.000635476,0.000980777,0.00055926,0.00288508,0.000671347,0.00138739
0.00184234,0.00921534,0.000670725,0.000977765,0.000550138,0.00215858,0.000670596,0.00157974
0.00195776,0.0085046,0.000668355,0.000806434,0.000558904,0.00173094,0.000672409,0.00171546
0.00211675,0.0102007,0.000696043,0.00087804,0.000568443,0.00159789,0.000643703,0.00148145
0.00229444,0.011339,0.000709633,0.00073032,0.000586173,0.00152705,0.000650573,0.00131762
0.00307993,0.0112317,0.000698927,0.000648394,0.000608872,0.00144237,0.000660234,0.00122412
0.00316198,0.0111427,0.000705997,0.000672624,0.000570287,0.00154867,0.00064178,0.00120541
0.00304152,0.0105802,0.00074268,0.000661554,0.000549263,0.00133052,0.000663627,0.00118498
0.00252754,0.0114268,0.000744198,0.000646783,0.000563813,0.00138727,0.00069254,0.00104976
0.00279639,0.0133038,0.000695383,0.000652684,0.000570406,0.00144235,0.000657816,0.00100563
0.00274139,0.013907,0.000691201,0.000692396,0.000543353,0.0014753,0.000667225,0.000870073
0.00282486,0.0123935,0.000683779,0.000611376,0.000545833,0.00151956,0.000675737,0.000789432
0.00280446,0.01079,0.000658943,0.000600936,0.000538494,0.0017604,0.000674639,0.000761709
0.00271965,0.0108739,0.000688012,0.000598761,0.000507367,0.00168711,0.000716539,0.000757852
0.00385079,0.0112079,0.000673504,0.000611871,0.000541943,0.00155793,0.000736472,0.000745176
0.00407597,0.0120229,0.000627846,0.000638241,0.000562909,0.0016312,0.00072747,0.000804569
0.0041988,0.0142182,0.00062091,0.000665972,0.00053746,0.00165591,0.00067349,0.000921559
0.00387475,0.0163317,0.000601916,0.000642091,0.000517006,0.0015593,0.000685433,0.000862976
0.00407886,0.016294,0.000603922,0.000631492,0.000564748,0.00143768,0.000680827,0.000861788
0.00774653,0.01527,0.00059366,0.000627644,0.000578648,0.00141187,0.000666804,0.00088138
0.00843192,0.0121853,0.000602305,0.000614503,0.00058067,0.00126902,0.000671666,0.000924532
0.00856526,0.0130184,0.000575005,0.000608234,0.000577853,0.00137867,0.000639323,0.00105308
0.00760372,0.0132724,0.000579877,0.000586993,0.000598445,0.00138917,0.000615748,0.00119873
0.00750328,0.0124795,0.000624216,0.000553671,0.000579039,0.00125614,0.00059204,0.00119634
0.00865858,0.0127175,0.000626402,0.000540149,0.000588451,0.00112043,0.000643815,0.00111131
0.0105718,0.010991,0.000674983,0.000572868,0.00058631,0.00109495,0.000682734,0.00107397
0.0109414,0.00975763,0.000693287,0.000575424,0.000581582,0.00114381,0.000696027,0.00109338
0.00763583,0.0102111,0.000694796,0.000569071,0.000548419,0.001112,0.00067635,0.00110738
0.00747129,0.0117202,0.000677176,0.000547912,0.000543027,0.000879678,0.000637685,0.00108937
0.00722683,0.0132947,0.000678235,0.000531028,0.000536001,0.00075218,0.000649941,0.000961561
0.0071831,0.0128456,0.00068249,0.000526552,0.000521388,0.000689189,0.000644121,0.000864653
0.00735364,0.0131236,0.000648979,0.000565064,0.000526494,0.000683103,0.000691071,0.000848945
0.00711078,0.0119009,0.000715714,0.00055193,0.000577101,0.000669168,0.000685692,0.000838508
0.00798635,0.0138726,0.000750111,0.000534939,0.000648257,0.000890508,0.000702798,0.00101074
0.00772994,0.0153216,0.000756731,0.000551283,0.000655653,0.00104662,0.00117055,0.000952658
0.00732259,0.0149458,0.000745483,0.000580024,0.000659355,0.00106846,0.0013604,0.00091027
0.00753034,0.0130688,0.00078139,0.000572594,0.000720854,0.00108265,0.00151759,0.000966297
0.00706763,0.0109371,0.000857333,0.000602023,0.000787957,0.00108524,0.00196417,0.00124785
0.00695828,0.0105463,0.000867063,0.000613689,0.000883906,0.00110138,0.00208452,0.00135326
0.0067781,0.0101004,0.000887495,0.000621374,0.000873803,0.0011633,0.00204479,0.00160431
0.00536726,0.00713711,0.000812498,0.00067126,0.000914696,0.00117838,0.00199733,0.00162901
0.00282751,0.00579679,0.000814079,0.000655443,0.000960492,0.000912457,0.00194048,0.0014518
0.00236587,0.00475587,0.000837575,0.000679967,0.00109786,0.0007789,0.00169925,0.00171799
0.00223356,0.00629118,0.000937046,0.000659533,0.00137017,0.00102872,0.0019656,0.00182975
0.00148714,0.00714379,0.00101993,0.000745792,0.00142988,0.00121261,0.00212319,0.00178241
0.00147492,0.00880876,0.00105729,0.000770486,0.00149496,0.00121635,0.00203774,0.00152608
0.00135741,0.00962983,0.00105712,0.000748867,0.0014275,0.00119891,0.00215872,0.00137082
0.00106277,0.00985414,0.00111392,0.000740305,0.00142942,0.0011546,0.0024661,0.00113224
0.000994017,0.00944233,0.00113254,0.000715047,0.00135037,0.00110087,0.00260504,0.00129668
0.000852335,0.00761865,0.0010744,0.000754562,0.00135208,0.00109929,0.00266271,0.00134834
0.000760174,0.00719613,0.00101976,0.00073483,0.00118373,0.00107261,0.00249935,0.00112634
0.000677886,0.00560193,0.00101253,0.000735927,0.00101031,0.00085571,0.00206022,0.00102798
0.00060843,0.00458015,0.000903483,0.000682249,0.000866432,0.000732654,0.00178719,0.0010289
0.000544758,0.002633,0.000828525,0.000704043,0.00080667,0.000708255,0.0014618,0.00103696
0.000529974,0.00202598,0.00085528,0.000826835,0.00104834,0.000742219,0.00128292,0.00107555
0.000536327,0.00372557,0.000807014,0.000853006,0.00106503,0.000686254,0.000992077,0.00106223
0.000530976,0.00407098,0.000800727,0.000826698,0.0010283,0.000751993,0.000854745,0.000934268
0.00053284,0.00408677,0.000790062,0.00081799,0.00091963,0.000834766,0.000781831,0.000860652
0.000511633,0.00441203,0.000762528,0.000806414,0.000915949,0.000836827,0.000746225,0.000829827
0.000501249,0.00466092,0.000715426,0.00080011,0.000873233,0.000871125,0.000736666,0.000813193
0.000514406,0.00474607,0.000666276,0.000849764,0.000845563,0.000903543,0.000749075,0.000804431
0.000546982,0.00469848,0.000618335,0.00084715,0.000785537,0.000978202,0.000778598,0.000797392
0.000548201,0.0043182,0.000595456,0.000743171,0.000532001,0.000959355,0.000813886,0.000705518
0.000556134,0.00257873,0.000597111,0.000752744,0.000509954,0.000993175,0.000848791,0.000685358
0.000556475,0.00227962,0.000597291,0.000808184,0.000495791,0.00101345,0.000870334,0.000636996
0.000539728,0.00210517,0.000613698,0.000809612,0.000577713,0.000962816,0.00113114,0.000721372
0.000546886,0.00175205,0.000538123,0.000628703,0.000274554,0.00029185,0.00410419,0.00246147
0.000845692,0.00173087,0.000553337,0.000840713,0.00030769,0.000349405,0.00432546,0.00300676
0.000955362,0.00169196,0.000599945,0.00091417,0.00036051,0.000419096,0.00451588,0.00369114
0.000991911,0.00172044,0.000646118,0.00106084,0.000405271,0.000505248,0.00484352,0.00477437
0.00110776,0.00169901,0.000687589,0.00118043,0.000431473,0.000600156,0.00501281,0.00630219
0.00131567,0.00160386,0.00067974,0.00121579,0.000460747,0.000631978,0.004813,0.0071926
0.00187375,0.00185393,0.000683774,0.00114249,0.000474035,0.000631486,0.00498264,0.00784445
0.00226325,0.00337198,0.000668443,0.00109042,0.000515332,0.000639877,0.00520068,0.00777519
0.0022787,0.00377033,0.000643688,0.00110283,0.000506851,0.000627075,0.00517555,0.00807874
0.00204247,0.00394382,0.000644044,0.00107493,0.000499945,0.000635957,0.00520762,0.00847711
0.00219838,0.00409107,0.00068643,0.00118339,0.000488774,0.000624489,0.00494099,0.00817958
0.00230034,0.00492365,0.000721602,0.00113342,0.000491355,0.00062413,0.00473,0.0083492
0.00220444,0.00683758,0.000729474,0.00110722,0.000553307,0.000651374,0.00491929,0.00757359
0.00224473,0.00710993,0.00072393,0.00108665,0.000540712,0.000672998,0.00495518,0.00759482
0.00176026,0.00682122,0.000707324,0.00108131,0.000551317,0.000665724,0.00486953,0.00666118
0.00180872,0.00551214,0.000730385,0.00108247,0.000536114,0.000652017,0.00475319,0.00659917
0.00193694,0.00512429,0.000757002,0.000981034,0.000519294,0.000652886,0.004502,0.00573603
0.00201848,0.00547138,0.000785282,0.000916562,0.000544549,0.000648662,0.00434367,0.00567314
0.00194756,0.0055376,0.000737301,0.000837268,0.00056571,0.00066225,0.00445235,0.00620379
0.00186719,0.00468807,0.000664755,0.000814428,0.000646322,0.000654797,0.0043348,0.0057347
0.00199052,0.00308447,0.000667778,0.000835795,0.000625568,0.000603087,0.00401824,0.00576353
0.00180176,0.00278526,0.0006711,0.000944348,0.000615239,0.00060438,0.00405752,0.00482789
0.00169423,0.0026375,0.000664825,0.0010338,0.000606529,0.000625389,0.00396539,0.00554322
0.00127913,0.00264869,0.000634458,0.00105572,0.000592312,0.000643233,0.00386243,0.00538041
0.0010937,0.00256839,0.000645527,0.00107306,0.000605336,0.000655204,0.00418806,0.00532316
0.000971363,0.00203314,0.000648437,0.00118212,0.000651365,0.000665977,0.00435624,0.00448333
0.00082802,0.0019399,0.000659077,0.00116366,0.000640217,0.000706579,0.00436869,0.00572168
0.000862044,0.00192003,0.000712844,0.00117971,0.000574798,0.000687884,0.0046905,0.00582319
0.00123517,0.00360579,0.000715458,0.00120558,0.000581469,0.000684372,0.00458661,0.0056141
0.0012447,0.00418399,0.000758939,0.0011131,0.000612945,0.000658733,0.00511675,0.00595086
0.00128693,0.00433754,0.00077014,0.00105204,0.000606292,0.000663295,0.00493889,0.00574574
0.00124774,0.00420689,0.000787402,0.00116871,0.000624589,0.000638757,0.00511136,0.00556222
0.00122205,0.00422385,0.000778011,0.0011812,0.000636389,0.000621596,0.00484807,0.00629512
0.00117699,0.00488345,0.000778325,0.00106458,0.000606674,0.000627044,0.0046088,0.00664598
0.00135365,0.00488442,0.000768663,0.00107321,0.000630437,0.000583234,0.004526,0.00521456
0.00139072,0.00489305,0.000755692,0.0012443,0.000615476,0.000558718,0.00472922,0.00672574
0.0010336,0.00291557,0.000769463,0.00119626,0.000589467,0.000600774,0.00440718,0.00685177
0.001526,0.00251444,0.000788685,0.0011542,0.000554186,0.000610824,0.00415526,0.0072046
0.00181253,0.00235605,0.000751626,0.00114692,0.000532977,0.000595042,0.00445179,0.0067739
0.00184339,0.00235827,0.000739138,0.00099672,0.000500111,0.000615337,0.00427922,0.00695227
0.00187754,0.00234355,0.0007442,0.0010159,0.000522023,0.000638449,0.00436443,0.00706227
0.00193276,0.00170742,0.000722194,0.00125962,0.00048518,0.000639723,0.00428673,0.00696158
0.00172445,0.00155013,0.000743056,0.00130823,0.000479179,0.000646844,0.00450799,0.00696943
0.00165183,0.00332775,0.000737323,0.00118015,0.00047549,0.000650672,0.00402893,0.00575746
0.00155587,0.0036852,0.000726297,0.0011456,0.000494834,0.000622823,0.00414773,0.00614631
0.0011904,0.00364749,0.000655938,0.00125762,0.000568099,0.000592573,0.00412574,0.0064691
0.000952617,0.00381796,0.000712707,0.00128779,0.000591775,0.000671958,0.00466147,0.007876
0.00141457,0.00379966,0.000725339,0.0013975,0.000586362,0.00067916,0.00472856,0.00782612
0.00150469,0.00383927,0.000691322,0.00145987,0.000563806,0.000663135,0.00449212,0.00710842
0.00147841,0.00377485,0.00072115,0.00118591,0.000573886,0.000654978,0.00472189,0.00759499
0.00147995,0.00382656,0.000685114,0.00113051,0.000570522,0.000622477,0.00480253,0.00817438
0.00146585,0.001827,0.000755276,0.00118671,0.000560979,0.000634979,0.00522323,0.00776266
0.00154762,0.00158082,0.000714952,0.00127257,0.000550759,0.000653419,0.00547273,0.00744944
0.00137761,0.00145509,0.000738216,0.00130175,0.000510075,0.000687412,0.0053469,0.00741526
0.00135139,0.00130079,0.000720179,0.00145345,0.000518747,0.00060786,0.00537225,0.00725654
0.000879339,0.00127074,0.000726898,0.00141358,0.000547979,0.000622405,0.00565598,0.00760166
0.000792777,0.00124245,0.000741872,0.00132472,0.000539846,0.000622458,0.00572126,0.00762564
0.0010357,0.00129751,0.000725024,0.00140303,0.00052376,0.00061624,0.00550299,0.00713064
0.00109398,0.00119591,0.000729074,0.00138076,0.000536885,0.000645319,0.00520525,0.0065243
0.00106781,0.00138279,0.000650476,0.00129011,0.000518721,0.000666695,0.00497004,0.00625612
0.000951894,0.00135009,0.00068021,0.00126397,0.000515884,0.000625033,0.00497559,0.00575352
0.00157506,0.00151253,0.000690821,0.00115353,0.000494098,0.000590984,0.00504563,0.0053062
0.00176618,0.00150352,0.000679696,0.00118875,0.000505943,0.000618294,0.00528302,0.0045685
0.00188378,0.00152539,0.000661219,0.00117601,0.000524749,0.000614595,0.00478204,0.00439994
0.0019159,0.0014784,0.000644077,0.00123186,0.00053647,0.000591446,0.00466441,0.00463578
0.00166145,0.00144329,0.000625126,0.00138408,0.000568218,0.00062754,0.005308,0.0041887
0.00165517,0.00145729,0.00060071,0.0014687,0.000564396,0.000596354,0.00541279,0.00452092
0.0016506,0.00132146,0.000602396,0.00151657,0.000591399,0.000584725,0.00514878,0.00426687
0.00192885,0.00132882,0.000605814,0.00148085,0.000602335,0.000622159,0.00504661,0.00438927
0.00137119,0.0012503,0.000589622,0.00146985,0.000625163,0.000656181,0.00484468,0.00469606
0.00127695,0.00125088,0.000584611,0.00140316,0.000618461,0.000622898,0.00407709,0.00498279
0.00126078,0.00194635,0.000609554,0.00151221,0.000601897,0.000587817,0.00440214,0.00509685
0.00136811,0.00207066,0.00064145,0.00158533,0.000629083,0.000589955,0.00472952,0.00516402
0.0019462,0.00206349,0.000696578,0.00142718,0.000611134,0.000563093,0.0042588,0.00605156
0.00212488,0.00203846,0.00072402,0.00145877,0.000600953,0.000569522,0.00476869,0.006591
0.002178,0.00207424,0.000749025,0.00140379,0.00059071,0.000560596,0.00498323,0.00685183
0.00205391,0.0020491,0.0007106,0.001433,0.000564897,0.000537283,0.00481582,0.00668089
0.00210594,0.00206768,0.000700821,0.00143906,0.000576036,0.000520295,0.00489788,0.0064444
0.00210163,0.00199023,0.000725847,0.00139964,0.000582684,0.000541519,0.00490172,0.00635994
0.00199757,0.00135998,0.000708181,0.00121969,0.000574383,0.000540795,0.00450385,0.00682803
0.00182699,0.00126004,0.000737797,0.00124126,0.000545691,0.000552823,0.00459538,0.00675465
0.00126538,0.00134823,0.0007204,0.00130629,0.000579391,0.000598208,0.0051973,0.0059871
0.00107814,0.00193849,0.000731264,0.00119831,0.000566553,0.00058543,0.00468273,0.00586789
0.00112333,0.00192052,0.000744891,0.0013036,0.000577521,0.000571764,0.00458791,0.00690955
0.00133278,0.0019957,0.000776299,0.00129644,0.00060983,0.0005861,0.00468967,0.0072635
0.00155481,0.00192697,0.000790932,0.00131208,0.000596453,0.000563846,0.00543997,0.00728878
0.00161306,0.00200148,0.000750734,0.00143921,0.000603211,0.000545538,0.00568308,0.00685714
0.00162762,0.00201992,0.000753236,0.00155479,0.000609005,0.00055151,0.00615295,0.00613164
0.00180574,0.00199813,0.000705525,0.00143295,0.000610933,0.00060054,0.00553866,0.00583227
0.00204044,0.00183233,0.000670841,0.00129173,0.000584093,0.000551823,0.00522475,0.00585842
0.00201266,0.00128171,0.000661552,0.001533,0.000611575,0.00059723,0.0055859,0.00531621
0.0018729,0.0012234,0.000647331,0.00150996,0.000609057,0.000594396,0.00540549,0.00443493
0.00150292,0.00118513,0.000636325,0.00153014,0.000588586,0.00058208,0.00552269,0.00507433
0.00116856,0.00121944,0.000681306,0.00159794,0.000616838,0.00058275,0.0048541,0.00485954
0.00108686,0.00121416,0.000700647,0.00144146,0.000623024,0.000579294,0.00455299,0.00459037
0.0010516,0.00116964,0.000706167,0.00131424,0.000593567,0.000609383,0.00425713,0.00523918
0.000842753,0.00132956,0.000723586,0.00131401,0.000588832,0.000567983,0.00429209,0.00594432
0.000630353,0.00144789,0.000749803,0.0013298,0.000584491,0.00060399,0.00420873,0.00625603
0.000617123,0.00155291,0.000748377,0.00108599,0.000574745,0.000609746,0.00377977,0.00594355
0.000682903,0.0015607,0.000740554,0.00105619,0.000561129,0.00061824,0.00412614,0.00541841
0.00711187,0.0107304,0.000626944,0.00191794,0.000601616,0.00226931,0.00321213,0.00466746
0.00621822,0.0105015,0.000622832,0.00178747,0.000616533,0.00226189,0.00310335,0.00451659
0.00377493,0.00912017,0.000623364,0.0016707,0.000612202,0.00251063,0.00272154,0.00403667
0.00320706,0.00909982,0.000626323,0.00154685,0.000601182,0.00286137,0.00240434,0.0040894
0.00337216,0.010503,0.000647516,0.00130229,0.000611572,0.00251771,0.00238363,0.00409895
0.00341321,0.0119223,0.000637934,0.00127212,0.000606563,0.00251801,0.00236683,0.00413869
0.00351679,0.0118946,0.000623104,0.00121916,0.000604324,0.00273701,0.00278945,0.00397061
0.00382364,0.00847965,0.000597465,0.00107579,0.000588716,0.00245286,0.00310102,0.00381043
0.00353151,0.0080317,0.000620172,0.00114234,0.000578711,0.00281861,0.00342418,0.00386347
0.00211496,0.00814241,0.000655044,0.00136217,0.00054064,0.00314023,0.00388309,0.00368582
0.00229067,0.00822249,0.000654138,0.00154932,0.000533868,0.00328065,0.00418977,0.00357195
0.00229358,0.00837132,0.00066257,0.0014457,0.000511574,0.00333868,0.00407985,0.00400292
0.00209498,0.00828589,0.000642435,0.00142955,0.000506766,0.00307701,0.00400431,0.00417025
0.00202846,0.00820109,0.00064042,0.00145257,0.000486635,0.00278827,0.00401387,0.0041566
0.00211973,0.00849354,0.000624583,0.00142725,0.000484135,0.00331365,0.00397431,0.00435571
0.00263285,0.00794297,0.000613375,0.00136036,0.000500541,0.00375601,0.00368835,0.00464079
0.00295235,0.00798898,0.000632989,0.00128986,0.000537207,0.00367606,0.00292688,0.00398792
0.00278643,0.00935298,0.000618688,0.00127987,0.000539256,0.00373743,0.00235885,0.00346471
0.00234562,0.00970253,0.000586766,0.00118047,0.000574386,0.00353774,0.00193987,0.00310608
0.0021745,0.00964795,0.000590385,0.00094742,0.000588795,0.00335905,0.00108708,0.00340895
0.00197678,0.00994948,0.000594831,0.000688028,0.000615282,0.00323524,0.000937451,0.00340006
0.00217997,0.00995466,0.000567362,0.000634712,0.00060434,0.00307833,0.00101332,0.00291723
0.00276752,0.0112717,0.000615854,0.000667825,0.000619767,0.00302956,0.00120801,0.00290055
0.0029894,0.0108056,0.000663017,0.000723933,0.000623936,0.00328811,0.00138655,0.00290412
0.00290015,0.0100941,0.00065712,0.000720818,0.000617097,0.00288058,0.00145973,0.0027487
0.00249918,0.0110504,0.000681164,0.000724236,0.000610399,0.0022377,0.0014343,0.0024364
0.00316387,0.0107052,0.000662151,0.000770547,0.000605013,0.00197162,0.00137517,0.00210753
0.00367993,0.00979829,0.000666462,0.000867324,0.000620813,0.00195862,0.0013516,0.0020325
0.00434076,0.00946871,0.000713346,0.000939521,0.000606807,0.00182209,0.00138281,0.00198247
0.00719791,0.00979411,0.000764291,0.000936855,0.00059454,0.00181961,0.00133824,0.00138227
0.00822994,0.0114689,0.000754017,0.000885002,0.000595518,0.00197152,0.00123288,0.00118209
0.00805162,0.0122512,0.00078283,0.000908037,0.000605122,0.00195144,0.0011373,0.00103626
0.0075333,0.0134455,0.000735563,0.000855415,0.000582999,0.0015998,0.000917123,0.000996686
0.00734847,0.0150628,0.000720633,0.000814942,0.00058901,0.00138533,0.000695639,0.00101039
0.0071489,0.0149621,0.000704531,0.000818548,0.000558788,0.00170383,0.00061373,0.000931682
0.00694213,0.0132746,0.000670087,0.000803199,0.000563884,0.00180498,0.000614542,0.000808231
0.00596366,0.0148956,0.000654256,0.000704609,0.000546191,0.00176611,0.000611264,0.000819572
0.00552209,0.0151416,0.000644599,0.000622948,0.000514049,0.00160706,0.000610612,0.000871422
0.00556088,0.015075,0.000615829,0.000562036,0.000532347,0.00163298,0.000611854,0.000918608
0.00331049,0.0144605,0.00056551,0.000535928,0.000518936,0.00171093,0.000622528,0.00116266
0.00245856,0.0127527,0.000581768,0.000555329,0.00053664,0.0016596,0.000613034,0.00121389
0.00252259,0.0116819,0.000558003,0.00054034,0.000534528,0.00163314,0.00062942,0.00120345
0.00256379,0.010228,0.000591806,0.000548023,0.000548682,0.00166367,0.000618876,0.00109027
0.00254472,0.0104945,0.000590889,0.000544854,0.000552115,0.00160203,0.00060629,0.00103444
0.00271328,0.014249,0.000619121,0.000572688,0.000572717,0.00123711,0.000642756,0.00103989
0.00301934,0.0134445,0.000643348,0.000580136,0.00056702,0.00121208,0.000635117,0.00105596
0.00280044,0.0119391,0.000649744,0.000615313,0.000579313,0.00123666,0.00062916,0.00104772
0.00270117,0.0120722,0.000654469,0.0006067,0.000590213,0.00121505,0.000616224,0.000999154
0.00178893,0.0128623,0.0006445,0.000618442,0.000577689,0.00113586,0.000571463,0.000986809
0.0016271,0.0142984,0.000666312,0.000658539,0.00057357,0.00119525,0.000551373,0.000980256
0.00291381,0.0143304,0.00063752,0.000618676,0.000562894,0.00117589,0.000557834,0.00120785
0.00332351,0.0149173,0.000603721,0.000648337,0.000601965,0.00116364,0.000574003,0.00135676
0.0032967,0.0143701,0.000631564,0.000616084,0.000590038,0.00110759,0.000582193,0.00140772
0.00340508,0.0129838,0.000638611,0.000607895,0.000595382,0.00104557,0.000569266,0.00144851
0.00353739,0.0122738,0.000656618,0.000584172,0.000583422,0.00105078,0.000545665,0.00148617
0.0033858,0.0130166,0.000644407,0.00056755,0.000602243,0.000952734,0.000536813,0.0018279
0.00337407,0.0120587,0.000651441,0.000576499,0.000623847,0.000919244,0.000530641,0.00224725
0.00365095,0.0114327,0.000635424,0.000565517,0.000606789,0.000892052,0.000558985,0.00228357
0.00405962,0.0109427,0.000648005,0.000553504,0.000613373,0.00085708,0.000543873,0.00226306
0.00379041,0.0103919,0.00065994,0.00049366,0.000590045,0.000954533,0.000565597,0.00197779
0.00241214,0.0103964,0.000752601,0.000577232,0.000613144,0.00110147,0.000730017,0.00198852
0.00200065,0.0104724,0.000774495,0.000530922,0.000616753,0.00115425,0.000877671,0.00202759
0.00216995,0.0107873,0.000749263,0.00053784,0.000622585,0.00122569,0.0010532,0.00198803
0.00221552,0.0100028,0.000763072,0.00057462,0.00068643,0.00122006,0.00113386,0.00195912
0.0019827,0.0115319,0.000766187,0.000609176,0.000901597,0.00123386,0.00123368,0.00190984
0.00190497,0.0120155,0.000742333,0.000611308,0.000914738,0.00125413,0.00125451,0.00145133
0.00188136,0.0134866,0.000825954,0.000646619,0.000933264,0.00130399,0.0012552,0.00116648
0.00142992,0.0138335,0.000932669,0.000640939,0.00108608,0.00135379,0.00124709,0.00113129
0.00112595,0.0128354,0.000944832,0.000636757,0.00112141,0.00128926,0.00132573,0.0011791
0.00106423,0.0126566,0.000913618,0.000644522,0.00119736,0.00103288,0.00133319,0.00118169
0.00107025,0.012955,0.000835183,0.000617058,0.00115661,0.000910701,0.00113333,0.000930073
0.00165124,0.0122444,0.00083421,0.00062854,0.00114683,0.000892549,0.000986268,0.000899945
0.00159881,0.0113111,0.000867334,0.000640531,0.00116246,0.000863769,0.000856935,0.000999417
0.00139631,0.0105402,0.000894703,0.000605404,0.0011649,0.0009436,0.000816222,0.00106985
0.00132966,0.00658686,0.000939773,0.000602241,0.00109682,0.00103513,0.000774738,0.0012812
0.00133804,0.00571134,0.000966776,0.000591902,0.00107728,0.00100121,0.000788516,0.00129529
0.00132952,0.00537498,0.000953219,0.000542937,0.00109719,0.00100407,0.000795253,0.00142837
0.0013213,0.00507375,0.000938373,0.000532916,0.000997145,0.00100441,0.000776313,0.0014506
0.00129705,0.00496984,0.000945823,0.000532852,0.000987075,0.00106387,0.000711388,0.00141611
0.00132444,0.00502601,0.000980242,0.000537234,0.000951388,0.00106608,0.000701492,0.00140167
0.00133883,0.00417029,0.00100128,0.000543745,0.00102737,0.00108555,0.000693569,0.00140373
0.000660549,0.00367529,0.00101546,0.000555695,0.00105649,0.00117573,0.000696941,0.00128849
0.000530122,0.00370537,0.000973712,0.000547856,0.00102569,0.00116798,0.000668179,0.00117039
0.000516313,0.0037406,0.000937096,0.000563975,0.000891412,0.00107923,0.000692248,0.00103174
0.000523195,0.00373802,0.000868806,0.000581835,0.000805981,0.00106102,0.000709201,0.000875939
0.000536059,0.00221486,0.000879971,0.000609545,0.00084831,0.00109597,0.000694414,0.000918323
0.000553603,0.00147301,0.000745746,0.000629354,0.000782488,0.00108434,0.000717515,0.000790505
0.000566803,0.00167919,0.000748135,0.000654073,0.000841028,0.00105106,0.000708765,0.000788983
0.000566972,0.00211651,0.000752531,0.000706197,0.000851107,0.00105627,0.000679975,0.000789205
0.000583107,0.00240611,0.000733613,0.000736291,0.000830607,0.00117679,0.000676852,0.000888253
0.00058203,0.00253418,0.000695451,0.00072836,0.000780797,0.00114774,0.000700156,0.000914321
0.000567758,0.00250709,0.000652596,0.000733043,0.000784947,0.00109437,0.000689156,0.000995214
0.000565571,0.00243047,0.00064397,0.000732558,0.000825777,0.00120723,0.000700479,0.00103505
0.000566039,0.00228285,0.000675785,0.000715952,0.000867947,0.00119062,0.000651458,0.00104087
0.000558071,0.002191,0.00066253,0.000693968,0.000917226,0.00128625,0.000588387,0.00104022
0.000540167,0.00219693,0.000661016,0.000682322,0.000861601,0.00135825,0.000625838,0.00106298
0.000531105,0.00228222,0.000665845,0.000722211,0.000888287,0.00134517,0.000593212,0.00109741
0.000529676,0.00186544,0.000645649,0.000740163,0.000931602,0.00127595,0.000636646,0.00108855
0.000526133,0.00147878,0.000652214,0.000713029,0.000946711,0.00118536,0.00064438,0.00104509
0.00052304,0.0010818,0.000660564,0.000733942,0.000917437,0.00113874,0.000616847,0.000951928
0.000546886,0.00175205,0.000538123,0.000628703,0.000274554,0.00029185,0.00410419,0.00246147
0.000881763,0.00174132,0.00056444,0.000865538,0.000316232,0.00035815,0.00429496,0.00342768
0.000966486,0.00171571,0.000615381,0.00098597,0.000379362,0.000453682,0.00466261,0.00399761
0.00102061,0.00171409,0.000670496,0.00113116,0.000417814,0.000554991,0.00496049,0.00570987
0.00119285,0.00169311,0.000668284,0.00118518,0.000451511,0.000637201,0.00497144,0.00673619
0.00180644,0.00159047,0.000684301,0.00115481,0.000476001,0.000636193,0.00499599,0.00755404
0.00226458,0.00337111,0.000668627,0.00108945,0.000515986,0.000639932,0.00519915,0.00776569
0.00224453,0.0039055,0.000653856,0.00108039,0.000505218,0.000624926,0.00504451,0.00829699
0.00211084,0.00393818,0.000646684,0.00112614,0.000499738,0.000642763,0.00508394,0.00815925
0.00224112,0.00447394,0.000708811,0.00113328,0.000477969,0.000624746,0.00454457,0.00849224
0.00227393,0.00653696,0.000728909,0.00113024,0.000525807,0.00066708,0.00494476,0.00790701
0.00217401,0.00711879,0.000733384,0.00110413,0.000551548,0.000658638,0.00489999,0.00751262
0.00175433,0.00680421,0.000707545,0.00108174,0.000549505,0.000665515,0.00486607,0.00664186
0.00182193,0.00544602,0.000734647,0.00106489,0.000534035,0.000651837,0.00480837,0.00650306
0.0019758,0.00494977,0.000749844,0.000948548,0.000543346,0.000675618,0.00440012,0.00576827
0.00200781,0.00557609,0.00078043,0.000829446,0.000554838,0.000658562,0.0044471,0.00597608
0.00188144,0.0050941,0.000686678,0.000841246,0.000606273,0.000640007,0.00452705,0.00581753
0.00197658,0.00311295,0.000670433,0.000845106,0.000635802,0.000608443,0.00401773,0.00572249
0.00179712,0.00278442,0.000668439,0.000944562,0.000615594,0.000607073,0.0040613,0.00484598
0.00170336,0.00261928,0.000647271,0.00106011,0.000601966,0.000639216,0.00403757,0.00551655
0.00115824,0.0025593,0.000640759,0.00107445,0.000598418,0.000644929,0.00383947,0.00535338
0.00102166,0.0024909,0.000628913,0.00116017,0.000606668,0.000645686,0.00442135,0.00485034
0.000841661,0.00195276,0.000629176,0.00117273,0.000640923,0.000717587,0.00424216,0.00522955
0.000809496,0.0019079,0.000706357,0.00118736,0.000589114,0.000686117,0.00470253,0.00579919
0.00123214,0.00364503,0.000713019,0.00120247,0.000583162,0.000684385,0.00462496,0.00565273
0.00123801,0.00420578,0.000761748,0.001128,0.000618936,0.000655915,0.00518303,0.00586811
