"Time","2 Trdml","3 Platform","4 GM","5 Ip","6 BF","7 VL","8 St","9 TA","10 Gs","11 Gr","12 Synch","42 Ramp up","43 Ramp down","44 sw onset","45 sw offset"
0.00,0.19551,-1.48038,0.00062,0.00097,0.00094,0.00115,0.00312,0.00078,0.00766,0.00152,0,0,0,0,0
0.01,0.19496,-1.48118,0.00060,0.00117,0.00105,0.00112,0.00201,0.00080,0.00343,0.00144,0,0,0,0,0
0.02,0.19524,-1.47963,0.00056,0.00160,0.00112,0.00119,0.00133,0.00075,0.00276,0.00129,0,0,0,0,0
0.03,0.19579,-1.47965,0.00093,0.00429,0.00119,0.00114,0.00097,0.00076,0.00403,0.00134,0,0,0,0,0
0.04,0.19621,-1.48160,0.00443,0.01148,0.00097,0.00087,0.00137,0.00211,0.00329,0.00186,0,0,0,0,0
0.05,0.19580,-1.48417,0.00564,0.01793,0.00068,0.00067,0.00153,0.00345,0.00170,0.00343,0,0,0,1,0
0.06,0.19514,-1.47917,0.00468,0.01537,0.00068,0.00063,0.00141,0.00289,0.01673,0.00400,0,0,0,0,0
0.07,0.19517,-1.47844,0.00366,0.01167,0.00064,0.00058,0.00119,0.00254,0.00399,0.00353,0,0,0,0,0
0.08,0.19603,-1.47874,0.00224,0.01092,0.00063,0.00055,0.00072,0.00237,0.00287,0.00243,0,0,0,0,0
0.09,0.19655,-1.47970,0.00250,0.00953,0.00071,0.00052,0.00067,0.00173,0.00582,0.00146,0,0,0,0,0
0.10,0.19690,-1.48293,0.00229,0.01060,0.00072,0.00054,0.00057,0.00132,0.00434,0.00161,0,0,0,0,0
0.11,0.19672,-1.48038,0.00234,0.00965,0.00069,0.00056,0.00054,0.00102,0.00311,0.00130,0,0,0,0,0
0.12,0.19641,-1.47501,0.00185,0.00844,0.00070,0.00056,0.00057,0.00094,0.00369,0.00099,0,0,0,0,0
0.13,0.19609,-1.48145,0.00150,0.00793,0.00073,0.00066,0.00056,0.00083,0.00452,0.00126,0,0,0,0,0
0.14,0.19586,-1.47831,0.00137,0.00414,0.00081,0.00088,0.00057,0.00074,0.00401,0.00141,0,0,0,0,0
0.15,0.19624,-1.48187,0.00075,0.00280,0.00089,0.00094,0.00066,0.00074,0.00249,0.00106,0,0,0,0,0
0.16,0.19661,-1.47849,0.00055,0.00234,0.00079,0.00078,0.00072,0.00100,0.00401,0.00131,0,0,0,0,1
0.17,0.19711,-1.48235,0.00055,0.00084,0.00068,0.00064,0.00081,0.00099,0.00399,0.00146,0,0,0,0,0
0.18,0.19730,-1.47879,0.00056,0.00091,0.00070,0.00062,0.00128,0.00099,0.00404,0.00129,0,0,0,0,0
0.19,0.19707,-1.47917,0.00058,0.00104,0.00073,0.00064,0.00176,0.00101,0.00311,0.00157,0,0,0,0,0
0.20,0.19794,-1.47830,0.00053,0.00087,0.00072,0.00068,0.00161,0.00093,0.00233,0.00138,0,0,0,0,0
0.21,0.19847,-1.48046,0.00053,0.00079,0.00071,0.00063,0.00138,0.00089,0.00234,0.00206,0,0,0,0,0
0.22,0.19807,-1.48042,0.00057,0.00083,0.00064,0.00059,0.00146,0.00078,0.00413,0.00333,0,0,0,0,0
0.23,0.19817,-1.47936,0.00057,0.00078,0.00065,0.00058,0.00148,0.00074,0.00404,0.00391,0,0,0,0,0
0.24,0.19734,-1.48003,0.00053,0.00070,0.00071,0.00057,0.00170,0.00076,0.00506,0.00333,0,0,0,0,0
0.25,0.19647,-1.48019,0.00052,0.00101,0.00077,0.00078,0.00167,0.00073,0.00325,0.00177,0,0,0,0,0
0.26,0.19656,-1.47814,0.00053,0.00109,0.00089,0.00099,0.00113,0.00067,0.00356,0.00093,0,0,0,0,0
0.27,0.19652,-1.47922,0.00102,0.00102,0.00110,0.00123,0.00106,0.00112,0.00256,0.00105,0,0,0,0,0
0.28,0.19644,-1.47954,0.00131,0.00371,0.00109,0.00106,0.00106,0.00112,0.00254,0.00112,0,0,0,0,0
0.29,0.19604,-1.47983,0.00578,0.02080,0.00079,0.00078,0.00106,0.00161,0.00302,0.00155,0,0,0,0,0
0.30,0.19559,-1.47961,0.00665,0.02330,0.00067,0.00072,0.00150,0.00371,0.01056,0.00381,0,0,0,1,0
0.31,0.19644,-1.48008,0.00486,0.01084,0.00069,0.00065,0.00139,0.00393,-0.00038,0.00491,0,0,0,0,0
0.32,0.19705,-1.48016,0.00463,0.01009,0.00068,0.00056,0.00091,0.00199,0.00623,0.00355,0,0,0,0,0
0.33,0.19678,-1.47974,0.00305,0.01120,0.00071,0.00050,0.00070,0.00171,0.00339,0.00232,0,0,0,0,0
0.34,0.19742,-1.47696,0.00283,0.01117,0.00072,0.00055,0.00061,0.00156,0.00398,0.00156,0,0,0,0,0
0.35,0.19725,-1.47950,0.00408,0.01293,0.00072,0.00054,0.00053,0.00097,0.00305,0.00132,0,0,0,0,0
0.36,0.19714,-1.48115,0.00616,0.01388,0.00068,0.00061,0.00050,0.00099,0.00398,0.00119,0,0,0,0,0
0.37,0.19731,-1.47985,0.00650,0.01032,0.00077,0.00089,0.00050,0.00086,0.00329,0.00137,0,0,0,0,0
0.38,0.19731,-1.47961,0.00371,0.00577,0.00087,0.00103,0.00052,0.00081,0.00507,0.00126,0,0,0,0,0
0.39,0.19734,-1.48262,0.00054,0.00244,0.00083,0.00097,0.00067,0.00073,0.00359,0.00078,0,0,0,0,0
0.40,0.19730,-1.47954,0.00054,0.00283,0.00076,0.00096,0.00079,0.00093,0.00412,0.00094,0,0,0,0,1
0.41,0.19658,-1.48129,0.00054,0.00219,0.00070,0.00083,0.00094,0.00114,0.00337,0.00188,0,0,0,0,0
0.42,0.19608,-1.47021,0.00054,0.00125,0.00079,0.00095,0.00105,0.00099,0.00396,0.00185,0,0,0,0,0
0.43,0.19595,-1.48095,0.00064,0.00113,0.00088,0.00129,0.00169,0.00117,0.00401,0.00193,0,0,0,0,0
0.44,0.19605,-1.47903,0.00074,0.00117,0.00128,0.00169,0.00259,0.00120,0.00670,0.00205,0,0,0,0,0
0.45,0.19691,-1.47881,0.00067,0.00130,0.00139,0.00157,0.00203,0.00086,0.00552,0.00129,0,0,0,0,0
0.46,0.19731,-1.47856,0.00060,0.00158,0.00112,0.00114,0.00114,0.00077,0.00424,0.00144,0,0,0,0,0
0.47,0.19702,-1.48032,0.00057,0.00180,0.00193,0.00123,0.00083,0.00075,0.00324,0.00137,0,0,0,0,0
0.48,0.19687,-1.47916,0.00054,0.00192,0.00206,0.00122,0.00060,0.00068,0.00357,0.00099,0,0,0,0,0
0.49,0.19704,-1.47997,0.00067,0.00174,0.00118,0.00095,0.00062,0.00065,0.00494,0.00076,0,0,0,0,0
0.50,0.19698,-1.47915,0.00187,0.00764,0.00083,0.00074,0.00146,0.00197,0.00298,0.00123,0,0,0,0,0
0.51,0.19720,-1.48073,0.00514,0.01430,0.00071,0.00062,0.00200,0.00296,0.03978,0.00332,0,0,0,1,0
0.52,0.19637,-1.47128,0.00650,0.01146,0.00071,0.00056,0.00192,0.00277,0.00931,0.00469,0,0,0,0,0
0.53,0.19569,-1.48030,0.00618,0.01101,0.00070,0.00058,0.00177,0.00342,0.00550,0.00429,0,0,0,0,0
0.54,0.19571,-1.48087,0.00614,0.01601,0.00067,0.00058,0.00131,0.00340,0.00370,0.00296,0,0,0,0,0
0.55,0.19565,-1.47903,0.00496,0.01535,0.00068,0.00054,0.00094,0.00220,0.00237,0.00162,0,0,0,0,0
0.56,0.19604,-1.47902,0.00507,0.01134,0.00066,0.00054,0.00075,0.00194,0.00272,0.00103,0,0,0,0,0
0.57,0.19640,-1.48037,0.00461,0.01098,0.00067,0.00057,0.00075,0.00200,0.00450,0.00098,0,0,0,0,0
0.58,0.19638,-1.47974,0.00521,0.01218,0.00069,0.00056,0.00063,0.00179,0.00308,0.00128,0,0,0,0,0
0.59,0.19638,-1.48212,0.00758,0.01327,0.00067,0.00057,0.00055,0.00147,0.00487,0.00116,0,0,0,0,0
0.60,0.19602,-1.47813,0.00697,0.01274,0.00068,0.00068,0.00056,0.00090,0.00229,0.00102,0,0,0,0,0
0.61,0.19655,-1.48212,0.00346,0.00839,0.00080,0.00087,0.00056,0.00083,0.00445,0.00110,0,0,0,0,0
0.62,0.19708,-1.47800,0.00072,0.00342,0.00082,0.00087,0.00073,0.00079,0.00332,0.00095,0,0,0,0,0
0.63,0.19707,-1.47922,0.00073,0.00321,0.00088,0.00108,0.00131,0.00088,0.00410,0.00089,0,0,0,0,1
0.64,0.14742,-1.47966,0.00077,0.00313,0.00090,0.00117,0.00141,0.00092,0.01475,0.00114,0,0,0,0,0
0.65,0.18661,-1.48262,0.00066,0.00155,0.00107,0.00111,0.00145,0.00087,0.00238,0.00125,0,0,0,0,0
0.66,0.20314,-1.47896,0.00070,0.00144,0.00148,0.00116,0.00178,0.00095,0.00089,0.00118,0,0,0,0,0
0.67,0.20343,-1.48020,0.00064,0.00109,0.00120,0.00090,0.00230,0.00084,0.00685,0.00152,0,0,0,0,0
0.68,0.19870,-1.47784,0.00054,0.00105,0.00102,0.00103,0.00307,0.00075,0.01023,0.00145,0,0,0,0,0
0.69,0.19604,-1.47917,0.00056,0.00126,0.00114,0.00129,0.00299,0.00074,0.00407,0.00126,0,0,0,0,0
0.70,0.19595,-1.47812,0.00061,0.00150,0.00347,0.00132,0.00172,0.00078,0.00338,0.00136,0,0,0,0,0
0.71,0.19615,-1.47974,0.00067,0.00190,0.00509,0.00269,0.00089,0.00079,0.00218,0.00119,0,0,0,0,0
0.72,0.19586,-1.47702,0.00065,0.00209,0.00414,0.00432,0.00080,0.00076,0.00472,0.00100,0,0,0,0,0
0.73,0.19505,-1.48012,0.00147,0.00171,0.00247,0.00264,0.00063,0.00065,0.00299,0.00096,0,0,0,0,0
0.74,0.19479,-1.47945,0.00293,0.00888,0.00077,0.00065,0.00160,0.00136,0.00529,0.00187,0,0,0,1,0
0.75,0.19450,-1.48210,0.00553,0.01323,0.00071,0.00062,0.00246,0.00278,0.00295,0.00375,0,0,0,0,0
0.76,0.19420,-1.48220,0.00507,0.01099,0.00072,0.00057,0.00210,0.00348,-0.00023,0.00527,0,0,0,0,0
0.77,0.19219,-1.48030,0.00469,0.01218,0.00065,0.00054,0.00143,0.00336,0.00214,0.00429,0,0,0,0,0
0.78,0.19226,-1.47928,0.00647,0.01298,0.00063,0.00054,0.00132,0.00376,0.00433,0.00206,0,0,0,0,0
0.79,0.19337,-1.47832,0.00572,0.01251,0.00068,0.00053,0.00117,0.00287,0.00336,0.00120,0,0,0,0,0
0.80,0.19519,-1.47932,0.00395,0.00836,0.00066,0.00054,0.00084,0.00129,0.00420,0.00100,0,0,0,0,0
0.81,0.19635,-1.48203,0.00290,0.00894,0.00067,0.00055,0.00074,0.00115,0.00398,0.00122,0,0,0,0,0
0.82,0.19586,-1.47584,0.00327,0.01273,0.00070,0.00070,0.00057,0.00116,0.00476,0.00163,0,0,0,0,0
0.83,0.19591,-1.48182,0.00242,0.01030,0.00078,0.00090,0.00063,0.00099,0.00338,0.00138,0,0,0,0,0
0.84,0.19603,-1.47699,0.00101,0.00473,0.00084,0.00081,0.00074,0.00079,0.00377,0.00103,0,0,0,0,0
0.85,0.19583,-1.47945,0.00059,0.00156,0.00070,0.00068,0.00078,0.00093,0.00516,0.00091,0,0,0,0,1
0.86,0.19565,-1.48170,0.00053,0.00177,0.00071,0.00091,0.00081,0.00115,0.00333,0.00085,0,0,0,0,0
0.87,0.19540,-1.47999,0.00063,0.00175,0.00096,0.00127,0.00120,0.00117,0.00324,0.00097,0,0,0,0,0
0.88,0.19505,-1.47878,0.00065,0.00123,0.00088,0.00104,0.00175,0.00098,0.00366,0.00162,0,0,0,0,0
0.89,0.19501,-1.47784,0.00052,0.00093,0.00067,0.00062,0.00192,0.00076,0.00254,0.00199,0,0,0,0,0
0.90,0.19492,-1.48144,0.00051,0.00083,0.00078,0.00058,0.00172,0.00073,0.00262,0.00199,0,0,0,0,0
0.91,0.19485,-1.47969,0.00054,0.00092,0.00081,0.00064,0.00160,0.00071,0.00397,0.00158,0,0,0,0,0
0.92,0.19444,-1.47878,0.00052,0.00095,0.00072,0.00063,0.00166,0.00070,0.00458,0.00100,0,0,0,0,0
0.93,0.19333,-1.47988,0.00053,0.00107,0.00082,0.00092,0.00169,0.00077,0.00168,0.00121,0,0,0,0,0
0.94,0.19368,-1.47916,0.00055,0.00119,0.00091,0.00129,0.00145,0.00078,0.00496,0.00127,0,0,0,0,0
0.95,0.19423,-1.48001,0.00068,0.00136,0.00101,0.00130,0.00112,0.00081,0.00380,0.00123,0,0,0,0,0
0.96,0.19472,-1.47882,0.00079,0.00139,0.00116,0.00126,0.00116,0.00080,0.00198,0.00111,0,0,0,0,0
0.97,0.19550,-1.47936,0.00076,0.00109,0.00294,0.00095,0.00139,0.00073,0.00178,0.00104,0,0,0,0,0
0.98,0.19548,-1.47938,0.00156,0.00962,0.00284,0.00076,0.00113,0.00069,0.00300,0.00110,0,0,0,0,0
0.99,0.19582,-1.47512,0.00490,0.01411,0.00086,0.00075,0.00111,0.00094,0.00369,0.00205,0,0,0,0,0
1.00,0.19638,-1.47872,0.00441,0.01251,0.00068,0.00056,0.00118,0.00173,0.00537,0.00385,0,0,0,1,0
1.01,0.19588,-1.47957,0.00370,0.01216,0.00063,0.00054,0.00085,0.00237,0.00716,0.00349,0,0,0,0,0
1.02,0.19598,-1.47886,0.00476,0.01282,0.00068,0.00057,0.00068,0.00266,0.00245,0.00170,0,0,0,0,0
1.03,0.19638,-1.47952,0.00275,0.01255,0.00070,0.00060,0.00056,0.00201,0.00426,0.00126,0,0,0,0,0
1.04,0.19691,-1.47878,0.00303,0.01257,0.00068,0.00062,0.00058,0.00119,0.00266,0.00123,0,0,0,0,0
1.05,0.19662,-1.48515,0.00403,0.01268,0.00080,0.00081,0.00064,0.00108,0.01240,0.00175,0,0,0,0,0
1.06,0.19630,-1.47846,0.00266,0.00759,0.00083,0.00091,0.00068,0.00093,0.00500,0.00192,0,0,0,0,0
1.07,0.19557,-1.47798,0.00087,0.00368,0.00078,0.00091,0.00065,0.00091,0.00226,0.00136,0,0,0,0,0
1.08,0.19521,-1.47984,0.00051,0.00237,0.00077,0.00095,0.00077,0.00084,0.00565,0.00106,0,0,0,0,0
1.09,0.19528,-1.47838,0.00051,0.00421,0.00083,0.00095,0.00075,0.00103,0.00266,0.00128,0,0,0,0,1
1.10,0.19499,-1.47950,0.00074,0.00294,0.00096,0.00109,0.00069,0.00120,0.00370,0.00164,0,0,0,0,0
1.11,0.19507,-1.48156,0.00089,0.00100,0.00088,0.00104,0.00095,0.00090,0.00504,0.00132,0,0,0,0,0
1.12,0.19568,-1.48129,0.00068,0.00088,0.00072,0.00084,0.00130,0.00069,0.00225,0.00131,0,0,0,0,0
1.13,0.19611,-1.47996,0.00056,0.00093,0.00067,0.00077,0.00179,0.00068,0.00268,0.00169,0,0,0,0,0
1.14,0.19640,-1.48098,0.00056,0.00090,0.00065,0.00066,0.00181,0.00073,0.00284,0.00177,0,0,0,0,0
1.15,0.19678,-1.47865,0.00055,0.00073,0.00062,0.00053,0.00173,0.00068,0.00323,0.00156,0,0,0,0,0
1.16,0.19664,-1.48013,0.00053,0.00064,0.00063,0.00051,0.00147,0.00063,0.00443,0.00330,0,0,0,0,0
1.17,0.19632,-1.48022,0.00056,0.00077,0.00065,0.00056,0.00151,0.00062,0.00414,0.00372,0,0,0,0,0
1.18,0.19629,-1.47796,0.00056,0.00080,0.00072,0.00059,0.00187,0.00063,0.00380,0.00238,0,0,0,0,0
1.19,0.19644,-1.48036,0.00055,0.00062,0.00081,0.00060,0.00154,0.00067,0.00466,0.00212,0,0,0,0,0
1.20,0.19693,-1.48092,0.00053,0.00062,0.00102,0.00072,0.00142,0.00069,0.00365,0.00149,0,0,0,0,0
1.21,0.19809,-1.48053,0.00075,0.00077,0.00100,0.00082,0.00146,0.00087,0.00201,0.00129,0,0,0,0,0
1.22,0.19878,-1.48004,0.00094,0.00104,0.00082,0.00077,0.00135,0.00090,0.00536,0.00124,0,0,0,0,0
1.23,0.19861,-1.47720,0.00070,0.00090,0.00075,0.00065,0.00106,0.00071,0.00258,0.00099,0,0,0,0,0
1.24,0.19807,-1.47953,0.00073,0.00277,0.00069,0.00060,0.00082,0.00061,0.00320,0.00106,0,0,0,0,0
1.25,0.19742,-1.48856,0.00405,0.01324,0.00072,0.00067,0.00079,0.00060,0.00265,0.00181,0,0,0,0,0
1.26,0.19672,-1.47960,0.00679,0.01507,0.00071,0.00068,0.00117,0.00114,0.00154,0.00327,0,0,0,0,0
1.27,0.19698,-1.47939,0.00442,0.01232,0.00076,0.00090,0.00127,0.00212,0.00131,0.00398,0,0,0,1,0
1.28,0.19777,-1.47877,0.00501,0.01394,0.00084,0.00091,0.00091,0.00312,0.00867,0.00315,0,0,0,0,0
1.29,0.19839,-1.47966,0.00593,0.01309,0.00071,0.00062,0.00075,0.00274,0.00338,0.00196,0,0,0,0,0
1.30,0.19809,-1.47989,0.00596,0.01753,0.00067,0.00062,0.00066,0.00189,-0.00085,0.00141,0,0,0,0,0
1.31,0.19810,-1.47845,0.00940,0.01646,0.00075,0.00076,0.00059,0.00144,0.00358,0.00147,0,0,0,0,0
1.32,0.19759,-1.47845,0.00622,0.01197,0.00083,0.00082,0.00053,0.00076,0.00082,0.00150,0,0,0,0,0
1.33,0.19717,-1.48010,0.00089,0.00697,0.00084,0.00079,0.00056,0.00071,0.00336,0.00126,0,0,0,0,0
1.34,0.19682,-1.48020,0.00057,0.00250,0.00088,0.00081,0.00072,0.00094,0.00379,0.00094,0,0,0,0,1
1.35,0.19614,-1.47855,0.00054,0.00206,0.00096,0.00086,0.00116,0.00125,0.00432,0.00122,0,0,0,0,0
1.36,0.19644,-1.47814,0.00060,0.00118,0.00129,0.00135,0.00129,0.00123,0.00357,0.00131,0,0,0,0,0
1.37,0.19678,-1.47901,0.00062,0.00102,0.00139,0.00159,0.00110,0.00093,0.00298,0.00124,0,0,0,0,0
1.38,0.19691,-1.47852,0.00059,0.00108,0.00098,0.00124,0.00148,0.00079,0.00369,0.00127,0,0,0,0,0
1.39,0.19702,-1.47869,0.00058,0.00133,0.00092,0.00119,0.00230,0.00072,0.00549,0.00130,0,0,0,0,0
1.40,0.19740,-1.48058,0.00057,0.00182,0.00260,0.00137,0.00194,0.00070,0.00308,0.00140,0,0,0,0,0
1.41,0.19719,-1.48063,0.00052,0.00190,0.00342,0.00137,0.00113,0.00078,0.00370,0.00129,0,0,0,0,0
1.42,0.19716,-1.47944,0.00057,0.00163,0.00201,0.00120,0.00091,0.00072,0.00266,0.00102,0,0,0,0,0
1.43,0.19711,-1.47861,0.00066,0.00145,0.00117,0.00110,0.00064,0.00065,0.00543,0.00093,0,0,0,0,0
1.44,0.19743,-1.47961,0.00239,0.00714,0.00085,0.00088,0.00181,0.00194,0.00340,0.00245,0,0,0,1,0
1.45,0.19713,-1.47903,0.00435,0.01319,0.00068,0.00058,0.00216,0.00355,0.00351,0.00403,0,0,0,0,0
1.46,0.19603,-1.47992,0.00517,0.01428,0.00069,0.00052,0.00137,0.00370,-0.00233,0.00381,0,0,0,0,0
1.47,0.19597,-1.48287,0.00613,0.01719,0.00067,0.00058,0.00105,0.00354,0.00215,0.00326,0,0,0,0,0
1.48,0.19630,-1.47946,0.00509,0.01362,0.00069,0.00060,0.00078,0.00330,0.00341,0.00202,0,0,0,0,0
1.49,0.19646,-1.47899,0.00299,0.00824,0.00071,0.00057,0.00086,0.00232,0.00341,0.00127,0,0,0,0,0
1.50,0.19614,-1.47913,0.00240,0.01139,0.00068,0.00057,0.00075,0.00156,0.00402,0.00125,0,0,0,0,0
1.51,0.19580,-1.48134,0.00348,0.01506,0.00065,0.00056,0.00065,0.00147,0.00434,0.00086,0,0,0,0,0
1.52,0.19595,-1.47963,0.00754,0.01306,0.00065,0.00057,0.00060,0.00129,0.00469,0.00098,0,0,0,0,0
1.53,0.19536,-1.47714,0.00954,0.01263,0.00072,0.00062,0.00056,0.00106,0.00323,0.00103,0,0,0,0,0
1.54,0.19492,-1.47924,0.00525,0.01011,0.00079,0.00081,0.00060,0.00091,0.00109,0.00125,0,0,0,0,0
1.55,0.19516,-1.48003,0.00159,0.00618,0.00094,0.00118,0.00070,0.00097,0.00298,0.00140,0,0,0,0,0
1.56,0.19655,-1.48090,0.00069,0.00574,0.00093,0.00116,0.00079,0.00097,0.00388,0.00107,0,0,0,0,0
1.57,0.19691,-1.48080,0.00054,0.00310,0.00071,0.00076,0.00082,0.00090,0.00298,0.00079,0,0,0,0,1
1.58,0.19675,-1.48437,0.00057,0.00159,0.00067,0.00076,0.00100,0.00095,0.00172,0.00084,0,0,0,0,0
1.59,0.19577,-1.47952,0.00069,0.00120,0.00081,0.00103,0.00129,0.00100,0.00411,0.00102,0,0,0,0,0
1.60,0.19508,-1.47851,0.00067,0.00115,0.00294,0.00129,0.00133,0.00108,0.00338,0.00107,0,0,0,0,0
1.61,0.19585,-1.47931,0.00053,0.00099,0.00288,0.00105,0.00122,0.00097,0.00612,0.00141,0,0,0,0,0
1.62,0.19684,-1.48123,0.00054,0.00106,0.00077,0.00067,0.00150,0.00078,0.00308,0.00154,0,0,0,0,0
1.63,0.19751,-1.48005,0.00058,0.00111,0.00084,0.00098,0.00209,0.00075,0.00256,0.00173,0,0,0,0,0
1.64,0.19699,-1.47925,0.00056,0.00112,0.00104,0.00122,0.00238,0.00078,-0.00009,0.00173,0,0,0,0,0
1.65,0.19678,-1.48035,0.00052,0.00124,0.00150,0.00124,0.00218,0.00080,0.00194,0.00115,0,0,0,0,0
1.66,0.19649,-1.48101,0.00055,0.00136,0.00353,0.00154,0.00161,0.00079,0.00316,0.00105,0,0,0,0,0
1.67,0.19669,-1.47890,0.00059,0.00156,0.00448,0.00125,0.00140,0.00077,0.00465,0.00135,0,0,0,0,0
1.68,0.19719,-1.47897,0.00059,0.00197,0.00231,0.00101,0.00133,0.00074,0.00337,0.00112,0,0,0,0,0
1.69,0.19746,-1.47610,0.00394,0.00969,0.00087,0.00095,0.00129,0.00072,0.00327,0.00156,0,0,0,0,0
1.70,0.19742,-1.47900,0.00572,0.01334,0.00067,0.00061,0.00157,0.00160,-0.00163,0.00327,0,0,0,1,0
1.71,0.19682,-1.48080,0.00321,0.00909,0.00064,0.00057,0.00160,0.00284,0.00499,0.00415,0,0,0,0,0
1.72,0.19650,-1.47845,0.00223,0.00921,0.00062,0.00056,0.00102,0.00317,0.00254,0.00352,0,0,0,0,0
1.73,0.19678,-1.47952,0.00516,0.01112,0.00068,0.00060,0.00076,0.00251,0.00233,0.00197,0,0,0,0,0
1.74,0.19717,-1.47897,0.00530,0.01223,0.00067,0.00057,0.00073,0.00180,0.00265,0.00114,0,0,0,0,0
1.75,0.19646,-1.47632,0.00285,0.01341,0.00059,0.00056,0.00058,0.00142,0.00490,0.00124,0,0,0,0,0
1.76,0.19601,-1.47716,0.00270,0.01241,0.00069,0.00060,0.00060,0.00115,0.00453,0.00161,0,0,0,0,0
1.77,0.19597,-1.47681,0.00173,0.01158,0.00080,0.00089,0.00060,0.00103,0.00807,0.00149,0,0,0,0,0
1.78,0.19582,-1.47934,0.00121,0.00877,0.00092,0.00108,0.00057,0.00100,0.00312,0.00121,0,0,0,0,0
1.79,0.19682,-1.48043,0.00095,0.00364,0.00086,0.00092,0.00063,0.00111,0.00320,0.00117,0,0,0,0,0
1.80,0.19653,-1.47903,0.00056,0.00177,0.00069,0.00088,0.00074,0.00115,0.00290,0.00093,0,0,0,0,1
1.81,0.19647,-1.48002,0.00057,0.00133,0.00073,0.00109,0.00075,0.00141,0.00327,0.00107,0,0,0,0,0
1.82,0.19601,-1.47882,0.00055,0.00132,0.00075,0.00104,0.00096,0.00144,0.00354,0.00117,0,0,0,0,0
1.83,0.19539,-1.48348,0.00057,0.00107,0.00072,0.00074,0.00134,0.00100,0.00407,0.00117,0,0,0,0,0
1.84,0.19495,-1.47689,0.00056,0.00093,0.00076,0.00063,0.00143,0.00084,0.00355,0.00113,0,0,0,0,0
1.85,0.19490,-1.47891,0.00053,0.00074,0.00074,0.00059,0.00160,0.00081,0.00320,0.00144,0,0,0,0,0
1.86,0.19463,-1.47982,0.00054,0.00076,0.00069,0.00054,0.00207,0.00069,0.00798,0.00229,0,0,0,0,0
1.87,0.19498,-1.47949,0.00053,0.00086,0.00078,0.00082,0.00216,0.00070,0.00261,0.00203,0,0,0,0,0
1.88,0.19428,-1.48091,0.00062,0.00093,0.00250,0.00136,0.00295,0.00078,0.01061,0.00131,0,0,0,0,0
1.89,0.19339,-1.47882,0.00072,0.00095,0.00339,0.00139,0.00305,0.00080,0.00290,0.00155,0,0,0,0,0
1.90,0.19308,-1.47964,0.00067,0.00112,0.00192,0.00119,0.00216,0.00080,0.00244,0.00147,0,0,0,0,0
1.91,0.19278,-1.47913,0.00066,0.00120,0.00107,0.00109,0.00171,0.00079,0.00783,0.00111,0,0,0,0,0
1.92,0.19400,-1.48221,0.00065,0.00120,0.00085,0.00106,0.00107,0.00067,0.00363,0.00103,0,0,0,0,0
1.93,0.19498,-1.48162,0.00158,0.00331,0.00079,0.00086,0.00094,0.00063,0.00320,0.00107,0,0,0,0,0
1.94,0.19507,-1.47806,0.00377,0.01097,0.00075,0.00058,0.00107,0.00066,0.00291,0.00153,0,0,0,0,0
1.95,0.19501,-1.47770,0.00449,0.01198,0.00072,0.00059,0.00133,0.00152,0.00428,0.00338,0,0,0,1,0
1.96,0.19507,-1.48079,0.00397,0.00933,0.00074,0.00054,0.00120,0.00240,0.00634,0.00431,0,0,0,0,0
1.97,0.19574,-1.48024,0.00380,0.01386,0.00070,0.00056,0.00079,0.00291,0.00730,0.00231,0,0,0,0,0
1.98,0.19630,-1.47972,0.00271,0.01160,0.00063,0.00056,0.00065,0.00274,0.00571,0.00156,0,0,0,0,0
1.99,0.19678,-1.48370,0.00492,0.01080,0.00065,0.00062,0.00055,0.00179,0.00234,0.00166,0,0,0,0,0
2.00,0.19789,-1.48118,0.00736,0.01441,0.00085,0.00072,0.00058,0.00142,0.00300,0.00115,0,0,0,0,0
2.01,0.19862,-1.47948,0.00687,0.00988,0.00094,0.00081,0.00059,0.00111,0.00402,0.00116,0,0,0,0,0
2.02,0.19829,-1.48124,0.00357,0.00575,0.00083,0.00083,0.00055,0.00084,0.00430,0.00115,0,0,0,0,0
2.03,0.19730,-1.47895,0.00058,0.00358,0.00080,0.00090,0.00065,0.00079,0.00290,0.00119,0,0,0,0,0
2.04,0.19669,-1.47845,0.00065,0.00130,0.00093,0.00096,0.00077,0.00103,0.00437,0.00142,0,0,0,0,0
2.05,0.19621,-1.47878,0.00069,0.00136,0.00096,0.00091,0.00095,0.00147,0.00361,0.00211,0,0,0,0,1
2.06,0.19481,-1.48097,0.00063,0.00152,0.00088,0.00123,0.00093,0.00127,0.00419,0.00210,0,0,0,0,0
2.07,0.19450,-1.47770,0.00066,0.00164,0.00096,0.00128,0.00090,0.00088,0.00475,0.00134,0,0,0,0,0
2.08,0.19563,-1.48164,0.00068,0.00114,0.00087,0.00077,0.00162,0.00085,0.00365,0.00159,0,0,0,0,0
2.09,0.19566,-1.47855,0.00060,0.00121,0.00072,0.00065,0.00208,0.00075,0.00232,0.00301,0,0,0,0,0
2.10,0.19621,-1.47999,0.00055,0.00120,0.00070,0.00068,0.00186,0.00064,0.00359,0.00301,0,0,0,0,0
2.11,0.19681,-1.47855,0.00057,0.00068,0.00066,0.00060,0.00193,0.00071,0.00363,0.00276,0,0,0,0,0
2.12,0.19638,-1.48015,0.00058,0.00065,0.00070,0.00058,0.00189,0.00076,0.00344,0.00337,0,0,0,0,0
2.13,0.19652,-1.48046,0.00056,0.00061,0.00074,0.00060,0.00187,0.00072,0.00283,0.00477,0,0,0,0,0
2.14,0.19637,-1.47852,0.00054,0.00059,0.00073,0.00059,0.00196,0.00071,0.00648,0.00481,0,0,0,0,0
2.15,0.19685,-1.48113,0.00060,0.00069,0.00079,0.00081,0.00184,0.00093,0.00364,0.00375,0,0,0,0,0
2.16,0.19725,-1.48099,0.00075,0.00081,0.00094,0.00093,0.00182,0.00103,0.00657,0.00389,0,0,0,0,0
2.17,0.19759,-1.47999,0.00074,0.00087,0.00092,0.00074,0.00270,0.00088,0.00673,0.00276,0,0,0,0,0
2.18,0.19766,-1.47850,0.00075,0.00100,0.00232,0.00096,0.00393,0.00096,0.00543,0.00209,0,0,0,0,0
2.19,0.19737,-1.47980,0.00097,0.00132,0.00475,0.00154,0.00596,0.00126,0.00677,0.00243,0,0,0,0,0
2.20,0.19685,-1.48159,0.00092,0.00125,0.00343,0.00141,0.00517,0.00144,0.00584,0.00225,0,0,0,0,0
2.21,0.19675,-1.48249,0.00140,0.00157,0.00273,0.00114,0.00250,0.00137,0.00396,0.00168,0,0,0,0,0
2.22,0.19583,-1.48049,0.00138,0.00254,0.00253,0.00092,0.00255,0.00106,0.00145,0.00128,0,0,0,0,0
2.23,0.19597,-1.47810,0.00306,0.01355,0.00082,0.00066,0.00241,0.00110,0.00229,0.00141,0,0,0,0,0
2.24,0.19515,-1.47935,0.00337,0.01982,0.00075,0.00069,0.00149,0.00142,0.00489,0.00265,0,0,0,1,0
2.25,0.19415,-1.47913,0.00220,0.01484,0.00075,0.00064,0.00081,0.00192,0.00372,0.00310,0,0,0,0,0
2.26,0.19379,-1.47965,0.00238,0.01141,0.00068,0.00061,0.00099,0.00236,0.00348,0.00292,0,0,0,0,0
2.27,0.19431,-1.47858,0.00237,0.00925,0.00061,0.00060,0.00093,0.00239,0.00415,0.00245,0,0,0,0,0
2.28,0.19458,-1.47929,0.00300,0.01072,0.00064,0.00060,0.00061,0.00192,0.00352,0.00127,0,0,0,0,0
2.29,0.19450,-1.47787,0.00271,0.01024,0.00069,0.00059,0.00062,0.00152,0.00456,0.00107,0,0,0,0,0
2.30,0.19502,-1.47906,0.00299,0.01086,0.00079,0.00064,0.00053,0.00125,0.00356,0.00121,0,0,0,0,0
2.31,0.19504,-1.47999,0.00326,0.00854,0.00083,0.00088,0.00050,0.00087,0.00408,0.00111,0,0,0,0,0
2.32,0.19489,-1.47967,0.00178,0.00325,0.00093,0.00103,0.00064,0.00088,0.00305,0.00108,0,0,0,0,0
2.33,0.19449,-1.47941,0.00099,0.00278,0.00113,0.00125,0.00101,0.00112,0.00302,0.00124,0,0,0,0,0
2.34,0.19423,-1.48025,0.00111,0.00283,0.00109,0.00125,0.00091,0.00172,0.00899,0.00166,0,0,0,0,1
2.35,0.19324,-1.47862,0.00076,0.00202,0.00084,0.00111,0.00064,0.00180,0.00246,0.00259,0,0,0,0,0
2.36,0.19183,-1.47982,0.00077,0.00324,0.00091,0.00118,0.00087,0.00166,0.00398,0.00233,0,0,0,0,0
2.37,0.19080,-1.47963,0.00071,0.00246,0.00089,0.00086,0.00126,0.00139,0.00331,0.00129,0,0,0,0,0
2.38,0.19066,-1.48115,0.00070,0.00120,0.00088,0.00077,0.00140,0.00082,0.00332,0.00112,0,0,0,0,0
2.39,0.19159,-1.47955,0.00074,0.00130,0.00096,0.00079,0.00162,0.00073,0.00276,0.00135,0,0,0,0,0
2.40,0.19331,-1.47992,0.00059,0.00097,0.00090,0.00063,0.00157,0.00070,0.00202,0.00229,0,0,0,0,0
2.41,0.19450,-1.48021,0.00062,0.00072,0.00095,0.00070,0.00127,0.00064,0.00412,0.00258,0,0,0,0,0
2.42,0.19582,-1.47908,0.00063,0.00074,0.00092,0.00067,0.00164,0.00067,0.00405,0.00162,0,0,0,0,0
2.43,0.19707,-1.47919,0.00058,0.00078,0.00084,0.00062,0.00154,0.00069,0.00373,0.00178,0,0,0,0,0
2.44,0.19679,-1.47906,0.00060,0.00072,0.00076,0.00073,0.00120,0.00067,0.00267,0.00161,0,0,0,0,0
2.45,0.19705,-1.47894,0.00069,0.00069,0.00072,0.00074,0.00119,0.00068,0.00190,0.00070,0,0,0,0,0
2.46,0.19698,-1.47727,0.00074,0.00070,0.00067,0.00063,0.00131,0.00073,0.00450,0.00132,0,0,0,0,0
2.47,0.19681,-1.47574,0.00058,0.00068,0.00067,0.00057,0.00150,0.00072,0.00383,0.00164,0,0,0,0,0
2.48,0.19727,-1.47901,0.00072,0.00070,0.00068,0.00062,0.00146,0.00066,0.00455,0.00114,0,0,0,0,0
2.49,0.19698,-1.47878,0.00076,0.00075,0.00069,0.00063,0.00115,0.00066,0.00594,0.00111,0,0,0,0,0
2.50,0.19577,-1.47886,0.00153,0.00953,0.00071,0.00057,0.00083,0.00060,0.00394,0.00195,0,0,0,0,0
2.51,0.19498,-1.48096,0.00609,0.02070,0.00066,0.00056,0.00123,0.00163,-0.00043,0.00280,0,0,0,0,0
2.52,0.19403,-1.47984,0.00824,0.01912,0.00065,0.00057,0.00118,0.00343,0.00436,0.00435,0,0,0,1,0
2.53,0.19478,-1.47967,0.00590,0.01471,0.00073,0.00056,0.00069,0.00357,0.00272,0.00390,0,0,0,0,0
2.54,0.19473,-1.47996,0.00418,0.01553,0.00069,0.00058,0.00067,0.00229,0.00533,0.00168,0,0,0,0,0
2.55,0.19476,-1.48022,0.00466,0.01571,0.00079,0.00064,0.00058,0.00119,0.00461,0.00106,0,0,0,0,0
2.56,0.19580,-1.48100,0.00327,0.00956,0.00094,0.00074,0.00056,0.00078,0.00439,0.00136,0,0,0,0,0
2.57,0.19666,-1.48049,0.00056,0.00335,0.00078,0.00078,0.00079,0.00088,0.00237,0.00129,0,0,0,0,0
2.58,0.19656,-1.47890,0.00052,0.00323,0.00069,0.00070,0.00092,0.00115,0.00183,0.00106,0,0,0,0,1
2.59,0.19627,-1.48226,0.00061,0.00272,0.00078,0.00072,0.00105,0.00113,0.00205,0.00200,0,0,0,0,0
2.60,0.19608,-1.47970,0.00073,0.00115,0.00131,0.00120,0.00148,0.00124,0.00437,0.00197,0,0,0,0,0
2.61,0.19588,-1.47919,0.00067,0.00138,0.00321,0.00163,0.00163,0.00119,0.00498,0.00141,0,0,0,0,0
2.62,0.19577,-1.47967,0.00054,0.00149,0.00287,0.00144,0.00220,0.00082,0.00513,0.00158,0,0,0,0,0
2.63,0.19560,-1.48057,0.00077,0.00149,0.00122,0.00159,0.00203,0.00105,0.00388,0.00127,0,0,0,0,0
2.64,0.19473,-1.48157,0.00091,0.00159,0.00136,0.00160,0.00111,0.00118,0.00613,0.00105,0,0,0,0,0
2.65,0.19469,-1.47761,0.00077,0.00165,0.00319,0.00151,0.00087,0.00097,0.00444,0.00120,0,0,0,0,0
2.66,0.19438,-1.47943,0.00073,0.00171,0.00470,0.00263,0.00077,0.00076,0.00374,0.00156,0,0,0,0,0
2.67,0.19511,-1.47979,0.00123,0.00192,0.00314,0.00328,0.00074,0.00061,0.00419,0.00125,0,0,0,0,0
2.68,0.19585,-1.47849,0.00290,0.00806,0.00129,0.00185,0.00139,0.00153,0.00348,0.00122,0,0,0,1,0
2.69,0.19588,-1.47902,0.00297,0.01247,0.00068,0.00063,0.00203,0.00253,0.00383,0.00264,0,0,0,0,0
2.70,0.19513,-1.48039,0.00206,0.01238,0.00064,0.00064,0.00190,0.00330,0.00175,0.00427,0,0,0,0,0
2.71,0.19504,-1.47845,0.00246,0.01526,0.00062,0.00064,0.00188,0.00426,0.01014,0.00479,0,0,0,0,0
2.72,0.19623,-1.47820,0.00419,0.01633,0.00070,0.00062,0.00172,0.00433,0.00255,0.00406,0,0,0,0,0
2.73,0.19756,-1.47991,0.00569,0.01558,0.00069,0.00056,0.00177,0.00400,0.00381,0.00258,0,0,0,0,0
2.74,0.19797,-1.48104,0.00449,0.01582,0.00065,0.00054,0.00153,0.00344,0.00369,0.00132,0,0,0,0,0
2.75,0.19722,-1.48115,0.00510,0.01447,0.00071,0.00070,0.00095,0.00230,0.00411,0.00100,0,0,0,0,0
2.76,0.19664,-1.48082,0.00678,0.01269,0.00073,0.00073,0.00088,0.00151,0.00557,0.00120,0,0,0,0,0
2.77,0.19621,-1.47980,0.00444,0.01283,0.00073,0.00059,0.00078,0.00130,0.00532,0.00122,0,0,0,0,0
2.78,0.19563,-1.47789,0.00225,0.01319,0.00072,0.00057,0.00068,0.00100,0.00390,0.00120,0,0,0,0,0
2.79,0.19553,-1.48005,0.00421,0.01300,0.00075,0.00071,0.00060,0.00088,0.00455,0.00143,0,0,0,0,0
2.80,0.19565,-1.47973,0.00354,0.00675,0.00081,0.00078,0.00058,0.00078,0.00298,0.00127,0,0,0,0,0
2.81,0.19560,-1.48176,0.00070,0.00233,0.00084,0.00065,0.00064,0.00087,0.00333,0.00103,0,0,0,0,0
2.82,0.19513,-1.48071,0.00054,0.00245,0.00084,0.00078,0.00075,0.00108,0.00355,0.00101,0,0,0,0,1
2.83,0.19554,-1.48017,0.00060,0.00211,0.00080,0.00118,0.00113,0.00112,0.00435,0.00108,0,0,0,0,0
2.84,0.19644,-1.47917,0.00060,0.00114,0.00091,0.00113,0.00142,0.00103,0.00480,0.00106,0,0,0,0,0
2.85,0.19740,-1.47811,0.00056,0.00101,0.00104,0.00106,0.00149,0.00083,0.00380,0.00131,0,0,0,0,0
2.86,0.19792,-1.47971,0.00056,0.00112,0.00087,0.00089,0.00245,0.00078,-0.00522,0.00153,0,0,0,0,0
2.87,0.19791,-1.47932,0.00056,0.00112,0.00089,0.00106,0.00304,0.00073,0.00694,0.00132,0,0,0,0,0
2.88,0.19801,-1.47913,0.00059,0.00117,0.00249,0.00119,0.00242,0.00073,-0.00096,0.00125,0,0,0,0,0
2.89,0.19794,-1.48361,0.00064,0.00155,0.00479,0.00120,0.00156,0.00073,0.00308,0.00120,0,0,0,0,0
2.90,0.19766,-1.47872,0.00059,0.00188,0.00401,0.00124,0.00114,0.00066,0.00265,0.00133,0,0,0,0,0
2.91,0.19774,-1.47781,0.00061,0.00180,0.00217,0.00115,0.00120,0.00066,0.00246,0.00121,0,0,0,0,0
2.92,0.19737,-1.47992,0.00129,0.00234,0.00149,0.00109,0.00091,0.00068,0.00483,0.00093,0,0,0,0,0
2.93,0.19629,-1.47939,0.00235,0.00815,0.00084,0.00070,0.00155,0.00130,0.00431,0.00152,0,0,0,0,0
2.94,0.19711,-1.47869,0.00206,0.01211,0.00069,0.00058,0.00201,0.00194,0.00037,0.00438,0,0,0,1,0
2.95,0.19836,-1.48046,0.00371,0.01017,0.00066,0.00057,0.00159,0.00256,-0.00235,0.00470,0,0,0,0,0
2.96,0.19919,-1.47792,0.00360,0.00851,0.00067,0.00052,0.00152,0.00272,0.01007,0.00303,0,0,0,0,0
2.97,0.19861,-1.48123,0.00193,0.00910,0.00063,0.00056,0.00136,0.00265,0.00280,0.00270,0,0,0,0,0
2.98,0.19850,-1.47855,0.00312,0.01174,0.00061,0.00060,0.00109,0.00219,0.00358,0.00163,0,0,0,0,0
2.99,0.19804,-1.47812,0.00347,0.01431,0.00067,0.00059,0.00065,0.00125,0.00267,0.00110,0,0,0,0,0
3.00,0.19821,-1.47764,0.00351,0.01370,0.00084,0.00081,0.00053,0.00106,0.00244,0.00114,0,0,0,0,0
3.01,0.19858,-1.48165,0.00249,0.00859,0.00097,0.00093,0.00059,0.00094,0.00333,0.00110,0,0,0,0,0
3.02,0.19803,-1.47928,0.00107,0.00366,0.00084,0.00085,0.00061,0.00084,0.00301,0.00090,0,0,0,0,0
3.03,0.19833,-1.47988,0.00056,0.00105,0.00076,0.00087,0.00064,0.00097,0.00257,0.00098,0,0,0,0,1
3.04,0.19669,-1.48085,0.00056,0.00095,0.00077,0.00075,0.00071,0.00129,0.00347,0.00170,0,0,0,0,0
3.05,0.19543,-1.47746,0.00059,0.00119,0.00075,0.00073,0.00081,0.00142,0.00324,0.00170,0,0,0,0,0
3.06,0.19630,-1.47556,0.00060,0.00116,0.00077,0.00074,0.00130,0.00129,0.00401,0.00103,0,0,0,0,0
3.07,0.19742,-1.48016,0.00058,0.00082,0.00075,0.00062,0.00216,0.00094,0.00417,0.00129,0,0,0,0,0
3.08,0.19717,-1.47930,0.00055,0.00100,0.00073,0.00063,0.00240,0.00068,0.00433,0.00126,0,0,0,0,0
3.09,0.19688,-1.47834,0.00051,0.00101,0.00088,0.00096,0.00178,0.00066,0.00270,0.00140,0,0,0,0,0
3.10,0.19643,-1.48070,0.00050,0.00087,0.00088,0.00096,0.00122,0.00060,0.00298,0.00193,0,0,0,0,0
3.11,0.19551,-1.48046,0.00054,0.00090,0.00080,0.00083,0.00109,0.00063,0.00197,0.00164,0,0,0,0,0
3.12,0.19473,-1.47884,0.00062,0.00111,0.00086,0.00110,0.00097,0.00072,0.00255,0.00130,0,0,0,0,0
3.13,0.19420,-1.47872,0.00064,0.00120,0.00100,0.00143,0.00127,0.00089,0.00506,0.00135,0,0,0,0,0
3.14,0.19452,-1.47879,0.00061,0.00117,0.00099,0.00144,0.00126,0.00087,0.00429,0.00121,0,0,0,0,0
3.15,0.19537,-1.48157,0.00055,0.00140,0.00097,0.00113,0.00080,0.00069,0.00469,0.00103,0,0,0,0,0
3.16,0.19563,-1.47050,0.00054,0.00126,0.00099,0.00086,0.00067,0.00064,0.00340,0.00099,0,0,0,0,0
3.17,0.19618,-1.48140,0.00191,0.00912,0.00083,0.00063,0.00068,0.00064,0.00334,0.00094,0,0,0,0,0
3.18,0.19603,-1.47899,0.00665,0.01343,0.00082,0.00082,0.00150,0.00096,0.00144,0.00155,0,0,0,0,0
3.19,0.19282,-1.48212,0.00788,0.00932,0.00079,0.00080,0.00205,0.00129,-0.00500,0.00369,0,0,0,1,0
3.20,0.19826,-1.47568,0.00667,0.01318,0.00069,0.00067,0.00172,0.00272,0.01501,0.00482,0,0,0,0,0
3.21,0.19844,-1.48051,0.00466,0.01119,0.00069,0.00065,0.00179,0.00364,0.01163,0.00384,0,0,0,0,0
3.22,0.19658,-1.47873,0.00405,0.01359,0.00068,0.00059,0.00139,0.00285,0.00369,0.00213,0,0,0,0,0
3.23,0.19608,-1.48503,0.00665,0.01970,0.00076,0.00059,0.00071,0.00199,0.00410,0.00127,0,0,0,0,0
3.24,0.19658,-1.47645,0.00659,0.01771,0.00084,0.00066,0.00055,0.00136,0.00374,0.00154,0,0,0,0,0
3.25,0.19666,-1.47911,0.00403,0.01379,0.00094,0.00082,0.00050,0.00100,0.00537,0.00150,0,0,0,0,0
3.26,0.19633,-1.48026,0.00122,0.00563,0.00093,0.00080,0.00052,0.00077,0.00341,0.00127,0,0,0,0,0
3.27,0.19617,-1.48003,0.00051,0.00309,0.00077,0.00080,0.00064,0.00087,0.00398,0.00111,0,0,0,0,1
3.28,0.19594,-1.47900,0.00053,0.00271,0.00074,0.00085,0.00079,0.00114,0.00313,0.00185,0,0,0,0,0
3.29,0.19572,-1.47924,0.00059,0.00104,0.00076,0.00089,0.00090,0.00103,0.00396,0.00189,0,0,0,0,0
3.30,0.19519,-1.47833,0.00055,0.00109,0.00099,0.00104,0.00113,0.00087,0.00461,0.00105,0,0,0,0,0
3.31,0.19514,-1.47802,0.00064,0.00107,0.00108,0.00098,0.00160,0.00094,0.00307,0.00128,0,0,0,0,0
3.32,0.19568,-1.48004,0.00067,0.00108,0.00090,0.00078,0.00177,0.00081,0.00305,0.00147,0,0,0,0,0
3.33,0.19548,-1.47675,0.00069,0.00111,0.00086,0.00068,0.00117,0.00084,0.00176,0.00121,0,0,0,0,0
3.34,0.19530,-1.47675,0.00063,0.00114,0.00080,0.00062,0.00080,0.00081,0.00301,0.00126,0,0,0,0,0
3.35,0.19550,-1.47969,0.00057,0.00103,0.00081,0.00056,0.00087,0.00068,0.00370,0.00107,0,0,0,0,0
3.36,0.19569,-1.47780,0.00059,0.00081,0.00081,0.00058,0.00093,0.00070,0.00332,0.00126,0,0,0,0,0
3.37,0.19563,-1.47963,0.00052,0.00075,0.00080,0.00071,0.00089,0.00067,0.00362,0.00152,0,0,0,0,0
3.38,0.19629,-1.47968,0.00048,0.00074,0.00079,0.00073,0.00093,0.00067,0.00506,0.00097,0,0,0,0,0
3.39,0.19635,-1.47830,0.00052,0.00084,0.00085,0.00070,0.00092,0.00071,0.00343,0.00095,0,0,0,0,0
3.40,0.19662,-1.48000,0.00075,0.00088,0.00086,0.00072,0.00080,0.00075,0.00428,0.00104,0,0,0,0,0
3.41,0.19746,-1.47983,0.00073,0.00090,0.00082,0.00071,0.00081,0.00068,0.00378,0.00083,0,0,0,0,0
3.42,0.19756,-1.47943,0.00055,0.00082,0.00079,0.00072,0.00075,0.00058,0.00198,0.00073,0,0,0,0,0
3.43,0.19778,-1.47939,0.00060,0.00073,0.00074,0.00064,0.00072,0.00054,0.00472,0.00070,0,0,0,0,0
3.44,0.19749,-1.47937,0.00195,0.00650,0.00077,0.00059,0.00067,0.00067,-0.00092,0.00068,0,0,0,0,0
3.45,0.19704,-1.47797,0.00647,0.01277,0.00073,0.00063,0.00135,0.00100,0.00347,0.00177,0,0,0,0,0
3.46,0.19690,-1.47961,0.00755,0.01238,0.00071,0.00061,0.00154,0.00228,-0.00120,0.00396,0,0,0,1,0
3.47,0.19644,-1.47957,0.00603,0.01276,0.00069,0.00063,0.00098,0.00372,-0.00038,0.00466,0,0,0,0,0
3.48,0.19553,-1.47878,0.00531,0.01725,0.00063,0.00060,0.00079,0.00326,0.00309,0.00310,0,0,0,0,0
3.49,0.19531,-1.47899,0.00508,0.01931,0.00065,0.00054,0.00062,0.00214,0.00366,0.00143,0,0,0,0,0
3.50,0.19533,-1.47896,0.00537,0.01721,0.00073,0.00062,0.00062,0.00142,-0.01356,0.00126,0,0,0,0,0
3.51,0.19492,-1.48093,0.00265,0.01142,0.00078,0.00073,0.00062,0.00103,0.00541,0.00145,0,0,0,0,0
3.52,0.19435,-1.47980,0.00072,0.00401,0.00084,0.00076,0.00063,0.00096,0.00443,0.00136,0,0,0,0,0
3.53,0.19275,-1.48052,0.00058,0.00339,0.00074,0.00077,0.00070,0.00109,0.00450,0.00102,0,0,0,0,1
3.54,0.19209,-1.48063,0.00061,0.00321,0.00079,0.00098,0.00098,0.00120,0.00511,0.00120,0,0,0,0,0
3.55,0.19308,-1.48227,0.00065,0.00150,0.00128,0.00125,0.00141,0.00104,0.00355,0.00144,0,0,0,0,0
3.56,0.19337,-1.48199,0.00070,0.00127,0.00143,0.00124,0.00175,0.00088,0.00344,0.00119,0,0,0,0,0
3.57,0.19435,-1.47820,0.00061,0.00099,0.00116,0.00105,0.00147,0.00071,0.00350,0.00119,0,0,0,0,0
3.58,0.19566,-1.48011,0.00052,0.00119,0.00145,0.00117,0.00141,0.00074,0.00282,0.00122,0,0,0,0,0
3.59,0.19678,-1.47941,0.00051,0.00146,0.00392,0.00131,0.00142,0.00071,0.00319,0.00116,0,0,0,0,0
3.60,0.19780,-1.47978,0.00072,0.00202,0.00618,0.00260,0.00099,0.00098,0.00297,0.00119,0,0,0,0,0
3.61,0.19743,-1.48091,0.00076,0.00216,0.00554,0.00367,0.00107,0.00099,0.00298,0.00153,0,0,0,0,0
3.62,0.19734,-1.47914,0.00062,0.00156,0.00347,0.00209,0.00099,0.00059,0.00401,0.00147,0,0,0,0,0
3.63,0.19765,-1.47952,0.00128,0.00433,0.00145,0.00073,0.00118,0.00054,0.00404,0.00114,0,0,0,0,0
3.64,0.19806,-1.48016,0.00213,0.01001,0.00064,0.00062,0.00214,0.00091,0.01396,0.00266,0,0,0,1,0
3.65,0.19693,-1.48028,0.00234,0.01092,0.00063,0.00064,0.00224,0.00162,0.00816,0.00448,0,0,0,0,0
3.66,0.19655,-1.48042,0.00238,0.01059,0.00069,0.00066,0.00132,0.00195,0.00626,0.00478,0,0,0,0,0
3.67,0.19737,-1.47995,0.00261,0.00966,0.00065,0.00058,0.00112,0.00257,0.00189,0.00410,0,0,0,0,0
3.68,0.19792,-1.47928,0.00244,0.00723,0.00061,0.00054,0.00125,0.00232,0.00400,0.00245,0,0,0,0,0
3.69,0.19785,-1.48007,0.00193,0.00941,0.00065,0.00056,0.00081,0.00142,0.00330,0.00146,0,0,0,0,0
3.70,0.19817,-1.47860,0.00167,0.01094,0.00066,0.00054,0.00052,0.00125,0.00226,0.00114,0,0,0,0,0
3.71,0.19789,-1.48436,0.00239,0.00924,0.00066,0.00054,0.00053,0.00111,0.00370,0.00120,0,0,0,0,0
3.72,0.19797,-1.47811,0.00353,0.00843,0.00064,0.00055,0.00051,0.00106,0.00297,0.00138,0,0,0,0,0
3.73,0.19791,-1.48035,0.00348,0.00873,0.00073,0.00082,0.00053,0.00086,0.00337,0.00134,0,0,0,0,0
3.74,0.19731,-1.47993,0.00188,0.00607,0.00082,0.00098,0.00058,0.00091,0.00277,0.00112,0,0,0,0,0
3.75,0.19777,-1.47891,0.00064,0.00246,0.00082,0.00080,0.00060,0.00097,0.00479,0.00108,0,0,0,0,0
3.76,0.19733,-1.48188,0.00053,0.00138,0.00087,0.00090,0.00069,0.00100,0.00430,0.00097,0,0,0,0,1
3.77,0.19696,-1.48030,0.00051,0.00135,0.00085,0.00110,0.00078,0.00108,0.00216,0.00108,0,0,0,0,0
3.78,0.19594,-1.47838,0.00053,0.00104,0.00086,0.00102,0.00071,0.00101,0.00223,0.00134,0,0,0,0,0
3.79,0.19452,-1.48168,0.00056,0.00098,0.00088,0.00086,0.00099,0.00110,0.00404,0.00110,0,0,0,0,0
3.80,0.19531,-1.47972,0.00059,0.00099,0.00104,0.00101,0.00127,0.00109,0.00290,0.00130,0,0,0,0,0
3.81,0.19614,-1.47812,0.00062,0.00097,0.00106,0.00119,0.00212,0.00082,0.00168,0.00140,0,0,0,0,0
3.82,0.19643,-1.48141,0.00060,0.00099,0.00088,0.00103,0.00239,0.00072,0.00275,0.00126,0,0,0,0,0
3.83,0.19731,-1.47907,0.00055,0.00091,0.00083,0.00103,0.00144,0.00074,0.00497,0.00116,0,0,0,0,0
3.84,0.19673,-1.48044,0.00056,0.00101,0.00092,0.00111,0.00160,0.00077,0.00398,0.00108,0,0,0,0,0
3.85,0.19662,-1.47836,0.00058,0.00119,0.00101,0.00116,0.00159,0.00076,0.00093,0.00135,0,0,0,0,0
3.86,0.19624,-1.47989,0.00059,0.00137,0.00187,0.00125,0.00130,0.00072,0.00809,0.00137,0,0,0,0,0
3.87,0.19582,-1.47932,0.00060,0.00138,0.00248,0.00134,0.00113,0.00065,0.00493,0.00112,0,0,0,0,0
3.88,0.19518,-1.48200,0.00054,0.00117,0.00171,0.00110,0.00079,0.00060,0.00329,0.00118,0,0,0,0,0
3.89,0.19505,-1.47938,0.00067,0.00209,0.00084,0.00095,0.00065,0.00064,0.00432,0.00116,0,0,0,0,0
3.90,0.19482,-1.47888,0.00361,0.00990,0.00077,0.00086,0.00111,0.00067,0.00362,0.00131,0,0,0,0,0
3.91,0.19447,-1.47103,0.00556,0.01065,0.00072,0.00059,0.00197,0.00093,0.00497,0.00340,0,0,0,1,0
3.92,0.19373,-1.47949,0.00371,0.00985,0.00078,0.00060,0.00165,0.00116,-0.01371,0.00474,0,0,0,0,0
3.93,0.19363,-1.47961,0.00203,0.01163,0.00069,0.00064,0.00096,0.00147,0.00237,0.00516,0,0,0,0,0
3.94,0.19391,-1.48015,0.00156,0.01017,0.00068,0.00057,0.00078,0.00260,0.00273,0.00471,0,0,0,0,0
3.95,0.19488,-1.48440,0.00202,0.01179,0.00069,0.00058,0.00070,0.00242,0.00318,0.00210,0,0,0,0,0
3.96,0.19560,-1.48105,0.00345,0.01358,0.00064,0.00061,0.00072,0.00137,0.00590,0.00081,0,0,0,0,0
3.97,0.19540,-1.47800,0.00741,0.01543,0.00071,0.00056,0.00061,0.00128,0.00161,0.00098,0,0,0,0,0
3.98,0.19496,-1.48069,0.00692,0.01125,0.00081,0.00060,0.00052,0.00106,0.00336,0.00179,0,0,0,0,0
3.99,0.19478,-1.47915,0.00234,0.00557,0.00086,0.00078,0.00055,0.00090,0.00390,0.00164,0,0,0,0,0
4.00,0.19453,-1.48320,0.00081,0.00353,0.00082,0.00087,0.00059,0.00084,0.00363,0.00112,0,0,0,0,0
4.01,0.19328,-1.47751,0.00061,0.00309,0.00077,0.00081,0.00069,0.00092,0.00405,0.00111,0,0,0,0,1
4.02,0.19341,-1.47940,0.00051,0.00196,0.00078,0.00091,0.00073,0.00103,0.00034,0.00112,0,0,0,0,0
4.03,0.19438,-1.47857,0.00053,0.00118,0.00082,0.00101,0.00105,0.00085,0.00374,0.00117,0,0,0,0,0
4.04,0.19606,-1.48930,0.00054,0.00101,0.00098,0.00110,0.00154,0.00069,0.00279,0.00099,0,0,0,0,0
4.05,0.19632,-1.47886,0.00055,0.00096,0.00104,0.00118,0.00221,0.00066,0.00297,0.00117,0,0,0,0,0
4.06,0.19588,-1.47936,0.00053,0.00101,0.00093,0.00103,0.00317,0.00071,-0.00023,0.00123,0,0,0,0,0
4.07,0.19637,-1.47915,0.00058,0.00124,0.00256,0.00133,0.00278,0.00066,0.00214,0.00121,0,0,0,0,0
4.08,0.19652,-1.47846,0.00076,0.00153,0.00511,0.00161,0.00139,0.00060,0.00405,0.00148,0,0,0,0,0
4.09,0.19647,-1.47999,0.00069,0.00175,0.00379,0.00122,0.00115,0.00071,0.00304,0.00135,0,0,0,0,0
4.10,0.19601,-1.47885,0.00054,0.00173,0.00132,0.00111,0.00106,0.00082,0.00311,0.00116,0,0,0,0,0
4.11,0.19530,-1.47942,0.00059,0.00171,0.00120,0.00132,0.00062,0.00076,0.00355,0.00118,0,0,0,0,0
4.12,0.19499,-1.47888,0.00070,0.00144,0.00203,0.00128,0.00059,0.00066,0.00302,0.00103,0,0,0,0,0
4.13,0.19495,-1.47973,0.00229,0.00706,0.00173,0.00086,0.00139,0.00089,0.00415,0.00164,0,0,0,0,0
4.14,0.19453,-1.48044,0.00667,0.01136,0.00070,0.00053,0.00196,0.00129,-0.00389,0.00485,0,0,0,1,0
4.15,0.19476,-1.47969,0.00581,0.01079,0.00070,0.00054,0.00178,0.00241,0.00816,0.00699,0,0,0,0,0
4.16,0.19493,-1.47999,0.00168,0.00892,0.00066,0.00060,0.00141,0.00321,-0.00320,0.00511,0,0,0,0,0
4.17,0.19441,-1.48030,0.00243,0.00862,0.00063,0.00058,0.00100,0.00336,0.00337,0.00306,0,0,0,0,0
4.18,0.19461,-1.48272,0.00313,0.00986,0.00068,0.00057,0.00091,0.00316,0.00309,0.00186,0,0,0,0,0
4.19,0.19441,-1.48156,0.00253,0.00992,0.00071,0.00057,0.00067,0.00184,0.00375,0.00124,0,0,0,0,0
4.20,0.19530,-1.47928,0.00250,0.01168,0.00073,0.00060,0.00053,0.00108,0.00373,0.00099,0,0,0,0,0
4.21,0.19591,-1.47656,0.00335,0.01282,0.00071,0.00062,0.00056,0.00121,0.00430,0.00126,0,0,0,0,0
4.22,0.19586,-1.47914,0.00273,0.01172,0.00069,0.00058,0.00053,0.00105,0.00358,0.00123,0,0,0,0,0
4.23,0.19653,-1.48081,0.00143,0.00738,0.00083,0.00078,0.00053,0.00072,0.00435,0.00107,0,0,0,0,0
4.24,0.19673,-1.47923,0.00106,0.00343,0.00083,0.00091,0.00059,0.00077,0.00336,0.00103,0,0,0,0,0
4.25,0.19608,-1.47828,0.00055,0.00168,0.00069,0.00076,0.00075,0.00101,0.00422,0.00083,0,0,0,0,1
4.26,0.19536,-1.48067,0.00056,0.00124,0.00070,0.00079,0.00098,0.00125,0.00433,0.00101,0,0,0,0,0
4.27,0.19519,-1.47865,0.00054,0.00113,0.00078,0.00099,0.00126,0.00104,0.00361,0.00104,0,0,0,0,0
4.28,0.19522,-1.47832,0.00053,0.00099,0.00090,0.00121,0.00155,0.00070,0.00406,0.00102,0,0,0,0,0
4.29,0.19487,-1.47827,0.00053,0.00097,0.00089,0.00102,0.00169,0.00066,0.00330,0.00115,0,0,0,0,0
4.30,0.19486,-1.48000,0.00052,0.00100,0.00084,0.00097,0.00192,0.00069,0.00211,0.00102,0,0,0,0,0
4.31,0.19489,-1.47834,0.00052,0.00104,0.00094,0.00113,0.00246,0.00073,0.00304,0.00110,0,0,0,0,0
4.32,0.19539,-1.47900,0.00055,0.00110,0.00091,0.00096,0.00220,0.00078,0.00221,0.00126,0,0,0,0,0
4.33,0.19556,-1.47921,0.00059,0.00126,0.00099,0.00097,0.00121,0.00076,0.00311,0.00119,0,0,0,0,0
4.34,0.19496,-1.47999,0.00057,0.00144,0.00105,0.00107,0.00111,0.00078,0.00187,0.00101,0,0,0,0,0
4.35,0.19507,-1.48007,0.00053,0.00163,0.00096,0.00095,0.00102,0.00073,0.00318,0.00097,0,0,0,0,0
4.36,0.19627,-1.48046,0.00322,0.00968,0.00084,0.00071,0.00104,0.00072,0.00316,0.00099,0,0,0,0,0
4.37,0.19710,-1.47867,0.00562,0.01362,0.00072,0.00060,0.00171,0.00106,0.00809,0.00253,0,0,0,1,0
4.38,0.19695,-1.47871,0.00353,0.00932,0.00070,0.00053,0.00167,0.00230,0.00363,0.00453,0,0,0,0,0
4.39,0.19775,-1.48082,0.00210,0.00976,0.00066,0.00056,0.00129,0.00224,0.00308,0.00420,0,0,0,0,0
4.40,0.19788,-1.47970,0.00235,0.01212,0.00069,0.00056,0.00096,0.00117,0.00333,0.00257,0,0,0,0,0
4.41,0.19681,-1.48025,0.00198,0.01229,0.00074,0.00052,0.00066,0.00152,0.00361,0.00200,0,0,0,0,0
4.42,0.19714,-1.47827,0.00238,0.00936,0.00070,0.00052,0.00063,0.00161,0.00279,0.00168,0,0,0,0,0
4.43,0.19774,-1.48010,0.00288,0.00851,0.00085,0.00059,0.00059,0.00128,0.00326,0.00133,0,0,0,0,0
4.44,0.19804,-1.47890,0.00316,0.01079,0.00089,0.00068,0.00064,0.00111,0.00285,0.00141,0,0,0,0,0
4.45,0.19772,-1.48134,0.00253,0.01163,0.00084,0.00070,0.00059,0.00102,0.00226,0.00138,0,0,0,0,0
4.46,0.19725,-1.48074,0.00150,0.00615,0.00089,0.00080,0.00051,0.00088,0.00377,0.00114,0,0,0,0,0
4.47,0.19739,-1.48333,0.00096,0.00180,0.00079,0.00086,0.00063,0.00093,0.00311,0.00076,0,0,0,0,1
4.48,0.19743,-1.47659,0.00054,0.00242,0.00081,0.00093,0.00073,0.00127,0.00384,0.00082,0,0,0,0,0
4.49,0.19684,-1.48023,0.00065,0.00227,0.00103,0.00131,0.00100,0.00112,0.00067,0.00096,0,0,0,0,0
4.50,0.19666,-1.47893,0.00063,0.00119,0.00094,0.00120,0.00154,0.00082,0.00357,0.00117,0,0,0,0,0
4.51,0.19769,-1.47938,0.00056,0.00096,0.00233,0.00080,0.00229,0.00078,0.00396,0.00131,0,0,0,0,0
4.52,0.19856,-1.47992,0.00062,0.00096,0.00268,0.00107,0.00303,0.00075,0.00379,0.00106,0,0,0,0,0
4.53,0.19905,-1.47924,0.00059,0.00111,0.00267,0.00129,0.00208,0.00067,0.00452,0.00104,0,0,0,0,0
4.54,0.19794,-1.47889,0.00050,0.00133,0.00254,0.00127,0.00091,0.00061,0.00557,0.00122,0,0,0,0,0
4.55,0.19719,-1.47831,0.00052,0.00139,0.00259,0.00139,0.00091,0.00067,0.00457,0.00120,0,0,0,0,0
4.56,0.19630,-1.48123,0.00055,0.00149,0.00347,0.00121,0.00092,0.00076,0.00394,0.00122,0,0,0,0,0
4.57,0.19618,-1.47802,0.00059,0.00139,0.00191,0.00072,0.00083,0.00072,0.00348,0.00114,0,0,0,0,0
4.58,0.19632,-1.48265,0.00207,0.00760,0.00082,0.00063,0.00083,0.00061,0.00320,0.00098,0,0,0,0,0
4.59,0.19635,-1.47882,0.00672,0.01352,0.00070,0.00069,0.00212,0.00124,-0.00753,0.00255,0,0,0,0,0
4.60,0.19614,-1.47953,0.00602,0.01422,0.00069,0.00067,0.00259,0.00153,0.00471,0.00447,0,0,0,1,0
4.61,0.19601,-1.48383,0.00255,0.01362,0.00069,0.00058,0.00151,0.00224,0.00349,0.00520,0,0,0,0,0
4.62,0.19637,-1.48057,0.00241,0.01409,0.00066,0.00057,0.00097,0.00293,0.00459,0.00327,0,0,0,0,0
4.63,0.19620,-1.47942,0.00305,0.01484,0.00066,0.00056,0.00083,0.00233,0.00269,0.00113,0,0,0,0,0
4.64,0.19629,-1.48048,0.00471,0.01398,0.00062,0.00056,0.00104,0.00193,0.00479,0.00121,0,0,0,0,0
4.65,0.19662,-1.48015,0.00382,0.01256,0.00060,0.00062,0.00095,0.00202,0.00316,0.00102,0,0,0,0,0
4.66,0.19629,-1.47958,0.00218,0.01296,0.00071,0.00057,0.00065,0.00178,0.00349,0.00102,0,0,0,0,0
4.67,0.19621,-1.48072,0.00274,0.01204,0.00078,0.00079,0.00066,0.00127,0.00362,0.00117,0,0,0,0,0
4.68,0.19637,-1.47836,0.00469,0.01135,0.00077,0.00087,0.00064,0.00113,0.00258,0.00105,0,0,0,0,0
4.69,0.19608,-1.48218,0.00407,0.01265,0.00081,0.00078,0.00055,0.00096,0.00435,0.00114,0,0,0,0,0
4.70,0.19554,-1.48008,0.00199,0.00740,0.00086,0.00095,0.00051,0.00078,0.00248,0.00122,0,0,0,0,0
4.71,0.19530,-1.47860,0.00124,0.00293,0.00082,0.00091,0.00059,0.00073,0.00381,0.00097,0,0,0,0,0
4.72,0.19499,-1.47876,0.00056,0.00305,0.00076,0.00076,0.00072,0.00091,0.00428,0.00076,0,0,0,0,1
4.73,0.19469,-1.47972,0.00055,0.00296,0.00077,0.00081,0.00084,0.00098,0.00343,0.00219,0,0,0,0,0
4.74,0.19426,-1.48002,0.00058,0.00141,0.00079,0.00097,0.00105,0.00109,0.00475,0.00252,0,0,0,0,0
4.75,0.19412,-1.48229,0.00064,0.00134,0.00108,0.00103,0.00103,0.00129,0.00232,0.00110,0,0,0,0,0
4.76,0.19543,-1.48557,0.00065,0.00098,0.00114,0.00120,0.00095,0.00110,0.00287,0.00087,0,0,0,0,0
4.77,0.19568,-1.47799,0.00055,0.00094,0.00088,0.00104,0.00124,0.00081,0.00329,0.00106,0,0,0,0,0
4.78,0.19508,-1.47934,0.00051,0.00095,0.00096,0.00091,0.00183,0.00070,0.00250,0.00127,0,0,0,0,0
4.79,0.19537,-1.47851,0.00047,0.00103,0.00106,0.00114,0.00234,0.00075,0.00285,0.00126,0,0,0,0,0
4.80,0.19542,-1.47921,0.00051,0.00130,0.00117,0.00108,0.00171,0.00091,0.00336,0.00112,0,0,0,0,0
4.81,0.19617,-1.48045,0.00066,0.00148,0.00333,0.00108,0.00095,0.00091,0.00613,0.00102,0,0,0,0,0
4.82,0.19611,-1.48112,0.00068,0.00141,0.00444,0.00114,0.00104,0.00075,0.00287,0.00104,0,0,0,0,0
4.83,0.19592,-1.47957,0.00066,0.00154,0.00307,0.00124,0.00109,0.00070,0.00338,0.00128,0,0,0,0,0
4.84,0.19614,-1.48007,0.00120,0.00404,0.00165,0.00101,0.00114,0.00067,0.00391,0.00122,0,0,0,0,0
4.85,0.19666,-1.47904,0.00415,0.01256,0.00073,0.00067,0.00177,0.00101,0.00254,0.00126,0,0,0,0,0
4.86,0.19673,-1.48022,0.00404,0.01180,0.00070,0.00056,0.00183,0.00115,0.00616,0.00277,0,0,0,1,0
4.87,0.19666,-1.48003,0.00176,0.00789,0.00066,0.00050,0.00145,0.00169,0.00376,0.00387,0,0,0,0,0
4.88,0.19667,-1.47872,0.00264,0.01139,0.00065,0.00054,0.00121,0.00264,0.00720,0.00339,0,0,0,0,0
4.89,0.19734,-1.47895,0.00211,0.00872,0.00068,0.00055,0.00109,0.00221,0.00361,0.00320,0,0,0,0,0
4.90,0.19725,-1.47941,0.00168,0.00677,0.00067,0.00054,0.00099,0.00156,0.00333,0.00227,0,0,0,0,0
4.91,0.19652,-1.48070,0.00262,0.00906,0.00066,0.00058,0.00058,0.00119,0.00359,0.00142,0,0,0,0,0
4.92,0.19620,-1.47471,0.00241,0.00870,0.00080,0.00060,0.00056,0.00110,0.00137,0.00132,0,0,0,0,0
4.93,0.19518,-1.47924,0.00203,0.00830,0.00082,0.00061,0.00060,0.00103,0.00144,0.00107,0,0,0,0,0
4.94,0.19524,-1.47856,0.00217,0.00581,0.00074,0.00059,0.00060,0.00088,0.00408,0.00128,0,0,0,0,0
4.95,0.19591,-1.47993,0.00135,0.00345,0.00071,0.00066,0.00060,0.00089,0.00315,0.00128,0,0,0,0,0
4.96,0.19597,-1.47924,0.00057,0.00309,0.00081,0.00101,0.00067,0.00087,0.00362,0.00112,0,0,0,0,1
4.97,0.19669,-1.48139,0.00056,0.00140,0.00085,0.00104,0.00080,0.00107,0.00393,0.00107,0,0,0,0,0
4.98,0.19684,-1.47891,0.00076,0.00132,0.00085,0.00103,0.00086,0.00103,0.00390,0.00102,0,0,0,0,0
4.99,0.19658,-1.47913,0.00076,0.00181,0.00097,0.00122,0.00109,0.00093,0.00201,0.00105,0,0,0,0,0
5.00,0.19588,-1.47908,0.00056,0.00172,0.00093,0.00097,0.00137,0.00094,0.00351,0.00113,0,0,0,0,0
5.01,0.19452,-1.47891,0.00054,0.00083,0.00080,0.00071,0.00149,0.00084,0.00377,0.00102,0,0,0,0,0
5.02,0.19481,-1.47871,0.00053,0.00086,0.00074,0.00064,0.00158,0.00073,0.00362,0.00149,0,0,0,0,0
5.03,0.19530,-1.48022,0.00058,0.00083,0.00071,0.00062,0.00183,0.00066,0.00347,0.00182,0,0,0,0,0
5.04,0.19574,-1.47831,0.00058,0.00079,0.00066,0.00064,0.00181,0.00065,0.00090,0.00229,0,0,0,0,0
5.05,0.19643,-1.48135,0.00056,0.00074,0.00061,0.00057,0.00161,0.00062,0.00386,0.00374,0,0,0,0,0
5.06,0.19640,-1.47944,0.00056,0.00073,0.00062,0.00053,0.00156,0.00060,0.00258,0.00358,0,0,0,0,0
5.07,0.19597,-1.47988,0.00056,0.00068,0.00064,0.00054,0.00187,0.00067,0.00321,0.00212,0,0,0,0,0
5.08,0.19571,-1.47925,0.00052,0.00058,0.00066,0.00054,0.00220,0.00078,0.00516,0.00195,0,0,0,0,0
5.09,0.19507,-1.47889,0.00057,0.00063,0.00069,0.00056,0.00262,0.00075,0.00486,0.00265,0,0,0,0,0
5.10,0.19492,-1.47862,0.00059,0.00071,0.00077,0.00058,0.00307,0.00076,-0.00106,0.00245,0,0,0,0,0
5.11,0.19469,-1.47678,0.00061,0.00081,0.00082,0.00057,0.00411,0.00092,0.00633,0.00162,0,0,0,0,0
5.12,0.19392,-1.47980,0.00079,0.00082,0.00078,0.00056,0.00507,0.00092,0.00428,0.00132,0,0,0,0,0
5.13,0.19348,-1.47854,0.00113,0.00104,0.00085,0.00101,0.00326,0.00098,0.00573,0.00131,0,0,0,0,0
5.14,0.19380,-1.47905,0.00099,0.00171,0.00104,0.00112,0.00246,0.00101,0.00222,0.00144,0,0,0,0,0
5.15,0.19309,-1.48094,0.00142,0.00637,0.00093,0.00070,0.00200,0.00085,0.00441,0.00116,0,0,0,0,0
5.16,0.19406,-1.47930,0.00432,0.01260,0.00069,0.00061,0.00121,0.00073,0.00612,0.00104,0,0,0,0,0
5.17,0.19508,-1.47941,0.00633,0.01464,0.00067,0.00058,0.00144,0.00081,-0.00161,0.00169,0,0,0,1,0
5.18,0.19603,-1.48126,0.00415,0.01024,0.00065,0.00055,0.00130,0.00134,0.00209,0.00237,0,0,0,0,0
5.19,0.19621,-1.48164,0.00203,0.00751,0.00063,0.00052,0.00125,0.00160,0.00092,0.00226,0,0,0,0,0
5.20,0.19662,-1.47796,0.00255,0.01174,0.00064,0.00050,0.00103,0.00145,0.00227,0.00169,0,0,0,0,0
5.21,0.19699,-1.47867,0.00351,0.01287,0.00068,0.00056,0.00086,0.00161,0.00466,0.00129,0,0,0,0,0
5.22,0.19720,-1.47867,0.00345,0.01449,0.00067,0.00061,0.00063,0.00171,0.00376,0.00121,0,0,0,0,0
5.23,0.19713,-1.48032,0.00260,0.01189,0.00070,0.00057,0.00056,0.00132,0.00379,0.00141,0,0,0,0,0
5.24,0.19673,-1.48204,0.00135,0.00555,0.00076,0.00063,0.00058,0.00086,0.00386,0.00121,0,0,0,0,0
5.25,0.19690,-1.47897,0.00054,0.00291,0.00087,0.00086,0.00065,0.00080,0.00262,0.00091,0,0,0,0,0
5.26,0.19670,-1.47784,0.00051,0.00196,0.00089,0.00085,0.00071,0.00104,0.00205,0.00075,0,0,0,0,1
5.27,0.19656,-1.47821,0.00068,0.00175,0.00085,0.00092,0.00091,0.00114,0.00198,0.00194,0,0,0,0,0
5.28,0.19600,-1.47912,0.00067,0.00113,0.00106,0.00121,0.00134,0.00114,0.00581,0.00203,0,0,0,0,0
5.29,0.19603,-1.47862,0.00061,0.00104,0.00129,0.00126,0.00158,0.00121,0.00275,0.00097,0,0,0,0,0
5.30,0.19650,-1.47989,0.00072,0.00107,0.00123,0.00129,0.00260,0.00105,0.00358,0.00118,0,0,0,0,0
5.31,0.19702,-1.47928,0.00069,0.00137,0.00321,0.00139,0.00312,0.00080,0.00674,0.00141,0,0,0,0,0
5.32,0.19774,-1.48024,0.00063,0.00176,0.00358,0.00140,0.00190,0.00075,0.00475,0.00150,0,0,0,0,0
5.33,0.19769,-1.47964,0.00056,0.00179,0.00281,0.00225,0.00089,0.00075,0.00381,0.00143,0,0,0,0,0
5.34,0.19724,-1.48102,0.00060,0.00160,0.00430,0.00251,0.00077,0.00077,0.00420,0.00125,0,0,0,0,0
5.35,0.19667,-1.47590,0.00115,0.00395,0.00288,0.00129,0.00069,0.00070,0.00320,0.00095,0,0,0,0,0
5.36,0.19681,-1.48060,0.00174,0.00895,0.00075,0.00063,0.00160,0.00161,0.00244,0.00257,0,0,0,0,0
5.37,0.19748,-1.47876,0.00238,0.01054,0.00067,0.00057,0.00245,0.00286,0.00582,0.00472,0,0,0,1,0
5.38,0.19655,-1.47982,0.00212,0.01043,0.00067,0.00059,0.00192,0.00258,-0.00270,0.00502,0,0,0,0,0
5.39,0.19669,-1.48025,0.00223,0.01010,0.00064,0.00058,0.00142,0.00260,0.00459,0.00460,0,0,0,0,0
5.40,0.19603,-1.47985,0.00265,0.01158,0.00064,0.00054,0.00153,0.00246,0.01017,0.00377,0,0,0,0,0
5.41,0.19583,-1.48055,0.00227,0.01107,0.00064,0.00052,0.00127,0.00211,0.00460,0.00281,0,0,0,0,0
5.42,0.19661,-1.47929,0.00213,0.01013,0.00063,0.00055,0.00112,0.00223,0.00487,0.00149,0,0,0,0,0
5.43,0.19664,-1.47858,0.00186,0.01167,0.00063,0.00055,0.00104,0.00182,0.00414,0.00078,0,0,0,0,0
5.44,0.19666,-1.48190,0.00245,0.00944,0.00062,0.00054,0.00058,0.00121,0.00473,0.00109,0,0,0,0,0
5.45,0.19672,-1.47914,0.00278,0.01120,0.00065,0.00052,0.00057,0.00085,0.00257,0.00113,0,0,0,0,0
5.46,0.19617,-1.48060,0.00201,0.01129,0.00073,0.00056,0.00059,0.00082,0.00511,0.00099,0,0,0,0,0
5.47,0.19586,-1.47819,0.00123,0.00550,0.00082,0.00075,0.00063,0.00074,0.00348,0.00096,0,0,0,0,0
5.48,0.19611,-1.48901,0.00071,0.00179,0.00076,0.00072,0.00089,0.00101,0.00216,0.00090,0,0,0,0,1
5.49,0.19551,-1.47476,0.00051,0.00169,0.00078,0.00074,0.00099,0.00121,0.00347,0.00117,0,0,0,0,0
5.50,0.19530,-1.47458,0.00057,0.00151,0.00090,0.00103,0.00099,0.00105,0.00322,0.00126,0,0,0,0,0
5.51,0.19452,-1.47868,0.00060,0.00117,0.00093,0.00102,0.00121,0.00094,0.00327,0.00111,0,0,0,0,0
5.52,0.19446,-1.47783,0.00058,0.00080,0.00109,0.00102,0.00175,0.00090,0.00347,0.00092,0,0,0,0,0
5.53,0.19453,-1.48112,0.00055,0.00078,0.00096,0.00086,0.00213,0.00086,0.00056,0.00104,0,0,0,0,0
5.54,0.19490,-1.47775,0.00051,0.00100,0.00081,0.00084,0.00207,0.00073,0.00653,0.00135,0,0,0,0,0
5.55,0.19490,-1.47986,0.00053,0.00102,0.00082,0.00092,0.00223,0.00072,0.00455,0.00108,0,0,0,0,0
5.56,0.19460,-1.48107,0.00054,0.00103,0.00073,0.00101,0.00180,0.00073,0.00584,0.00083,0,0,0,0,0
5.57,0.19440,-1.47955,0.00062,0.00148,0.00178,0.00128,0.00149,0.00072,0.00379,0.00101,0,0,0,0,0
5.58,0.19476,-1.47830,0.00061,0.00157,0.00220,0.00117,0.00173,0.00074,0.00244,0.00109,0,0,0,0,0
5.59,0.19534,-1.47986,0.00055,0.00168,0.00162,0.00112,0.00134,0.00076,0.00317,0.00119,0,0,0,0,0
5.60,0.19464,-1.47973,0.00062,0.00182,0.00156,0.00112,0.00126,0.00078,0.00323,0.00123,0,0,0,0,0
5.61,0.19510,-1.47762,0.00161,0.00806,0.00148,0.00110,0.00118,0.00092,-0.00063,0.00120,0,0,0,0,0
5.62,0.19522,-1.47847,0.00417,0.01260,0.00119,0.00087,0.00191,0.00155,0.00370,0.00136,0,0,0,0,0
5.63,0.19591,-1.47962,0.00436,0.01102,0.00070,0.00054,0.00202,0.00204,0.00271,0.00208,0,0,0,1,0
5.64,0.19534,-1.48016,0.00200,0.01179,0.00071,0.00056,0.00119,0.00232,0.00262,0.00277,0,0,0,0,0
5.65,0.19527,-1.47748,0.00153,0.01032,0.00067,0.00057,0.00106,0.00205,0.00126,0.00256,0,0,0,0,0
5.66,0.19632,-1.47784,0.00179,0.01026,0.00068,0.00068,0.00100,0.00156,0.00327,0.00205,0,0,0,0,0
5.67,0.19685,-1.48216,0.00208,0.01105,0.00068,0.00064,0.00091,0.00165,0.00448,0.00126,0,0,0,0,0
5.68,0.19669,-1.47960,0.00312,0.01091,0.00071,0.00053,0.00062,0.00135,0.00373,0.00096,0,0,0,0,0
5.69,0.19693,-1.47968,0.00368,0.01024,0.00073,0.00059,0.00062,0.00089,0.00291,0.00121,0,0,0,0,0
5.70,0.19705,-1.47847,0.00311,0.00836,0.00067,0.00056,0.00059,0.00078,0.00339,0.00117,0,0,0,0,0
5.71,0.19678,-1.48138,0.00151,0.00545,0.00065,0.00063,0.00059,0.00080,0.00289,0.00119,0,0,0,0,0
5.72,0.19653,-1.48043,0.00056,0.00233,0.00069,0.00071,0.00064,0.00084,0.00294,0.00099,0,0,0,0,0
5.73,0.19539,-1.48231,0.00052,0.00280,0.00082,0.00084,0.00072,0.00089,0.00439,0.00088,0,0,0,0,1
5.74,0.19417,-1.47902,0.00054,0.00248,0.00087,0.00092,0.00091,0.00093,0.00133,0.00100,0,0,0,0,0
5.75,0.19359,-1.48019,0.00061,0.00095,0.00082,0.00084,0.00103,0.00102,0.00417,0.00096,0,0,0,0,0
5.76,0.19333,-1.48049,0.00067,0.00090,0.00078,0.00071,0.00147,0.00100,0.00372,0.00117,0,0,0,0,0
5.77,0.19427,-1.47930,0.00068,0.00084,0.00074,0.00059,0.00220,0.00093,0.00304,0.00140,0,0,0,0,0
5.78,0.19423,-1.47792,0.00058,0.00089,0.00073,0.00061,0.00250,0.00085,0.00133,0.00135,0,0,0,0,0
5.79,0.19485,-1.47783,0.00064,0.00102,0.00081,0.00069,0.00268,0.00083,0.00751,0.00117,0,0,0,0,0
5.80,0.19525,-1.47876,0.00078,0.00098,0.00221,0.00069,0.00248,0.00087,0.00268,0.00110,0,0,0,0,0
5.81,0.19583,-1.47974,0.00115,0.00121,0.00253,0.00095,0.00265,0.00083,0.00314,0.00125,0,0,0,0,0
5.82,0.19627,-1.48522,0.00124,0.00138,0.00134,0.00147,0.00268,0.00085,0.00412,0.00121,0,0,0,0,0
5.83,0.18382,-1.48054,0.00114,0.00336,0.00097,0.00120,0.00141,0.00080,0.00486,0.00107,0,0,0,0,0
5.84,0.19757,-1.47748,0.00224,0.01170,0.00086,0.00067,0.00066,0.00074,0.00365,0.00173,0,0,0,0,0
5.85,0.20016,-1.47864,0.00466,0.01810,0.00078,0.00061,0.00124,0.00162,-0.00298,0.00517,0,0,0,1,0
5.86,0.19692,-1.48488,0.00596,0.01389,0.00063,0.00058,0.00148,0.00275,-0.00134,0.00602,0,0,0,0,0
5.87,0.19287,-1.47801,0.00388,0.01034,0.00063,0.00056,0.00089,0.00264,0.00303,0.00320,0,0,0,0,0
5.88,0.19290,-1.48040,0.00170,0.01192,0.00068,0.00060,0.00056,0.00173,0.00354,0.00194,0,0,0,0,0
5.89,0.19426,-1.48019,0.00130,0.01180,0.00073,0.00056,0.00053,0.00114,0.00270,0.00137,0,0,0,0,0
5.90,0.19540,-1.48062,0.00112,0.00866,0.00077,0.00054,0.00051,0.00111,0.00231,0.00100,0,0,0,0,0
5.91,0.19569,-1.47982,0.00154,0.00775,0.00073,0.00061,0.00051,0.00104,0.00424,0.00109,0,0,0,0,0
5.92,0.19542,-1.47953,0.00115,0.00897,0.00068,0.00059,0.00057,0.00093,0.00392,0.00113,0,0,0,0,1
5.93,0.19550,-1.48660,0.00062,0.00516,0.00062,0.00054,0.00100,0.00094,0.00488,0.00136,0,0,0,0,0
5.94,0.19591,-1.48206,0.00069,0.00141,0.00062,0.00057,0.00138,0.00084,0.00379,0.00195,0,0,0,0,0
5.95,0.19650,-1.47925,0.00066,0.00087,0.00070,0.00058,0.00144,0.00079,0.00338,0.00396,0,0,0,0,0
5.96,0.19722,-1.47810,0.00092,0.00077,0.00069,0.00062,0.00184,0.00089,0.00333,0.00392,0,0,0,0,0
5.97,0.19795,-1.47870,0.00145,0.00098,0.00080,0.00066,0.00231,0.00108,0.00239,0.00227,0,0,0,0,0
5.98,0.19754,-1.47866,0.00167,0.00107,0.00280,0.00110,0.00228,0.00109,0.00334,0.00178,0,0,0,0,0
5.99,0.19684,-1.48007,0.00134,0.00116,0.00591,0.00173,0.00214,0.00099,0.00165,0.00144,0,0,0,0,0
6.00,0.19598,-1.48049,0.00102,0.00191,0.00438,0.00301,0.00293,0.00105,0.00892,0.00183,0,0,0,0,0
6.01,0.19525,-1.48086,0.00070,0.00233,0.00175,0.00421,0.00338,0.00102,0.00305,0.00196,0,0,0,0,0
6.02,0.19455,-1.47954,0.00059,0.00211,0.00185,0.00454,0.00345,0.00098,0.00301,0.00206,0,0,0,0,0
6.03,0.19405,-1.48039,0.00068,0.00176,0.00203,0.00402,0.00383,0.00110,0.00317,0.00207,0,0,0,0,0
6.04,0.19354,-1.47825,0.00063,0.00117,0.00158,0.00205,0.00406,0.00110,0.00063,0.00165,0,0,0,0,0
6.05,0.19350,-1.48071,0.00132,0.00744,0.00081,0.00072,0.00308,0.00163,0.00400,0.00122,0,0,0,0,0
6.06,0.19452,-1.47903,0.00385,0.01752,0.00076,0.00062,0.00190,0.00476,0.01229,0.00292,0,0,0,1,0
6.07,0.19547,-1.47911,0.00453,0.01548,0.00068,0.00063,0.00161,0.00591,0.00277,0.00407,0,0,0,0,0
6.08,0.19641,-1.48030,0.00483,0.01548,0.00065,0.00058,0.00098,0.00393,0.00316,0.00299,0,0,0,0,0
6.09,0.19765,-1.47841,0.00600,0.02044,0.00071,0.00062,0.00064,0.00271,0.00269,0.00208,0,0,0,0,0
6.10,0.19830,-1.47960,0.00399,0.01461,0.00074,0.00063,0.00063,0.00156,0.00348,0.00140,0,0,0,0,0
6.11,0.19864,-1.48011,0.00144,0.00838,0.00075,0.00059,0.00096,0.00102,0.00423,0.00170,0,0,0,0,1
6.12,0.19881,-1.47902,0.00093,0.00404,0.00064,0.00055,0.00122,0.00092,0.00613,0.00294,0,0,0,0,0
6.13,0.19861,-1.47936,0.00077,0.00094,0.00063,0.00052,0.00137,0.00070,0.00177,0.00352,0,0,0,0,0
6.14,0.19788,-1.47980,0.00051,0.00095,0.00071,0.00055,0.00126,0.00064,0.00545,0.00344,0,0,0,0,0
6.15,0.19688,-1.47960,0.00053,0.00064,0.00072,0.00062,0.00165,0.00061,0.00283,0.00249,0,0,0,0,0
6.16,0.19630,-1.47962,0.00056,0.00073,0.00071,0.00062,0.00164,0.00068,0.00462,0.00126,0,0,0,0,0
6.17,0.19547,-1.48037,0.00069,0.00234,0.00071,0.00056,0.00111,0.00070,0.00392,0.00117,0,0,0,0,0
6.18,0.19519,-1.47963,0.00508,0.01200,0.00069,0.00056,0.00109,0.00086,0.00763,0.00165,0,0,0,0,0
6.19,0.19600,-1.47951,0.00550,0.01792,0.00069,0.00054,0.00096,0.00260,-0.00151,0.00227,0,0,0,1,0
6.20,0.19618,-1.47985,0.00201,0.01528,0.00070,0.00054,0.00081,0.00329,0.00313,0.00178,0,0,0,0,0
6.21,0.19614,-1.48054,0.00149,0.00905,0.00069,0.00057,0.00066,0.00164,0.00139,0.00087,0,0,0,0,0
6.22,0.19624,-1.47806,0.00055,0.00258,0.00071,0.00059,0.00075,0.00070,0.00248,0.00089,0,0,0,0,0
6.23,0.19612,-1.47905,0.00051,0.00151,0.00077,0.00060,0.00080,0.00084,0.00345,0.00142,0,0,0,0,1
6.24,0.19588,-1.48108,0.00057,0.00159,0.00090,0.00071,0.00109,0.00123,0.00446,0.00190,0,0,0,0,0
6.25,0.19691,-1.47956,0.00057,0.00110,0.00089,0.00073,0.00161,0.00106,0.00412,0.00145,0,0,0,0,0
6.26,0.19685,-1.48428,0.00055,0.00106,0.00084,0.00093,0.00231,0.00076,0.00358,0.00126,0,0,0,0,0
6.27,0.19756,-1.48194,0.00055,0.00108,0.00084,0.00098,0.00320,0.00077,0.00281,0.00155,0,0,0,0,0
6.28,0.19678,-1.47878,0.00056,0.00090,0.00076,0.00096,0.00273,0.00073,0.00063,0.00146,0,0,0,0,0
6.29,0.19533,-1.47922,0.00052,0.00095,0.00077,0.00115,0.00173,0.00074,0.00175,0.00142,0,0,0,0,0
6.30,0.19513,-1.47946,0.00047,0.00111,0.00101,0.00110,0.00181,0.00075,0.00333,0.00161,0,0,0,0,0
6.31,0.19525,-1.47952,0.00054,0.00150,0.00118,0.00101,0.00168,0.00073,0.00410,0.00169,0,0,0,0,0
6.32,0.19534,-1.47899,0.00060,0.00154,0.00104,0.00108,0.00123,0.00070,0.00633,0.00128,0,0,0,0,0
6.33,0.19606,-1.47843,0.00142,0.00925,0.00085,0.00097,0.00093,0.00069,0.00358,0.00140,0,0,0,0,0
6.34,0.19705,-1.47931,0.00299,0.01474,0.00077,0.00071,0.00191,0.00108,0.00532,0.00224,0,0,0,0,0
6.35,0.19730,-1.47891,0.00438,0.01267,0.00085,0.00075,0.00239,0.00303,0.00665,0.00489,0,0,0,1,0
6.36,0.19736,-1.47968,0.00362,0.01210,0.00084,0.00073,0.00188,0.00307,0.00171,0.00619,0,0,0,0,0
6.37,0.19815,-1.48326,0.00161,0.01101,0.00073,0.00059,0.00152,0.00201,0.00520,0.00463,0,0,0,0,0
6.38,0.19888,-1.47835,0.00177,0.00938,0.00069,0.00056,0.00123,0.00249,0.00606,0.00424,0,0,0,0,0
6.39,0.19728,-1.47978,0.00218,0.00933,0.00068,0.00056,0.00133,0.00187,0.00719,0.00341,0,0,0,0,0
6.40,0.19664,-1.48109,0.00180,0.01111,0.00069,0.00055,0.00093,0.00109,0.00328,0.00188,0,0,0,0,0
6.41,0.19672,-1.47988,0.00197,0.00969,0.00064,0.00054,0.00062,0.00088,-0.00078,0.00109,0,0,0,0,0
6.42,0.19652,-1.47869,0.00241,0.00850,0.00070,0.00056,0.00055,0.00086,0.00415,0.00108,0,0,0,0,0
6.43,0.19673,-1.48339,0.00216,0.00704,0.00077,0.00057,0.00050,0.00083,0.00378,0.00165,0,0,0,0,0
6.44,0.19693,-1.48083,0.00134,0.00532,0.00082,0.00063,0.00055,0.00081,0.00230,0.00145,0,0,0,0,0
6.45,0.19760,-1.47935,0.00061,0.00292,0.00085,0.00079,0.00065,0.00096,0.00347,0.00080,0,0,0,0,0
6.46,0.19751,-1.48102,0.00053,0.00218,0.00081,0.00081,0.00084,0.00095,0.00468,0.00089,0,0,0,0,1
6.47,0.19661,-1.48023,0.00059,0.00221,0.00083,0.00070,0.00115,0.00093,0.00285,0.00136,0,0,0,0,0
6.48,0.19571,-1.48045,0.00061,0.00093,0.00082,0.00072,0.00135,0.00110,0.00256,0.00130,0,0,0,0,0
6.49,0.19568,-1.47946,0.00057,0.00098,0.00073,0.00076,0.00141,0.00105,0.00240,0.00105,0,0,0,0,0
6.50,0.19643,-1.48099,0.00056,0.00094,0.00076,0.00067,0.00158,0.00102,0.00368,0.00124,0,0,0,0,0
6.51,0.19698,-1.47827,0.00055,0.00089,0.00086,0.00063,0.00190,0.00095,0.00261,0.00138,0,0,0,0,0
6.52,0.19589,-1.48196,0.00055,0.00107,0.00088,0.00108,0.00178,0.00076,0.00057,0.00151,0,0,0,0,0
6.53,0.19481,-1.47921,0.00056,0.00106,0.00074,0.00105,0.00147,0.00072,0.00351,0.00143,0,0,0,0,0
6.54,0.19450,-1.47955,0.00054,0.00103,0.00073,0.00096,0.00137,0.00065,0.00698,0.00132,0,0,0,0,0
6.55,0.19458,-1.47905,0.00054,0.00122,0.00082,0.00120,0.00135,0.00062,0.00372,0.00147,0,0,0,0,0
6.56,0.19598,-1.48870,0.00057,0.00108,0.00079,0.00101,0.00141,0.00077,0.00340,0.00144,0,0,0,0,0
6.57,0.19676,-1.47744,0.00057,0.00099,0.00086,0.00099,0.00166,0.00079,0.01106,0.00137,0,0,0,0,0
6.58,0.19685,-1.47908,0.00066,0.00182,0.00096,0.00099,0.00162,0.00074,0.00358,0.00125,0,0,0,0,0
6.59,0.19739,-1.47904,0.00171,0.00893,0.00079,0.00079,0.00101,0.00075,0.00490,0.00109,0,0,0,0,0
6.60,0.19704,-1.47723,0.00734,0.01748,0.00065,0.00071,0.00124,0.00306,0.00209,0.00274,0,0,0,0,0
6.61,0.19638,-1.47986,0.00669,0.01521,0.00075,0.00063,0.00153,0.00330,0.00640,0.00412,0,0,0,1,0
6.62,0.19635,-1.48040,0.00171,0.01371,0.00074,0.00058,0.00120,0.00238,0.00390,0.00415,0,0,0,0,0
6.63,0.19678,-1.47953,0.00212,0.01512,0.00064,0.00061,0.00095,0.00287,0.00164,0.00351,0,0,0,0,0
6.64,0.19731,-1.47725,0.00231,0.01078,0.00064,0.00056,0.00067,0.00181,0.00392,0.00147,0,0,0,0,0
6.65,0.19730,-1.47762,0.00259,0.01027,0.00072,0.00062,0.00058,0.00130,0.00504,0.00081,0,0,0,0,0
6.66,0.19672,-1.48220,0.00291,0.01188,0.00072,0.00070,0.00057,0.00104,0.00396,0.00081,0,0,0,0,0
6.67,0.19685,-1.47579,0.00320,0.00917,0.00066,0.00062,0.00057,0.00087,0.00402,0.00083,0,0,0,0,0
6.68,0.19644,-1.47863,0.00279,0.00637,0.00063,0.00060,0.00053,0.00073,-0.00046,0.00093,0,0,0,0,0
6.69,0.19615,-1.47918,0.00159,0.00440,0.00071,0.00059,0.00051,0.00063,0.00498,0.00107,0,0,0,0,0
6.70,0.19615,-1.47861,0.00069,0.00362,0.00076,0.00065,0.00054,0.00065,0.00505,0.00107,0,0,0,0,1
6.71,0.19537,-1.47973,0.00055,0.00281,0.00069,0.00068,0.00059,0.00075,0.00477,0.00090,0,0,0,0,0
6.72,0.19492,-1.48063,0.00056,0.00102,0.00063,0.00062,0.00087,0.00089,0.00410,0.00126,0,0,0,0,0
6.73,0.19467,-1.47991,0.00059,0.00091,0.00060,0.00064,0.00131,0.00086,0.00219,0.00170,0,0,0,0,0
6.74,0.19431,-1.47733,0.00058,0.00092,0.00070,0.00064,0.00162,0.00117,0.00132,0.00157,0,0,0,0,0
6.75,0.19449,-1.48112,0.00051,0.00080,0.00078,0.00067,0.00185,0.00128,0.00352,0.00102,0,0,0,0,0
6.76,0.19492,-1.47482,0.00050,0.00086,0.00073,0.00071,0.00203,0.00097,0.00153,0.00089,0,0,0,0,0
6.77,0.19489,-1.48002,0.00052,0.00105,0.00080,0.00108,0.00197,0.00087,0.00990,0.00103,0,0,0,0,0
6.78,0.19542,-1.47916,0.00053,0.00093,0.00079,0.00105,0.00229,0.00090,0.00300,0.00119,0,0,0,0,0
6.79,0.19620,-1.47957,0.00057,0.00085,0.00079,0.00088,0.00230,0.00097,0.00953,0.00123,0,0,0,0,0
6.80,0.19673,-1.48022,0.00057,0.00102,0.00241,0.00122,0.00200,0.00091,0.00453,0.00106,0,0,0,0,0
6.81,0.19640,-1.47887,0.00061,0.00114,0.00249,0.00127,0.00226,0.00090,0.00444,0.00114,0,0,0,0,0
6.82,0.19676,-1.48020,0.00064,0.00108,0.00101,0.00098,0.00357,0.00111,0.00730,0.00144,0,0,0,0,0
6.83,0.19716,-1.47988,0.00076,0.00293,0.00085,0.00065,0.00314,0.00103,0.00161,0.00135,0,0,0,0,0
6.84,0.19705,-1.48484,0.00365,0.01280,0.00077,0.00067,0.00122,0.00074,0.00422,0.00105,0,0,0,0,0
6.85,0.19763,-1.47896,0.00485,0.01960,0.00072,0.00071,0.00128,0.00137,0.00007,0.00229,0,0,0,1,0
6.86,0.19858,-1.47787,0.00423,0.01416,0.00068,0.00068,0.00141,0.00211,0.00201,0.00379,0,0,0,0,0
6.87,0.19922,-1.47883,0.00637,0.01200,0.00069,0.00067,0.00106,0.00227,0.00814,0.00354,0,0,0,0,0
6.88,0.19991,-1.47983,0.00432,0.01274,0.00066,0.00066,0.00090,0.00184,0.00287,0.00250,0,0,0,0,0
6.89,0.19966,-1.47975,0.00172,0.00881,0.00064,0.00063,0.00066,0.00146,0.00367,0.00173,0,0,0,0,0
6.90,0.19884,-1.47737,0.00157,0.00946,0.00064,0.00062,0.00064,0.00152,0.00314,0.00124,0,0,0,0,0
6.91,0.19856,-1.47983,0.00169,0.00901,0.00069,0.00057,0.00059,0.00122,0.00376,0.00094,0,0,0,0,0
6.92,0.19824,-1.48085,0.00279,0.00772,0.00072,0.00058,0.00058,0.00095,0.00517,0.00092,0,0,0,0,0
6.93,0.19823,-1.48052,0.00260,0.00608,0.00076,0.00061,0.00056,0.00076,0.00397,0.00073,0,0,0,0,0
6.94,0.19850,-1.47984,0.00125,0.00273,0.00085,0.00078,0.00055,0.00067,0.00345,0.00081,0,0,0,0,1
6.95,0.19791,-1.48012,0.00073,0.00217,0.00079,0.00087,0.00076,0.00085,0.00372,0.00100,0,0,0,0,0
6.96,0.19751,-1.47789,0.00055,0.00107,0.00078,0.00082,0.00093,0.00104,0.00262,0.00148,0,0,0,0,0
6.97,0.19661,-1.47750,0.00051,0.00107,0.00087,0.00098,0.00086,0.00160,0.00354,0.00279,0,0,0,0,0
6.98,0.19572,-1.47775,0.00057,0.00099,0.00099,0.00114,0.00118,0.00183,0.00333,0.00247,0,0,0,0,0
6.99,0.19641,-1.47997,0.00063,0.00093,0.00112,0.00101,0.00175,0.00160,0.00291,0.00120,0,0,0,0,0
7.00,0.19588,-1.47912,0.00058,0.00094,0.00096,0.00077,0.00149,0.00137,0.00443,0.00182,0,0,0,0,0
7.01,0.19553,-1.47860,0.00052,0.00081,0.00073,0.00069,0.00146,0.00105,0.00342,0.00243,0,0,0,0,0
7.02,0.19495,-1.48079,0.00055,0.00078,0.00067,0.00066,0.00374,0.00102,-0.00017,0.00253,0,0,0,0,0
7.03,0.19405,-1.48126,0.00053,0.00075,0.00072,0.00061,0.00378,0.00087,0.00081,0.00354,0,0,0,0,0
7.04,0.19371,-1.47974,0.00069,0.00062,0.00076,0.00060,0.00285,0.00075,0.00259,0.00330,0,0,0,0,0
7.05,0.19423,-1.48225,0.00078,0.00065,0.00072,0.00061,0.00301,0.00071,-0.00248,0.00164,0,0,0,0,0
7.06,0.19450,-1.47983,0.00088,0.00180,0.00072,0.00062,0.00198,0.00069,0.00494,0.00102,0,0,0,0,0
7.07,0.19551,-1.48144,0.00542,0.01087,0.00073,0.00060,0.00147,0.00069,0.00772,0.00098,0,0,0,0,0
7.08,0.19508,-1.48078,0.00920,0.01801,0.00066,0.00066,0.00182,0.00118,0.00656,0.00215,0,0,0,0,0
7.09,0.19591,-1.47849,0.00482,0.01466,0.00063,0.00067,0.00184,0.00131,-0.00103,0.00339,0,0,0,1,0
7.10,0.19687,-1.47886,0.00221,0.01427,0.00070,0.00060,0.00144,0.00208,0.00645,0.00355,0,0,0,0,0
7.11,0.19736,-1.47771,0.00270,0.01416,0.00068,0.00058,0.00112,0.00246,0.00450,0.00264,0,0,0,0,0
7.12,0.19670,-1.48065,0.00250,0.01009,0.00063,0.00058,0.00075,0.00168,0.00312,0.00149,0,0,0,0,0
7.13,0.19679,-1.47882,0.00250,0.00878,0.00064,0.00060,0.00051,0.00157,0.00302,0.00115,0,0,0,0,0
7.14,0.19635,-1.48064,0.00150,0.00734,0.00064,0.00056,0.00057,0.00138,0.00375,0.00099,0,0,0,0,0
7.15,0.19540,-1.48048,0.00112,0.00720,0.00064,0.00053,0.00058,0.00117,0.00380,0.00120,0,0,0,0,0
7.16,0.19498,-1.47804,0.00167,0.00711,0.00065,0.00055,0.00052,0.00094,0.00391,0.00095,0,0,0,0,0
7.17,0.19482,-1.47911,0.00213,0.00609,0.00064,0.00056,0.00051,0.00091,0.00298,0.00081,0,0,0,0,0
7.18,0.19536,-1.48036,0.00171,0.00507,0.00066,0.00060,0.00051,0.00091,0.00458,0.00092,0,0,0,0,0
7.19,0.19577,-1.47734,0.00184,0.00531,0.00072,0.00068,0.00052,0.00085,0.00373,0.00090,0,0,0,0,0
7.20,0.19626,-1.47761,0.00174,0.00446,0.00075,0.00075,0.00055,0.00075,0.00317,0.00105,0,0,0,0,0
7.21,0.19585,-1.47675,0.00079,0.00149,0.00077,0.00086,0.00068,0.00070,0.00373,0.00093,0,0,0,0,0
7.22,0.19540,-1.47946,0.00052,0.00099,0.00073,0.00093,0.00080,0.00090,0.00311,0.00091,0,0,0,0,1
7.23,0.19484,-1.47861,0.00056,0.00096,0.00071,0.00086,0.00077,0.00103,0.00374,0.00160,0,0,0,0,0
7.24,0.19423,-1.47917,0.00056,0.00115,0.00084,0.00089,0.00077,0.00106,0.00319,0.00158,0,0,0,0,0
7.25,0.19261,-1.47903,0.00056,0.00100,0.00083,0.00085,0.00114,0.00117,0.00471,0.00107,0,0,0,0,0
7.26,0.19212,-1.47806,0.00058,0.00084,0.00072,0.00070,0.00137,0.00114,0.00515,0.00111,0,0,0,0,0
7.27,0.19319,-1.47444,0.00076,0.00079,0.00074,0.00064,0.00142,0.00100,0.00406,0.00105,0,0,0,0,0
7.28,0.19517,-1.48124,0.00077,0.00083,0.00075,0.00062,0.00192,0.00075,0.00137,0.00171,0,0,0,0,0
7.29,0.19554,-1.48069,0.00055,0.00081,0.00069,0.00056,0.00194,0.00064,0.00274,0.00247,0,0,0,0,0
7.30,0.19507,-1.47875,0.00057,0.00065,0.00068,0.00054,0.00131,0.00063,0.00375,0.00198,0,0,0,0,0
7.31,0.19505,-1.47800,0.00065,0.00065,0.00075,0.00057,0.00133,0.00066,0.00531,0.00143,0,0,0,0,0
7.32,0.19472,-1.47846,0.00063,0.00074,0.00074,0.00058,0.00131,0.00073,0.00290,0.00109,0,0,0,0,0
7.33,0.19519,-1.48036,0.00057,0.00076,0.00074,0.00059,0.00100,0.00073,0.00348,0.00091,0,0,0,0,0
7.34,0.19586,-1.48221,0.00049,0.00079,0.00080,0.00065,0.00102,0.00075,0.00338,0.00106,0,0,0,0,0
7.35,0.19554,-1.47957,0.00064,0.00098,0.00087,0.00082,0.00107,0.00080,0.00391,0.00107,0,0,0,0,0
7.36,0.19595,-1.48074,0.00080,0.00128,0.00085,0.00077,0.00094,0.00072,0.00494,0.00121,0,0,0,0,0
7.37,0.19530,-1.48061,0.00066,0.00127,0.00073,0.00063,0.00074,0.00067,0.00140,0.00135,0,0,0,0,0
7.38,0.19464,-1.47986,0.00124,0.00742,0.00068,0.00056,0.00067,0.00060,0.00302,0.00111,0,0,0,0,0
7.39,0.19450,-1.48127,0.00362,0.01610,0.00067,0.00055,0.00120,0.00074,0.00532,0.00230,0,0,0,0,0
7.40,0.19421,-1.48070,0.00593,0.01593,0.00072,0.00060,0.00175,0.00181,-0.00248,0.00500,0,0,0,1,0
7.41,0.19341,-1.47805,0.00433,0.01184,0.00073,0.00059,0.00160,0.00286,0.01008,0.00596,0,0,0,0,0
7.42,0.19327,-1.47964,0.00240,0.00910,0.00068,0.00056,0.00116,0.00274,0.00634,0.00348,0,0,0,0,0
7.43,0.19272,-1.48007,0.00415,0.01023,0.00065,0.00055,0.00070,0.00220,0.00343,0.00155,0,0,0,0,0
7.44,0.19336,-1.47956,0.00465,0.01453,0.00069,0.00057,0.00054,0.00141,0.00200,0.00146,0,0,0,0,0
7.45,0.19397,-1.47993,0.00268,0.01151,0.00075,0.00058,0.00051,0.00088,0.00243,0.00130,0,0,0,0,0
7.46,0.19403,-1.47819,0.00144,0.00518,0.00085,0.00070,0.00054,0.00080,0.00370,0.00103,0,0,0,0,0
7.47,0.19478,-1.48175,0.00091,0.00418,0.00083,0.00083,0.00060,0.00085,0.00284,0.00097,0,0,0,0,0
7.48,0.19583,-1.47846,0.00053,0.00303,0.00077,0.00075,0.00065,0.00096,0.00277,0.00111,0,0,0,0,0
7.49,0.19624,-1.48004,0.00054,0.00145,0.00075,0.00066,0.00102,0.00098,0.00345,0.00120,0,0,0,0,1
7.50,0.19626,-1.47943,0.00062,0.00095,0.00074,0.00068,0.00114,0.00108,0.00301,0.00117,0,0,0,0,0
7.51,0.19591,-1.47831,0.00079,0.00097,0.00078,0.00071,0.00099,0.00139,0.00529,0.00128,0,0,0,0,0
7.52,0.19551,-1.47870,0.00071,0.00092,0.00080,0.00068,0.00144,0.00140,0.00133,0.00144,0,0,0,0,0
7.53,0.19478,-1.48033,0.00059,0.00089,0.00085,0.00098,0.00262,0.00103,0.00399,0.00144,0,0,0,0,0
7.54,0.19470,-1.47849,0.00063,0.00103,0.00091,0.00111,0.00303,0.00083,0.00288,0.00117,0,0,0,0,0
7.55,0.19562,-1.47936,0.00059,0.00120,0.00086,0.00120,0.00299,0.00089,0.00523,0.00119,0,0,0,0,0
7.56,0.19623,-1.48116,0.00060,0.00119,0.00081,0.00115,0.00258,0.00083,0.00336,0.00143,0,0,0,0,0
7.57,0.19685,-1.48018,0.00063,0.00123,0.00086,0.00093,0.00135,0.00072,0.00475,0.00130,0,0,0,0,0
7.58,0.19765,-1.47924,0.00115,0.00383,0.00084,0.00088,0.00077,0.00069,0.00348,0.00120,0,0,0,0,0
7.59,0.19759,-1.47798,0.00366,0.01401,0.00081,0.00065,0.00111,0.00137,0.00301,0.00222,0,0,0,0,0
7.60,0.19714,-1.48072,0.00531,0.01904,0.00074,0.00062,0.00141,0.00171,0.00784,0.00413,0,0,0,1,0
7.61,0.19742,-1.47888,0.00354,0.01404,0.00071,0.00060,0.00130,0.00266,0.01081,0.00618,0,0,0,0,0
7.62,0.19716,-1.47958,0.00208,0.01170,0.00073,0.00055,0.00147,0.00376,0.00303,0.00557,0,0,0,0,0
7.63,0.19617,-1.47964,0.00186,0.01118,0.00066,0.00056,0.00110,0.00248,0.00334,0.00255,0,0,0,0,0
7.64,0.19562,-1.48852,0.00190,0.01290,0.00067,0.00058,0.00061,0.00139,0.00377,0.00112,0,0,0,0,0
7.65,0.19568,-1.48003,0.00225,0.01218,0.00080,0.00064,0.00057,0.00109,0.00421,0.00121,0,0,0,0,0
