"Time","2 Trdml","3 Platform","4 GM","5 Ip","6 BF","7 VL","8 St","9 TA","10 Gs","11 Gr","12 Synch","42 Ramp up","43 Ramp down","44 sw onset","45 sw offset"
0.00,0.09694,1.48396,0.00202,0.00218,0.00076,0.00058,0.00077,0.00057,0.00397,0.00123,0,0,0,0,0
0.01,0.09681,1.48299,0.00332,0.00914,0.00069,0.00056,0.00124,0.00054,0.00076,0.00089,0,0,0,0,0
0.02,0.09612,1.48390,0.00244,0.01003,0.00068,0.00057,0.00160,0.00061,0.00351,0.00181,0,0,0,1,0
0.03,0.09554,1.48158,0.00195,0.00592,0.00068,0.00056,0.00171,0.00084,-0.00214,0.00299,0,0,0,0,0
0.04,0.09624,1.48201,0.00190,0.00851,0.00066,0.00055,0.00152,0.00098,0.00580,0.00338,0,0,0,0,0
0.05,0.09682,1.48338,0.00184,0.01142,0.00069,0.00053,0.00105,0.00103,0.00565,0.00266,0,0,0,0,0
0.06,0.09762,1.47710,0.00207,0.00891,0.00066,0.00057,0.00094,0.00108,0.00336,0.00151,0,0,0,0,0
0.07,0.09830,1.48318,0.00201,0.00749,0.00062,0.00059,0.00103,0.00120,0.00305,0.00110,0,0,0,0,0
0.08,0.09839,1.48282,0.00165,0.01123,0.00062,0.00058,0.00084,0.00126,0.00336,0.00098,0,0,0,0,0
0.09,0.09792,1.48331,0.00271,0.01444,0.00065,0.00057,0.00058,0.00133,0.00351,0.00167,0,0,0,0,0
0.10,0.09751,1.48557,0.00382,0.01163,0.00073,0.00060,0.00061,0.00121,0.00351,0.00184,0,0,0,0,0
0.11,0.09800,1.48236,0.00272,0.00641,0.00081,0.00065,0.00056,0.00084,0.00336,0.00159,0,0,0,0,0
0.12,0.09752,1.48343,0.00142,0.00502,0.00082,0.00069,0.00056,0.00074,0.00366,0.00120,0,0,0,0,0
0.13,0.09719,1.48306,0.00079,0.00364,0.00076,0.00074,0.00067,0.00082,0.00381,0.00087,0,0,0,0,0
0.14,0.09676,1.48387,0.00060,0.00198,0.00071,0.00074,0.00066,0.00088,0.00427,0.00088,0,0,0,0,1
0.15,0.09672,1.48386,0.00055,0.00112,0.00070,0.00075,0.00092,0.00102,0.00458,0.00123,0,0,0,0,0
0.16,0.09797,1.48410,0.00057,0.00123,0.00093,0.00103,0.00133,0.00097,0.00351,0.00121,0,0,0,0,0
0.17,0.09813,1.48427,0.00057,0.00122,0.00103,0.00128,0.00146,0.00073,0.00443,0.00113,0,0,0,0,0
0.18,0.09762,1.48172,0.00058,0.00111,0.00081,0.00096,0.00144,0.00072,0.00473,0.00162,0,0,0,0,0
0.19,0.09652,1.48354,0.00056,0.00099,0.00071,0.00055,0.00140,0.00071,0.00458,0.00158,0,0,0,0,0
0.20,0.09604,1.48438,0.00056,0.00078,0.00072,0.00052,0.00152,0.00076,0.00336,0.00162,0,0,0,0,0
0.21,0.09601,1.47972,0.00056,0.00069,0.00071,0.00057,0.00138,0.00081,0.00458,0.00234,0,0,0,0,0
0.22,0.09624,1.48259,0.00060,0.00062,0.00070,0.00057,0.00137,0.00073,0.00488,0.00191,0,0,0,0,0
0.23,0.09716,1.48322,0.00061,0.00058,0.00069,0.00055,0.00154,0.00078,0.00412,0.00167,0,0,0,0,0
0.24,0.09711,1.48291,0.00056,0.00065,0.00065,0.00049,0.00157,0.00084,0.00214,0.00190,0,0,0,0,0
0.25,0.09743,1.47803,0.00056,0.00071,0.00069,0.00056,0.00138,0.00076,0.00412,0.00151,0,0,0,0,0
0.26,0.09734,1.48314,0.00062,0.00073,0.00076,0.00067,0.00106,0.00071,0.00305,0.00215,0,0,0,0,0
0.27,0.09747,1.48256,0.00075,0.00068,0.00069,0.00060,0.00111,0.00070,0.00107,0.00229,0,0,0,0,0
0.28,0.09760,1.48296,0.00101,0.00076,0.00072,0.00067,0.00104,0.00073,0.00412,0.00142,0,0,0,0,0
0.29,0.09749,1.48341,0.00089,0.00097,0.00090,0.00067,0.00100,0.00074,0.00595,0.00093,0,0,0,0,0
0.30,0.09798,1.48305,0.00061,0.00093,0.00083,0.00061,0.00110,0.00071,0.00427,0.00096,0,0,0,0,0
0.31,0.09854,1.48329,0.00073,0.00085,0.00069,0.00058,0.00101,0.00069,0.00275,0.00108,0,0,0,0,0
0.32,0.09858,1.48094,0.00155,0.00449,0.00072,0.00063,0.00077,0.00064,0.00427,0.00092,0,0,0,0,0
0.33,0.09732,1.48190,0.00245,0.00810,0.00074,0.00066,0.00102,0.00066,0.00488,0.00091,0,0,0,0,0
0.34,0.09678,1.48299,0.00488,0.01299,0.00073,0.00066,0.00147,0.00069,0.00885,0.00217,0,0,0,1,0
0.35,0.09732,1.48337,0.00639,0.01459,0.00070,0.00063,0.00156,0.00123,0.00046,0.00266,0,0,0,0,0
0.36,0.09779,1.48448,0.00456,0.00955,0.00067,0.00055,0.00128,0.00276,0.00031,0.00222,0,0,0,0,0
0.37,0.09826,1.48390,0.00268,0.00987,0.00067,0.00060,0.00105,0.00335,0.00443,0.00232,0,0,0,0,0
0.38,0.09810,1.48323,0.00171,0.01018,0.00064,0.00052,0.00097,0.00288,0.00427,0.00166,0,0,0,0,0
0.39,0.09836,1.48190,0.00191,0.00864,0.00067,0.00045,0.00086,0.00211,0.00366,0.00112,0,0,0,0,0
0.40,0.09873,1.48409,0.00220,0.01064,0.00069,0.00049,0.00073,0.00117,0.00488,0.00101,0,0,0,0,0
0.41,0.09894,1.48245,0.00330,0.01137,0.00067,0.00056,0.00054,0.00105,0.00412,0.00106,0,0,0,0,0
0.42,0.09976,1.48212,0.00357,0.01099,0.00066,0.00057,0.00056,0.00133,0.00412,0.00111,0,0,0,0,0
0.43,0.09970,1.48235,0.00278,0.00908,0.00071,0.00064,0.00056,0.00117,0.00397,0.00082,0,0,0,0,0
0.44,0.09843,1.48439,0.00259,0.00399,0.00082,0.00073,0.00053,0.00080,0.00473,0.00069,0,0,0,0,0
0.45,0.09735,1.48306,0.00146,0.00277,0.00084,0.00067,0.00065,0.00090,0.00427,0.00075,0,0,0,0,0
0.46,0.09759,1.48279,0.00057,0.00265,0.00073,0.00064,0.00080,0.00110,0.00473,0.00138,0,0,0,0,0
0.47,0.09816,1.48279,0.00054,0.00143,0.00075,0.00070,0.00081,0.00112,0.00381,0.00195,0,0,0,0,1
0.48,0.09902,1.48166,0.00054,0.00139,0.00087,0.00079,0.00074,0.00104,0.00320,0.00145,0,0,0,0,0
0.49,0.09896,1.48279,0.00057,0.00114,0.00096,0.00114,0.00075,0.00115,0.00549,0.00093,0,0,0,0,0
0.50,0.09781,1.48279,0.00059,0.00117,0.00089,0.00111,0.00089,0.00122,0.00443,0.00095,0,0,0,0,0
0.51,0.09671,1.48338,0.00056,0.00116,0.00072,0.00067,0.00084,0.00096,0.00320,0.00098,0,0,0,0,0
0.52,0.09645,1.48285,0.00058,0.00110,0.00072,0.00054,0.00093,0.00089,0.00427,0.00133,0,0,0,0,0
0.53,0.09683,1.48302,0.00066,0.00081,0.00071,0.00054,0.00103,0.00111,0.00427,0.00203,0,0,0,0,0
0.54,0.09732,1.48404,0.00065,0.00069,0.00072,0.00056,0.00104,0.00106,0.00381,0.00197,0,0,0,0,0
0.55,0.09827,1.48289,0.00063,0.00069,0.00079,0.00062,0.00130,0.00092,0.00412,0.00207,0,0,0,0,0
0.56,0.09931,1.48325,0.00061,0.00080,0.00079,0.00062,0.00119,0.00079,0.00427,0.00302,0,0,0,0,0
0.57,0.10019,1.48199,0.00058,0.00129,0.00075,0.00060,0.00137,0.00067,0.00275,0.00338,0,0,0,0,0
0.58,0.10047,1.48322,0.00057,0.00126,0.00070,0.00060,0.00145,0.00064,0.00427,0.00354,0,0,0,0,0
0.59,0.10002,1.48326,0.00061,0.00123,0.00070,0.00053,0.00121,0.00063,0.00305,0.00346,0,0,0,0,0
0.60,0.09907,1.48163,0.00059,0.00116,0.00073,0.00054,0.00137,0.00060,0.00336,0.00285,0,0,0,0,0
0.61,0.09844,1.48393,0.00055,0.00063,0.00069,0.00053,0.00138,0.00067,0.00626,0.00263,0,0,0,0,0
0.62,0.09798,1.48221,0.00053,0.00060,0.00073,0.00051,0.00136,0.00071,0.00534,0.00267,0,0,0,0,0
0.63,0.09862,1.48311,0.00061,0.00061,0.00071,0.00056,0.00164,0.00071,0.00473,0.00303,0,0,0,0,0
0.64,0.09868,1.48468,0.00062,0.00062,0.00062,0.00060,0.00179,0.00078,0.00412,0.00270,0,0,0,0,0
0.65,0.09841,1.48146,0.00055,0.00069,0.00064,0.00057,0.00181,0.00077,0.00595,0.00217,0,0,0,0,0
0.66,0.09807,1.48169,0.00059,0.00076,0.00072,0.00053,0.00188,0.00070,0.00259,0.00180,0,0,0,0,0
0.67,0.09728,1.48135,0.00057,0.00078,0.00075,0.00058,0.00166,0.00066,0.00366,0.00128,0,0,0,0,0
0.68,0.09686,1.48253,0.00057,0.00088,0.00078,0.00102,0.00141,0.00069,0.00443,0.00142,0,0,0,0,0
0.69,0.09621,1.48230,0.00059,0.00089,0.00082,0.00126,0.00148,0.00075,0.00916,0.00143,0,0,0,0,0
0.70,0.09619,1.48222,0.00059,0.00090,0.00085,0.00120,0.00122,0.00071,0.00565,0.00110,0,0,0,0,0
0.71,0.09645,1.48125,0.00060,0.00101,0.00088,0.00093,0.00104,0.00069,0.00183,0.00095,0,0,0,0,0
0.72,0.09621,1.48375,0.00063,0.00086,0.00078,0.00060,0.00104,0.00067,0.00244,0.00089,0,0,0,0,0
0.73,0.09563,1.48213,0.00111,0.00188,0.00079,0.00059,0.00083,0.00064,0.00336,0.00081,0,0,0,0,0
0.74,0.09622,1.48239,0.00299,0.00797,0.00080,0.00059,0.00080,0.00060,0.00381,0.00092,0,0,0,0,0
0.75,0.09726,1.48152,0.00503,0.01058,0.00069,0.00061,0.00153,0.00068,0.00381,0.00175,0,0,0,0,0
0.76,0.09719,1.47897,0.00644,0.00852,0.00067,0.00061,0.00257,0.00090,0.00214,0.00345,0,0,0,1,0
0.77,0.09659,1.48323,0.00401,0.00824,0.00070,0.00060,0.00235,0.00108,0.00320,0.00397,0,0,0,0,0
0.78,0.09637,1.48322,0.00165,0.00804,0.00070,0.00060,0.00181,0.00120,0.00687,0.00352,0,0,0,0,0
0.79,0.09661,1.48325,0.00272,0.00908,0.00067,0.00060,0.00135,0.00203,0.00946,0.00281,0,0,0,0,0
0.80,0.09703,1.48323,0.00280,0.00954,0.00069,0.00059,0.00100,0.00255,0.00183,0.00152,0,0,0,0,0
0.81,0.09727,1.48267,0.00295,0.00958,0.00095,0.00100,0.00156,0.00203,0.00122,0.00132,0,0,0,0,0
0.82,0.06885,1.48080,0.00314,0.01130,0.00089,0.00101,0.00135,0.00229,0.00351,0.00126,0,0,0,0,0
0.83,0.09826,1.48267,0.00307,0.01290,0.00062,0.00055,0.00057,0.00215,0.00427,0.00102,0,0,0,0,0
0.84,0.10579,1.48206,0.00322,0.01262,0.00067,0.00056,0.00055,0.00139,0.00473,0.00165,0,0,0,0,0
0.85,0.10292,1.48360,0.00525,0.01166,0.00082,0.00060,0.00056,0.00128,0.00504,0.00179,0,0,0,0,0
0.86,0.10119,1.48396,0.00511,0.00836,0.00081,0.00061,0.00055,0.00105,0.00519,0.00109,0,0,0,0,0
0.87,0.10070,1.48305,0.00244,0.00348,0.00080,0.00078,0.00052,0.00075,0.00458,0.00075,0,0,0,0,0
0.88,0.10045,1.48285,0.00164,0.00356,0.00079,0.00091,0.00062,0.00084,0.00351,0.00085,0,0,0,0,0
0.89,0.09965,1.48164,0.00105,0.00370,0.00075,0.00088,0.00074,0.00093,0.00275,0.00092,0,0,0,0,0
0.90,0.09927,1.48228,0.00059,0.00185,0.00074,0.00076,0.00089,0.00086,0.00320,0.00115,0,0,0,0,1
0.91,0.09903,1.48361,0.00052,0.00143,0.00068,0.00060,0.00096,0.00079,0.00336,0.00308,0,0,0,0,0
0.92,0.09982,1.48859,0.00047,0.00082,0.00068,0.00058,0.00091,0.00079,0.00290,0.00383,0,0,0,0,0
0.93,0.10028,1.47171,0.00051,0.00107,0.00073,0.00062,0.00090,0.00087,0.00381,0.00213,0,0,0,0,0
0.94,0.10082,1.40555,0.00053,0.00281,0.00076,0.00066,0.00082,0.00095,0.00488,0.00133,0,0,0,0,0
0.95,0.09932,1.28862,0.00054,0.00296,0.00072,0.00065,0.00072,0.00097,0.00473,0.00098,0,0,1,0,0
0.96,0.09861,1.10013,0.00062,0.00343,0.00074,0.00062,0.00067,0.00098,0.00443,0.00086,0,0,0,0,0
0.97,0.09988,0.89426,0.00075,0.00490,0.00071,0.00058,0.00102,0.00114,0.00443,0.00172,0,0,0,0,0
0.98,0.09867,0.62921,0.00100,0.00383,0.00065,0.00058,0.00127,0.00138,0.00305,0.00264,0,0,0,0,0
0.99,0.09925,0.35983,0.00087,0.00214,0.00070,0.00062,0.00087,0.00122,0.00366,0.00199,0,0,0,0,0
1.00,0.09842,0.05475,0.00053,0.00139,0.00070,0.00060,0.00064,0.00113,0.00290,0.00091,0,0,0,0,0
1.01,0.09813,-0.24954,0.00080,0.00206,0.00067,0.00054,0.00075,0.00132,0.00336,0.00117,0,0,0,0,0
1.02,0.09770,-0.52948,0.00094,0.00182,0.00069,0.00064,0.00087,0.00131,0.00290,0.00155,0,0,0,0,0
1.03,0.09820,-0.80890,0.00080,0.00115,0.00113,0.00086,0.00143,0.00131,0.00381,0.00150,0,0,0,0,0
1.04,0.09766,-1.02896,0.00073,0.00105,0.00116,0.00079,0.00170,0.00102,0.00381,0.00212,0,0,0,0,0
1.05,0.09771,-1.22670,0.00060,0.00100,0.00071,0.00060,0.00213,0.00077,0.00031,0.00344,0,0,0,0,0
1.06,0.09758,-1.37210,0.00053,0.00137,0.00069,0.00058,0.00235,0.00084,0.00443,0.00255,0,0,0,0,0
1.07,0.09750,-1.45381,0.00052,0.00140,0.00069,0.00056,0.00162,0.00076,0.00305,0.00118,0,0,0,0,0
1.08,0.09793,-1.47696,0.00051,0.00094,0.00063,0.00053,0.00142,0.00068,0.00488,0.00121,0,0,0,0,0
1.09,0.09906,-1.48184,0.00053,0.00159,0.00064,0.00054,0.00121,0.00072,0.00366,0.00108,0,0,0,0,0
1.10,0.09854,-1.47951,0.00053,0.00211,0.00070,0.00057,0.00105,0.00074,0.00305,0.00102,0,0,0,0,0
1.11,0.09773,-1.48148,0.00053,0.00173,0.00074,0.00060,0.00126,0.00063,0.00259,0.00098,0,0,0,0,0
1.12,0.09689,-1.48140,0.00053,0.00156,0.00074,0.00060,0.00105,0.00060,0.00443,0.00109,0,0,0,0,0
1.13,0.09618,-1.48227,0.00055,0.00148,0.00069,0.00055,0.00102,0.00059,0.00366,0.00116,0,0,0,0,0
1.14,0.09636,-1.47975,0.00057,0.00120,0.00067,0.00057,0.00126,0.00059,0.00580,0.00148,0,0,0,0,0
1.15,0.09748,-1.47951,0.00054,0.00127,0.00070,0.00060,0.00117,0.00062,0.00336,0.00174,0,0,0,0,0
1.16,0.09779,-1.48192,0.00051,0.00158,0.00065,0.00062,0.00131,0.00058,0.00290,0.00155,0,0,0,0,0
1.17,0.09824,-1.47931,0.00051,0.00164,0.00071,0.00066,0.00136,0.00063,0.00259,0.00124,0,0,0,0,0
1.18,0.09751,-1.47940,0.00053,0.00143,0.00073,0.00060,0.00125,0.00062,0.00366,0.00121,0,0,0,0,0
1.19,0.09785,-1.47984,0.00056,0.00109,0.00066,0.00052,0.00134,0.00056,0.00336,0.00146,0,0,0,0,0
1.20,0.09774,-1.48167,0.00052,0.00099,0.00069,0.00052,0.00153,0.00061,0.00305,0.00176,0,0,0,0,0
1.21,0.09837,-1.47986,0.00051,0.00089,0.00068,0.00055,0.00165,0.00061,0.00458,0.00163,0,0,0,0,0
1.22,0.09784,-1.47749,0.00059,0.00087,0.00068,0.00054,0.00143,0.00058,0.00397,0.00138,0,0,0,0,0
1.23,0.09779,-1.48109,0.00060,0.00072,0.00065,0.00055,0.00141,0.00066,0.00214,0.00241,0,0,0,0,0
1.24,0.09761,-1.47940,0.00058,0.00079,0.00070,0.00060,0.00172,0.00071,0.00473,0.00267,0,0,0,0,0
1.25,0.09774,-1.48105,0.00059,0.00093,0.00067,0.00058,0.00179,0.00072,0.00732,0.00155,0,0,0,0,0
1.26,0.09808,-1.47939,0.00060,0.00083,0.00062,0.00054,0.00142,0.00075,0.00122,0.00164,0,0,0,0,0
1.27,0.09864,-1.48184,0.00059,0.00073,0.00066,0.00053,0.00109,0.00073,0.00397,0.00209,0,0,0,0,0
1.28,0.09857,-1.48027,0.00060,0.00069,0.00076,0.00058,0.00118,0.00074,0.00290,0.00158,0,0,0,0,0
1.29,0.09849,-1.47961,0.00061,0.00075,0.00072,0.00064,0.00153,0.00091,0.00366,0.00145,0,0,0,0,0
1.30,0.09809,-1.48161,0.00061,0.00085,0.00064,0.00068,0.00158,0.00092,0.00458,0.00135,0,0,0,0,0
1.31,0.09753,-1.48016,0.00065,0.00091,0.00075,0.00065,0.00146,0.00091,0.00336,0.00079,0,0,0,0,0
1.32,0.09782,-1.47807,0.00069,0.00106,0.00077,0.00061,0.00137,0.00089,0.00168,0.00112,0,0,0,0,0
1.33,0.09799,-1.48009,0.00066,0.00085,0.00068,0.00061,0.00100,0.00074,0.00305,0.00118,0,0,0,0,0
1.34,0.09824,-1.49046,0.00061,0.00061,0.00069,0.00056,0.00094,0.00065,0.00397,0.00092,0,0,0,0,0
1.35,0.09735,-1.47987,0.00062,0.00081,0.00073,0.00051,0.00094,0.00060,0.00366,0.00111,0,0,0,0,0
1.36,0.09676,-1.48051,0.00057,0.00084,0.00070,0.00058,0.00072,0.00060,0.00305,0.00140,0,0,0,0,0
1.37,0.09675,-1.47945,0.00077,0.00084,0.00075,0.00057,0.00065,0.00060,0.00504,0.00127,0,0,0,0,0
1.38,0.09705,-1.48116,0.00245,0.00307,0.00077,0.00057,0.00079,0.00055,0.00244,0.00088,0,0,0,0,0
1.39,0.09773,-1.48047,0.00549,0.00804,0.00065,0.00060,0.00142,0.00060,-0.00092,0.00155,0,0,0,1,0
1.40,0.09713,-1.48352,0.00712,0.01043,0.00065,0.00055,0.00154,0.00070,0.00015,0.00206,0,0,0,0,0
1.41,0.09613,-1.47968,0.00468,0.01032,0.00068,0.00057,0.00133,0.00083,0.00931,0.00232,0,0,0,0,0
1.42,0.09671,-1.47859,0.00181,0.01006,0.00068,0.00056,0.00117,0.00122,0.00061,0.00273,0,0,0,0,0
1.43,0.09740,-1.47903,0.00244,0.01033,0.00069,0.00055,0.00094,0.00211,0.00046,0.00176,0,0,0,0,0
1.44,0.09707,-1.48013,0.00374,0.01135,0.00070,0.00057,0.00088,0.00207,0.00244,0.00104,0,0,0,0,0
1.45,0.09741,-1.47916,0.00561,0.01130,0.00068,0.00057,0.00065,0.00161,0.00290,0.00107,0,0,0,0,0
1.46,0.09675,-1.48332,0.00551,0.01469,0.00066,0.00055,0.00052,0.00172,0.00305,0.00110,0,0,0,0,0
1.47,0.09562,-1.48085,0.00442,0.01670,0.00072,0.00059,0.00053,0.00143,0.00320,0.00121,0,0,0,0,0
1.48,0.09583,-1.48024,0.00328,0.00910,0.00081,0.00073,0.00054,0.00098,0.00336,0.00094,0,0,0,0,0
1.49,0.09693,-1.47971,0.00102,0.00364,0.00081,0.00073,0.00063,0.00081,0.00458,0.00108,0,0,0,0,0
1.50,0.09709,-1.47940,0.00058,0.00383,0.00074,0.00068,0.00071,0.00108,0.00275,0.00110,0,0,0,0,0
1.51,0.09639,-1.48041,0.00059,0.00252,0.00072,0.00074,0.00086,0.00127,0.00427,0.00110,0,0,0,0,1
1.52,0.09594,-1.47836,0.00056,0.00112,0.00076,0.00072,0.00105,0.00111,0.00427,0.00194,0,0,0,0,0
1.53,0.09562,-1.47929,0.00056,0.00124,0.00088,0.00081,0.00105,0.00106,0.00290,0.00183,0,0,0,0,0
1.54,0.09620,-1.48016,0.00059,0.00115,0.00108,0.00114,0.00104,0.00143,0.00259,0.00107,0,0,0,0,0
1.55,0.09623,-1.48016,0.00059,0.00084,0.00098,0.00098,0.00111,0.00158,0.00153,0.00148,0,0,0,0,0
1.56,0.09552,-1.47891,0.00058,0.00080,0.00080,0.00062,0.00112,0.00134,0.00412,0.00263,0,0,0,0,0
1.57,0.09462,-1.47975,0.00054,0.00077,0.00079,0.00055,0.00111,0.00117,0.00320,0.00327,0,0,0,0,0
1.58,0.09437,-1.48053,0.00053,0.00070,0.00073,0.00054,0.00126,0.00116,0.00259,0.00326,0,0,0,0,0
1.59,0.09475,-1.47839,0.00058,0.00078,0.00064,0.00050,0.00142,0.00112,0.00290,0.00314,0,0,0,0,0
1.60,0.09578,-1.47987,0.00060,0.00075,0.00060,0.00050,0.00152,0.00117,0.00336,0.00275,0,0,0,0,0
1.61,0.09664,-1.48056,0.00056,0.00065,0.00061,0.00053,0.00161,0.00110,0.00275,0.00239,0,0,0,0,0
1.62,0.09735,-1.48065,0.00057,0.00063,0.00068,0.00054,0.00203,0.00100,0.00046,0.00240,0,0,0,0,0
1.63,0.09798,-1.47945,0.00057,0.00058,0.00071,0.00049,0.00219,0.00100,0.00427,0.00328,0,0,0,0,0
1.64,0.09725,-1.47960,0.00058,0.00054,0.00066,0.00056,0.00197,0.00091,0.00320,0.00360,0,0,0,0,0
1.65,0.09784,-1.47980,0.00060,0.00057,0.00070,0.00064,0.00201,0.00083,0.00137,0.00336,0,0,0,0,0
1.66,0.09798,-1.48041,0.00060,0.00062,0.00069,0.00057,0.00169,0.00072,0.00595,0.00289,0,0,0,0,0
1.67,0.09807,-1.47800,0.00074,0.00074,0.00068,0.00056,0.00143,0.00067,0.00259,0.00159,0,0,0,0,0
1.68,0.09775,-1.48129,0.00075,0.00072,0.00073,0.00056,0.00162,0.00072,0.00412,0.00117,0,0,0,0,0
1.69,0.09751,-1.47932,0.00061,0.00065,0.00073,0.00057,0.00141,0.00069,0.00473,0.00103,0,0,0,0,0
1.70,0.09847,-1.48061,0.00071,0.00129,0.00069,0.00062,0.00104,0.00057,0.00412,0.00095,0,0,0,0,0
1.71,0.09935,-1.48044,0.00146,0.00485,0.00070,0.00062,0.00082,0.00058,0.00198,0.00100,0,0,0,0,0
1.72,0.09890,-1.48016,0.00280,0.01167,0.00076,0.00061,0.00137,0.00072,0.00153,0.00212,0,0,0,1,0
1.73,0.09845,-1.47713,0.00358,0.01285,0.00072,0.00057,0.00169,0.00136,-0.00092,0.00336,0,0,0,0,0
1.74,0.09738,-1.47900,0.00324,0.00938,0.00069,0.00052,0.00209,0.00179,0.00061,0.00292,0,0,0,0,0
1.75,0.09699,-1.48135,0.00224,0.01129,0.00066,0.00060,0.00190,0.00161,0.00366,0.00228,0,0,0,0,0
1.76,0.09752,-1.47940,0.00235,0.01275,0.00060,0.00059,0.00089,0.00153,0.00137,0.00208,0,0,0,0,0
1.77,0.09730,-1.47992,0.00223,0.01148,0.00062,0.00051,0.00070,0.00169,0.00412,0.00158,0,0,0,0,0
1.78,0.09732,-1.48163,0.00135,0.01090,0.00068,0.00045,0.00053,0.00168,0.00320,0.00144,0,0,0,0,0
1.79,0.09761,-1.48143,0.00191,0.00975,0.00070,0.00046,0.00070,0.00142,0.00381,0.00128,0,0,0,0,0
1.80,0.09671,-1.48082,0.00306,0.01030,0.00069,0.00052,0.00069,0.00123,0.00397,0.00099,0,0,0,0,0
1.81,0.09616,-1.47937,0.00306,0.00930,0.00074,0.00054,0.00054,0.00102,0.00320,0.00126,0,0,0,0,0
1.82,0.09626,-1.47856,0.00273,0.00592,0.00080,0.00062,0.00056,0.00076,0.00244,0.00127,0,0,0,0,0
1.83,0.09661,-1.47984,0.00197,0.00284,0.00088,0.00070,0.00055,0.00070,0.00473,0.00131,0,0,0,0,0
1.84,0.09646,-1.48006,0.00079,0.00271,0.00089,0.00070,0.00080,0.00083,0.00381,0.00138,0,0,0,0,0
1.85,0.09603,-1.48119,0.00075,0.00303,0.00073,0.00070,0.00085,0.00114,0.00351,0.00117,0,0,0,0,1
1.86,0.09558,-1.47816,0.00069,0.00181,0.00081,0.00083,0.00074,0.00132,0.00443,0.00086,0,0,0,0,0
1.87,0.09540,-1.48096,0.00052,0.00134,0.00098,0.00097,0.00073,0.00108,0.00412,0.00074,0,0,0,0,0
1.88,0.09516,-1.47925,0.00060,0.00159,0.00106,0.00111,0.00080,0.00096,0.00443,0.00085,0,0,0,0,0
1.89,0.09542,-1.48004,0.00066,0.00135,0.00093,0.00090,0.00108,0.00106,0.00336,0.00104,0,0,0,0,0
1.90,0.09539,-1.48415,0.00064,0.00079,0.00073,0.00057,0.00099,0.00113,0.00183,0.00140,0,0,0,0,0
1.91,0.09561,-1.48007,0.00056,0.00122,0.00071,0.00057,0.00133,0.00103,0.00488,0.00127,0,0,0,0,0
1.92,0.09648,-1.47916,0.00054,0.00118,0.00072,0.00055,0.00134,0.00088,0.00397,0.00139,0,0,0,0,0
1.93,0.09704,-1.47847,0.00054,0.00115,0.00070,0.00051,0.00119,0.00077,0.00275,0.00197,0,0,0,0,0
1.94,0.09656,-1.47966,0.00056,0.00128,0.00067,0.00053,0.00176,0.00073,0.00412,0.00242,0,0,0,0,0
1.95,0.09721,-1.48047,0.00056,0.00132,0.00070,0.00058,0.00170,0.00077,0.00473,0.00208,0,0,0,0,0
1.96,0.09875,-1.47983,0.00058,0.00114,0.00069,0.00056,0.00117,0.00070,0.00397,0.00306,0,0,0,0,0
1.97,0.10003,-1.48032,0.00059,0.00106,0.00065,0.00051,0.00113,0.00060,0.00198,0.00373,0,0,0,0,0
1.98,0.10001,-1.47815,0.00055,0.00109,0.00069,0.00053,0.00137,0.00064,0.00214,0.00226,0,0,0,0,0
1.99,0.09896,-1.48058,0.00053,0.00071,0.00069,0.00060,0.00127,0.00062,0.00381,0.00189,0,0,0,0,0
2.00,0.09882,-1.47900,0.00062,0.00072,0.00069,0.00061,0.00138,0.00061,0.00488,0.00219,0,0,0,0,0
2.01,0.09893,-1.47998,0.00063,0.00073,0.00072,0.00056,0.00155,0.00065,0.00427,0.00229,0,0,0,0,0
2.02,0.09940,-1.48045,0.00060,0.00076,0.00072,0.00059,0.00150,0.00069,0.00320,0.00212,0,0,0,0,0
2.03,0.09995,-1.48126,0.00058,0.00085,0.00072,0.00060,0.00151,0.00070,0.00320,0.00186,0,0,0,0,0
2.04,0.09920,-1.47906,0.00056,0.00099,0.00077,0.00062,0.00177,0.00075,0.00305,0.00161,0,0,0,0,0
2.05,0.09901,-1.47978,0.00057,0.00100,0.00078,0.00095,0.00196,0.00080,0.00656,0.00150,0,0,0,0,0
2.06,0.09903,-1.47966,0.00055,0.00083,0.00068,0.00110,0.00192,0.00084,0.00381,0.00124,0,0,0,0,0
2.07,0.09855,-1.48026,0.00053,0.00094,0.00072,0.00109,0.00227,0.00085,0.00183,0.00107,0,0,0,0,0
2.08,0.09921,-1.48032,0.00058,0.00102,0.00077,0.00090,0.00240,0.00088,0.00366,0.00115,0,0,0,0,0
2.09,0.09856,-1.47989,0.00064,0.00077,0.00074,0.00078,0.00188,0.00086,0.00259,0.00126,0,0,0,0,0
2.10,0.09873,-1.48055,0.00084,0.00072,0.00078,0.00077,0.00142,0.00070,0.00198,0.00121,0,0,0,0,0
2.11,0.09832,-1.48044,0.00078,0.00090,0.00083,0.00073,0.00147,0.00062,0.00168,0.00109,0,0,0,0,0
2.12,0.09853,-1.47781,0.00060,0.00112,0.00093,0.00094,0.00122,0.00065,0.00381,0.00101,0,0,0,0,0
2.13,0.09908,-1.48041,0.00244,0.00343,0.00087,0.00083,0.00099,0.00061,0.00488,0.00094,0,0,0,0,0
2.14,0.09902,-1.48026,0.00570,0.00796,0.00071,0.00059,0.00149,0.00062,-0.00275,0.00140,0,0,0,1,0
2.15,0.09896,-1.48192,0.00399,0.01030,0.00068,0.00054,0.00151,0.00079,-0.00580,0.00198,0,0,0,0,0
2.16,0.09789,-1.48030,0.00153,0.00994,0.00066,0.00054,0.00137,0.00092,0.00275,0.00183,0,0,0,0,0
2.17,0.09765,-1.47720,0.00169,0.00902,0.00066,0.00053,0.00136,0.00100,0.00351,0.00162,0,0,0,0,0
2.18,0.09832,-1.47964,0.00170,0.01203,0.00066,0.00058,0.00097,0.00138,0.00565,0.00179,0,0,0,0,0
2.19,0.09930,-1.48209,0.00213,0.01281,0.00070,0.00058,0.00104,0.00170,0.00336,0.00149,0,0,0,0,0
2.20,0.09896,-1.48003,0.00249,0.01098,0.00071,0.00056,0.00111,0.00164,0.00412,0.00134,0,0,0,0,0
2.21,0.09815,-1.48047,0.00328,0.00759,0.00073,0.00056,0.00109,0.00179,0.00244,0.00135,0,0,0,0,0
2.22,0.09703,-1.47838,0.00280,0.00665,0.00070,0.00056,0.00098,0.00167,0.00259,0.00125,0,0,0,0,0
2.23,0.09574,-1.47868,0.00188,0.00755,0.00069,0.00056,0.00069,0.00132,0.00366,0.00106,0,0,0,0,0
2.24,0.09567,-1.48216,0.00251,0.00732,0.00069,0.00056,0.00060,0.00128,0.00504,0.00084,0,0,0,0,0
2.25,0.09626,-1.47888,0.00267,0.00955,0.00067,0.00058,0.00053,0.00104,0.00366,0.00080,0,0,0,0,1
2.26,0.09668,-1.48042,0.00262,0.00809,0.00069,0.00055,0.00095,0.00093,0.00259,0.00075,0,0,0,0,0
2.27,0.09670,-1.48105,0.00261,0.00474,0.00071,0.00055,0.00104,0.00090,0.00244,0.00074,0,0,0,0,0
2.28,0.09723,-1.47969,0.00146,0.00203,0.00068,0.00055,0.00082,0.00068,0.00275,0.00085,0,0,0,0,0
2.29,0.09716,-1.48036,0.00081,0.00117,0.00070,0.00054,0.00116,0.00060,0.00244,0.00096,0,0,0,0,0
2.30,0.09768,-1.47842,0.00064,0.00089,0.00077,0.00053,0.00137,0.00067,0.00305,0.00200,0,0,0,0,0
2.31,0.09815,-1.47212,0.00059,0.00075,0.00071,0.00052,0.00130,0.00064,0.00275,0.00274,0,0,0,0,0
2.32,0.09818,-1.48077,0.00057,0.00082,0.00068,0.00050,0.00130,0.00061,0.00504,0.00186,0,0,0,0,0
2.33,0.09784,-1.48068,0.00055,0.00075,0.00069,0.00053,0.00122,0.00064,0.00275,0.00121,0,0,0,0,0
2.34,0.09690,-1.47975,0.00053,0.00099,0.00073,0.00059,0.00120,0.00066,0.00488,0.00092,0,0,0,0,0
2.35,0.09731,-1.46292,0.00053,0.00120,0.00070,0.00064,0.00126,0.00067,0.00702,0.00078,0,1,0,0,0
2.36,0.09757,-1.39247,0.00053,0.00115,0.00082,0.00132,0.00172,0.00061,0.00275,0.00117,0,0,0,0,0
2.37,0.09774,-1.25487,0.00053,0.00133,0.00095,0.00165,0.00211,0.00066,0.00443,0.00161,0,0,0,0,0
2.38,0.09778,-1.08183,0.00053,0.00141,0.00088,0.00124,0.00233,0.00072,0.00534,0.00140,0,0,0,0,0
2.39,0.09745,-0.84935,0.00055,0.00124,0.00087,0.00113,0.00198,0.00067,0.00229,0.00118,0,0,0,0,0
2.40,0.09703,-0.60178,0.00056,0.00128,0.00086,0.00125,0.00133,0.00069,0.00107,0.00162,0,0,0,0,0
2.41,0.09654,-0.30759,0.00059,0.00152,0.00094,0.00137,0.00100,0.00085,0.00443,0.00188,0,0,0,0,0
2.42,0.09694,-0.01962,0.00072,0.00143,0.00097,0.00099,0.00072,0.00113,0.00473,0.00192,0,0,0,0,0
2.43,0.09692,0.26154,0.00073,0.00128,0.00092,0.00112,0.00069,0.00140,0.00397,0.00141,0,0,0,0,0
2.44,0.09560,0.55951,0.00055,0.00107,0.00228,0.00111,0.00065,0.00152,0.00443,0.00080,0,0,0,0,0
2.45,0.09449,0.81104,0.00058,0.00097,0.00371,0.00083,0.00064,0.00161,0.00351,0.00080,0,0,0,0,0
2.46,0.09359,1.03236,0.00064,0.00104,0.00235,0.00102,0.00065,0.00148,0.00427,0.00100,0,0,0,0,0
2.47,0.09475,1.23233,0.00061,0.00089,0.00080,0.00077,0.00067,0.00130,0.00320,0.00098,0,0,0,0,0
2.48,0.09628,1.36725,0.00222,0.00129,0.00062,0.00055,0.00062,0.00100,0.00244,0.00073,0,0,0,0,0
2.49,0.09634,1.45206,0.00339,0.00240,0.00064,0.00054,0.00075,0.00060,0.00687,0.00077,0,0,0,0,0
2.50,0.09656,1.48293,0.00215,0.00185,0.00068,0.00052,0.00084,0.00058,0.00336,0.00075,0,0,0,0,0
2.51,0.09737,1.48413,0.00342,0.00338,0.00072,0.00052,0.00095,0.00056,0.00320,0.00069,0,0,0,1,0
2.52,0.09861,1.48436,0.00368,0.00457,0.00071,0.00052,0.00095,0.00052,0.00351,0.00068,0,0,0,0,0
2.53,0.09913,1.48349,0.00274,0.00243,0.00064,0.00050,0.00102,0.00057,0.00198,0.00093,0,0,0,0,0
2.54,0.09903,1.48457,0.00282,0.00344,0.00064,0.00055,0.00100,0.00071,0.00305,0.00107,0,0,0,0,0
2.55,0.09880,1.48546,0.00293,0.00634,0.00066,0.00058,0.00087,0.00099,0.00336,0.00101,0,0,0,0,0
2.56,0.09879,1.48322,0.00301,0.00549,0.00065,0.00057,0.00100,0.00114,0.00443,0.00105,0,0,0,0,0
2.57,0.09951,1.48442,0.00277,0.00310,0.00066,0.00057,0.00076,0.00134,0.00397,0.00100,0,0,0,0,0
2.58,0.09916,1.48410,0.00313,0.00307,0.00068,0.00054,0.00069,0.00145,0.00214,0.00081,0,0,0,0,0
2.59,0.09873,1.48637,0.00242,0.00334,0.00070,0.00061,0.00091,0.00134,0.00244,0.00090,0,0,0,0,0
2.60,0.09790,1.48653,0.00302,0.00479,0.00076,0.00066,0.00085,0.00135,0.00381,0.00131,0,0,0,0,0
2.61,0.09794,1.48381,0.00397,0.00636,0.00071,0.00059,0.00083,0.00119,0.00351,0.00113,0,0,0,0,1
2.62,0.09760,1.48425,0.00344,0.00556,0.00073,0.00057,0.00115,0.00116,0.00412,0.00083,0,0,0,0,0
2.63,0.09817,1.48456,0.00337,0.00314,0.00075,0.00058,0.00121,0.00114,0.00397,0.00082,0,0,0,0,0
2.64,0.09840,1.48409,0.00306,0.00211,0.00064,0.00055,0.00079,0.00083,0.00305,0.00095,0,0,0,0,0
2.65,0.09867,1.48366,0.00332,0.00518,0.00068,0.00058,0.00063,0.00068,0.00305,0.00129,0,0,0,0,0
2.66,0.09788,1.48405,0.00382,0.00776,0.00074,0.00059,0.00072,0.00068,0.00244,0.00116,0,0,0,0,0
2.67,0.09810,1.48236,0.00286,0.00575,0.00067,0.00055,0.00062,0.00059,0.00259,0.00089,0,0,0,0,0
2.68,0.09764,1.48419,0.00190,0.00270,0.00063,0.00054,0.00059,0.00056,0.00305,0.00107,0,0,0,0,0
2.69,0.09776,1.48341,0.00199,0.00572,0.00064,0.00055,0.00074,0.00057,0.00549,0.00155,0,0,0,0,0
2.70,0.09791,1.48575,0.00367,0.01507,0.00068,0.00057,0.00081,0.00066,0.00412,0.00132,0,0,0,0,0
2.71,0.09783,1.48315,0.00605,0.01556,0.00074,0.00057,0.00081,0.00084,0.00290,0.00125,0,0,0,0,0
2.72,0.09846,1.48476,0.00726,0.01060,0.00074,0.00063,0.00081,0.00110,0.00931,0.00131,0,0,0,1,0
2.73,0.09919,1.48495,0.00568,0.01102,0.00073,0.00063,0.00072,0.00134,0.00427,0.00155,0,0,0,0,0
2.74,0.09878,1.48492,0.00822,0.01255,0.00066,0.00058,0.00066,0.00234,0.00336,0.00177,0,0,0,0,0
2.75,0.09849,1.48439,0.00745,0.01287,0.00065,0.00059,0.00063,0.00213,0.00458,0.00107,0,0,0,0,0
2.76,0.09777,1.48448,0.00715,0.01256,0.00068,0.00067,0.00058,0.00125,0.00336,0.00093,0,0,0,0,0
2.77,0.09754,1.48488,0.01005,0.01640,0.00070,0.00078,0.00059,0.00115,0.00381,0.00128,0,0,0,0,0
2.78,0.09757,1.48262,0.00738,0.01430,0.00080,0.00077,0.00057,0.00089,0.00229,0.00130,0,0,0,0,0
2.79,0.09759,1.48280,0.00436,0.00865,0.00078,0.00072,0.00053,0.00103,0.00443,0.00091,0,0,0,0,0
2.80,0.09778,1.48370,0.00210,0.00840,0.00077,0.00069,0.00058,0.00099,0.00305,0.00073,0,0,0,0,1
2.81,0.09755,1.48422,0.00126,0.00517,0.00078,0.00064,0.00079,0.00092,0.00320,0.00083,0,0,0,0,0
2.82,0.09820,1.48344,0.00059,0.00169,0.00071,0.00056,0.00111,0.00075,0.00381,0.00296,0,0,0,0,0
2.83,0.09810,1.48520,0.00057,0.00081,0.00070,0.00057,0.00123,0.00064,0.00275,0.00408,0,0,0,0,0
2.84,0.09864,1.48650,0.00056,0.00090,0.00074,0.00057,0.00117,0.00068,0.00320,0.00328,0,0,0,0,0
2.85,0.09879,1.48607,0.00059,0.00093,0.00072,0.00051,0.00110,0.00070,0.00229,0.00321,0,0,0,0,0
2.86,0.09867,1.48433,0.00057,0.00115,0.00072,0.00055,0.00126,0.00076,0.00320,0.00236,0,0,0,0,0
2.87,0.09829,1.48434,0.00056,0.00144,0.00079,0.00069,0.00137,0.00074,0.00320,0.00181,0,0,0,0,0
2.88,0.09815,1.48427,0.00056,0.00112,0.00084,0.00082,0.00136,0.00070,0.00244,0.00141,0,0,0,0,0
2.89,0.09804,1.48494,0.00059,0.00094,0.00083,0.00103,0.00131,0.00067,0.00473,0.00165,0,0,0,0,0
2.90,0.09783,1.48549,0.00062,0.00096,0.00079,0.00092,0.00132,0.00064,0.00351,0.00204,0,0,0,0,0
2.91,0.09730,1.48392,0.00056,0.00088,0.00077,0.00091,0.00148,0.00073,0.00076,0.00195,0,0,0,0,0
2.92,0.09737,1.48398,0.00053,0.00082,0.00080,0.00096,0.00139,0.00080,0.00504,0.00209,0,0,0,0,0
2.93,0.09729,1.48589,0.00058,0.00074,0.00074,0.00097,0.00130,0.00079,0.00275,0.00175,0,0,0,0,0
2.94,0.09763,1.48412,0.00062,0.00073,0.00075,0.00126,0.00131,0.00079,0.00397,0.00137,0,0,0,0,0
2.95,0.09778,1.48476,0.00060,0.00070,0.00082,0.00097,0.00115,0.00079,0.00397,0.00147,0,0,0,0,0
2.96,0.09699,1.48125,0.00061,0.00072,0.00083,0.00091,0.00122,0.00073,0.00320,0.00167,0,0,0,0,0
2.97,0.09676,1.48454,0.00064,0.00074,0.00087,0.00091,0.00126,0.00070,0.00473,0.00156,0,0,0,0,0
2.98,0.09690,1.48225,0.00083,0.00068,0.00084,0.00063,0.00089,0.00067,0.00381,0.00119,0,0,0,0,0
2.99,0.09673,1.48404,0.00082,0.00081,0.00077,0.00067,0.00097,0.00061,0.00320,0.00099,0,0,0,0,0
3.00,0.09698,1.48360,0.00062,0.00101,0.00083,0.00093,0.00092,0.00062,0.00351,0.00097,0,0,0,0,0
3.01,0.09700,1.48404,0.00309,0.00625,0.00079,0.00086,0.00133,0.00066,0.00412,0.00122,0,0,0,0,0
3.02,0.09629,1.48463,0.00359,0.00908,0.00074,0.00057,0.00221,0.00070,0.00412,0.00213,0,0,0,1,0
3.03,0.09586,1.48448,0.00282,0.00697,0.00074,0.00053,0.00185,0.00092,-0.00031,0.00255,0,0,0,0,0
3.04,0.09541,1.48434,0.00298,0.00895,0.00068,0.00053,0.00162,0.00189,0.00290,0.00325,0,0,0,0,0
3.05,0.09616,1.48405,0.00204,0.00736,0.00068,0.00050,0.00185,0.00203,0.00275,0.00361,0,0,0,0,0
3.06,0.09687,1.48355,0.00204,0.00958,0.00068,0.00050,0.00141,0.00173,0.00076,0.00228,0,0,0,0,0
3.07,0.09653,1.48599,0.00148,0.01181,0.00069,0.00055,0.00139,0.00207,0.00488,0.00178,0,0,0,0,0
3.08,0.09563,1.48381,0.00241,0.01084,0.00068,0.00055,0.00137,0.00217,0.00229,0.00229,0,0,0,0,0
3.09,0.09602,1.48392,0.00333,0.01135,0.00068,0.00054,0.00112,0.00217,0.00397,0.00168,0,0,0,0,0
3.10,0.09658,1.47502,0.00343,0.01184,0.00071,0.00055,0.00091,0.00226,0.00320,0.00116,0,0,0,0,0
3.11,0.09651,1.48483,0.00406,0.01528,0.00074,0.00055,0.00058,0.00208,0.00320,0.00117,0,0,0,0,0
3.12,0.09676,1.48355,0.00366,0.01454,0.00070,0.00053,0.00063,0.00207,0.00412,0.00106,0,0,0,0,0
3.13,0.09668,1.48518,0.00426,0.01113,0.00062,0.00055,0.00061,0.00165,0.00473,0.00156,0,0,0,0,0
3.14,0.09646,1.48553,0.00443,0.01069,0.00072,0.00067,0.00058,0.00097,0.00443,0.00163,0,0,0,0,0
3.15,0.09672,1.48425,0.00205,0.00725,0.00081,0.00065,0.00064,0.00079,0.00336,0.00110,0,0,0,0,0
3.16,0.09725,1.48337,0.00067,0.00199,0.00080,0.00057,0.00064,0.00079,0.00305,0.00093,0,0,0,0,0
3.17,0.09672,1.48331,0.00055,0.00153,0.00089,0.00068,0.00070,0.00095,0.00473,0.00091,0,0,0,0,0
3.18,0.09557,1.48515,0.00053,0.00127,0.00085,0.00070,0.00083,0.00102,0.00305,0.00093,0,0,0,0,1
3.19,0.09482,1.48370,0.00053,0.00101,0.00072,0.00067,0.00083,0.00100,0.00381,0.00086,0,0,0,0,0
3.20,0.09507,1.48267,0.00053,0.00090,0.00076,0.00064,0.00083,0.00085,0.00320,0.00150,0,0,0,0,0
3.21,0.09609,1.48456,0.00057,0.00096,0.00086,0.00069,0.00097,0.00083,0.00229,0.00166,0,0,0,0,0
3.22,0.09695,1.48572,0.00055,0.00171,0.00100,0.00124,0.00086,0.00082,0.00366,0.00118,0,0,0,0,0
3.23,0.09666,1.48531,0.00054,0.00197,0.00095,0.00116,0.00102,0.00072,0.00290,0.00132,0,0,0,0,0
3.24,0.09581,1.48399,0.00054,0.00122,0.00073,0.00062,0.00114,0.00071,0.00336,0.00112,0,0,0,0,0
3.25,0.09584,1.48543,0.00061,0.00081,0.00068,0.00066,0.00097,0.00085,0.00366,0.00153,0,0,0,0,0
3.26,0.09688,1.48456,0.00063,0.00076,0.00072,0.00065,0.00118,0.00087,0.00626,0.00231,0,0,0,0,0
3.27,0.09742,1.48518,0.00059,0.00071,0.00067,0.00058,0.00143,0.00075,0.00137,0.00241,0,0,0,0,0
3.28,0.09789,1.48337,0.00055,0.00067,0.00066,0.00057,0.00155,0.00066,0.00504,0.00405,0,0,0,0,0
3.29,0.09692,1.48505,0.00058,0.00063,0.00073,0.00055,0.00134,0.00063,0.00244,0.00424,0,0,0,0,0
3.30,0.09667,1.48508,0.00063,0.00059,0.00072,0.00056,0.00141,0.00069,0.00305,0.00283,0,0,0,0,0
3.31,0.09741,1.48524,0.00060,0.00059,0.00064,0.00059,0.00179,0.00073,0.00259,0.00367,0,0,0,0,0
3.32,0.09759,1.48396,0.00058,0.00068,0.00068,0.00062,0.00165,0.00066,0.00305,0.00415,0,0,0,0,0
3.33,0.09782,1.48431,0.00058,0.00136,0.00067,0.00058,0.00148,0.00065,0.00565,0.00409,0,0,0,0,0
3.34,0.09746,1.48347,0.00077,0.00127,0.00060,0.00054,0.00147,0.00067,0.00229,0.00452,0,0,0,0,0
3.35,0.09755,1.48509,0.00078,0.00079,0.00067,0.00055,0.00138,0.00069,0.00351,0.00431,0,0,0,0,0
3.36,0.09760,1.48445,0.00061,0.00081,0.00077,0.00055,0.00139,0.00070,0.00626,0.00420,0,0,0,0,0
3.37,0.09848,1.48381,0.00057,0.00061,0.00071,0.00052,0.00150,0.00066,-0.00336,0.00460,0,0,0,0,0
3.38,0.09861,1.48407,0.00059,0.00061,0.00064,0.00049,0.00154,0.00070,0.00275,0.00344,0,0,0,0,0
3.39,0.09879,1.48332,0.00064,0.00064,0.00065,0.00054,0.00164,0.00068,0.00183,0.00175,0,0,0,0,0
3.40,0.09811,1.48442,0.00061,0.00071,0.00067,0.00059,0.00159,0.00068,0.00305,0.00116,0,0,0,0,0
3.41,0.09849,1.48514,0.00056,0.00073,0.00072,0.00060,0.00132,0.00072,0.00275,0.00173,0,0,0,0,0
3.42,0.09877,1.48462,0.00056,0.00085,0.00072,0.00075,0.00107,0.00066,0.00412,0.00200,0,0,0,0,0
3.43,0.09891,1.48441,0.00058,0.00085,0.00069,0.00078,0.00095,0.00060,0.00336,0.00115,0,0,0,0,0
3.44,0.09902,1.48605,0.00090,0.00183,0.00076,0.00062,0.00078,0.00061,0.00320,0.00097,0,0,0,0,0
3.45,0.09846,1.48299,0.00465,0.00726,0.00082,0.00063,0.00098,0.00065,0.00366,0.00095,0,0,0,1,0
3.46,0.09791,1.48318,0.00570,0.01117,0.00070,0.00063,0.00159,0.00077,-0.00504,0.00209,0,0,0,0,0
3.47,0.09739,1.48320,0.00278,0.00858,0.00065,0.00055,0.00175,0.00109,0.00229,0.00308,0,0,0,0,0
3.48,0.09705,1.48233,0.00448,0.00887,0.00068,0.00053,0.00140,0.00127,0.00366,0.00297,0,0,0,0,0
3.49,0.09670,1.48488,0.00491,0.01164,0.00066,0.00053,0.00105,0.00155,0.00443,0.00198,0,0,0,0,0
3.50,0.09682,1.48462,0.00285,0.01074,0.00070,0.00061,0.00089,0.00211,0.00656,0.00107,0,0,0,0,0
3.51,0.09630,1.48436,0.00254,0.00844,0.00073,0.00062,0.00079,0.00184,0.00305,0.00094,0,0,0,0,0
3.52,0.09627,1.48494,0.00285,0.01065,0.00071,0.00056,0.00063,0.00128,0.00336,0.00076,0,0,0,0,0
3.53,0.09755,1.48302,0.00378,0.01371,0.00076,0.00055,0.00057,0.00142,0.00427,0.00094,0,0,0,0,0
3.54,0.09771,1.48392,0.00490,0.01298,0.00083,0.00062,0.00057,0.00134,0.00229,0.00138,0,0,0,0,0
3.55,0.09724,1.48537,0.00330,0.00843,0.00078,0.00072,0.00061,0.00091,0.00412,0.00142,0,0,0,0,0
3.56,0.09705,1.48592,0.00095,0.00285,0.00069,0.00070,0.00070,0.00077,0.00259,0.00096,0,0,0,0,0
3.57,0.09647,1.48488,0.00131,0.00127,0.00085,0.00067,0.00093,0.00103,0.00092,0.00078,0,0,0,0,0
3.58,0.09627,1.48567,0.00119,0.00112,0.00091,0.00062,0.00093,0.00115,0.00351,0.00143,0,0,0,0,1
3.59,0.09672,1.48466,0.00064,0.00097,0.00078,0.00061,0.00081,0.00101,0.00320,0.00170,0,0,0,0,0
3.60,0.09677,1.48157,0.00063,0.00128,0.00085,0.00074,0.00094,0.00128,0.00198,0.00138,0,0,0,0,0
3.61,0.09646,1.48419,0.00061,0.00121,0.00089,0.00075,0.00118,0.00168,0.00137,0.00141,0,0,0,0,0
3.62,0.09695,1.48529,0.00059,0.00095,0.00078,0.00064,0.00136,0.00161,0.00153,0.00291,0,0,0,0,0
3.63,0.09740,1.48544,0.00061,0.00147,0.00076,0.00057,0.00132,0.00123,0.00244,0.00325,0,0,0,0,0
3.64,0.09766,1.48332,0.00061,0.00150,0.00074,0.00058,0.00109,0.00115,0.00336,0.00262,0,0,0,0,0
3.65,0.09781,1.48479,0.00058,0.00082,0.00069,0.00055,0.00126,0.00105,0.00381,0.00297,0,0,0,0,0
3.66,0.09695,1.48480,0.00057,0.00108,0.00074,0.00055,0.00152,0.00078,0.00198,0.00290,0,0,0,0,0
3.67,0.09654,1.48418,0.00055,0.00183,0.00064,0.00053,0.00145,0.00072,0.00366,0.00290,0,0,0,0,0
3.68,0.09661,1.48360,0.00056,0.00141,0.00060,0.00052,0.00163,0.00069,0.00229,0.00318,0,0,0,0,0
3.69,0.09717,1.48433,0.00060,0.00062,0.00069,0.00054,0.00190,0.00074,0.00458,0.00393,0,0,0,0,0
3.70,0.09814,1.48445,0.00060,0.00066,0.00068,0.00056,0.00202,0.00074,0.00443,0.00375,0,0,0,0,0
3.71,0.09797,1.48624,0.00054,0.00080,0.00070,0.00057,0.00178,0.00062,0.00275,0.00334,0,0,0,0,0
3.72,0.09793,1.48399,0.00059,0.00077,0.00069,0.00054,0.00143,0.00065,0.00488,0.00387,0,0,0,0,0
3.73,0.09777,1.48259,0.00063,0.00084,0.00231,0.00058,0.00169,0.00069,0.00198,0.00337,0,0,0,0,0
3.74,0.09764,1.48317,0.00054,0.00096,0.00235,0.00060,0.00179,0.00079,0.00427,0.00261,0,0,0,0,0
3.75,0.09818,1.48434,0.00055,0.00081,0.00081,0.00060,0.00173,0.00079,0.00473,0.00279,0,0,0,0,0
3.76,0.09861,1.48535,0.00059,0.00073,0.00091,0.00059,0.00177,0.00071,0.00229,0.00259,0,0,0,0,0
3.77,0.09845,1.48470,0.00059,0.00078,0.00082,0.00058,0.00174,0.00068,0.00198,0.00217,0,0,0,0,0
3.78,0.09870,1.48447,0.00064,0.00083,0.00326,0.00059,0.00188,0.00088,0.00397,0.00201,0,0,0,0,0
3.79,0.09855,1.48450,0.00081,0.00098,0.00360,0.00128,0.00275,0.00117,0.00244,0.00195,0,0,0,0,0
3.80,0.09879,1.48404,0.00094,0.00108,0.00113,0.00131,0.00326,0.00108,0.00076,0.00157,0,0,0,0,0
3.81,0.09853,1.48282,0.00083,0.00092,0.00079,0.00067,0.00202,0.00088,0.00214,0.00112,0,0,0,0,0
3.82,0.09866,1.48419,0.00090,0.00095,0.00083,0.00078,0.00135,0.00081,0.00473,0.00139,0,0,0,0,0
3.83,0.09748,1.48434,0.00081,0.00096,0.00079,0.00092,0.00153,0.00079,0.00595,0.00129,0,0,0,0,0
3.84,0.09723,1.48318,0.00102,0.00156,0.00074,0.00078,0.00167,0.00071,0.00397,0.00138,0,0,0,0,0
3.85,0.09738,1.48090,0.00683,0.00811,0.00076,0.00065,0.00170,0.00066,0.00565,0.00141,0,0,0,0,0
3.86,0.09728,1.48372,0.00687,0.01229,0.00080,0.00065,0.00127,0.00064,-0.00031,0.00118,0,0,0,1,0
3.87,0.09704,1.48398,0.00470,0.01105,0.00074,0.00049,0.00085,0.00099,0.00351,0.00178,0,0,0,0,0
3.88,0.09678,1.48364,0.00657,0.01184,0.00073,0.00050,0.00072,0.00142,0.00458,0.00193,0,0,0,0,0
3.89,0.09623,1.48154,0.00379,0.01166,0.00075,0.00055,0.00073,0.00127,0.00275,0.00126,0,0,0,0,0
3.90,0.09655,1.48395,0.00463,0.01087,0.00068,0.00057,0.00057,0.00136,0.00320,0.00104,0,0,0,0,0
3.91,0.09765,1.48482,0.00450,0.01070,0.00069,0.00060,0.00059,0.00138,0.00336,0.00101,0,0,0,0,0
3.92,0.09831,1.48404,0.00251,0.01024,0.00078,0.00058,0.00065,0.00105,0.00168,0.00082,0,0,0,0,0
3.93,0.09848,1.48540,0.00260,0.00811,0.00074,0.00057,0.00060,0.00103,0.00412,0.00089,0,0,0,0,0
3.94,0.09839,1.48492,0.00223,0.00926,0.00068,0.00056,0.00059,0.00138,0.00443,0.00079,0,0,0,0,0
3.95,0.09715,1.48068,0.00270,0.01038,0.00064,0.00054,0.00057,0.00157,0.00320,0.00071,0,0,0,0,0
3.96,0.09708,1.44220,0.00513,0.01038,0.00064,0.00056,0.00066,0.00142,0.00397,0.00075,0,0,0,0,0
3.97,0.09784,1.34654,0.00733,0.01009,0.00068,0.00060,0.00073,0.00128,0.00381,0.00079,0,0,1,0,0
3.98,0.09715,1.20222,0.00577,0.01138,0.00067,0.00058,0.00075,0.00122,0.00473,0.00071,0,0,0,0,0
3.99,0.09785,0.99763,0.00822,0.01044,0.00065,0.00058,0.00070,0.00127,0.00366,0.00072,0,0,0,0,0
4.00,0.09777,0.76704,0.00842,0.00913,0.00066,0.00060,0.00059,0.00127,0.00381,0.00073,0,0,0,0,0
4.01,0.09753,0.48299,0.00319,0.00606,0.00061,0.00058,0.00055,0.00092,0.00366,0.00087,0,0,0,0,0
4.02,0.09711,0.21173,0.00222,0.00064,0.00062,0.00058,0.00084,0.00072,0.00549,0.00086,0,0,0,0,1
4.03,0.09607,-0.09946,0.00158,0.00064,0.00067,0.00059,0.00084,0.00076,0.00305,0.00109,0,0,0,0,0
4.04,0.09571,-0.40216,0.00146,0.00068,0.00068,0.00058,0.00065,0.00082,0.00519,0.00196,0,0,0,0,0
4.05,0.09577,-0.66893,0.00125,0.00074,0.00067,0.00054,0.00090,0.00095,0.00458,0.00260,0,0,0,0,0
4.06,0.09724,-0.92995,0.00092,0.00118,0.00069,0.00053,0.00103,0.00078,0.00366,0.00189,0,0,0,0,0
4.07,0.09833,-1.13377,0.00095,0.00191,0.00074,0.00057,0.00100,0.00075,0.00259,0.00170,0,0,0,0,0
4.08,0.09902,-1.30582,0.00068,0.00163,0.00071,0.00061,0.00127,0.00074,0.00305,0.00173,0,0,0,0,0
4.09,0.09940,-1.42461,0.00067,0.00120,0.00071,0.00056,0.00128,0.00059,0.00381,0.00102,0,0,0,0,0
4.10,0.09886,-1.46931,0.00052,0.00127,0.00075,0.00053,0.00112,0.00064,0.00305,0.00091,0,0,0,0,0
4.11,0.09852,-1.48067,0.00050,0.00135,0.00068,0.00055,0.00119,0.00065,0.00381,0.00075,0,0,0,0,0
4.12,0.09772,-1.47783,0.00051,0.00154,0.00061,0.00053,0.00118,0.00069,0.00366,0.00107,0,0,0,0,0
4.13,0.09763,-1.47887,0.00053,0.00199,0.00064,0.00052,0.00124,0.00071,0.00305,0.00111,0,0,0,0,0
4.14,0.09711,-1.47919,0.00062,0.00169,0.00065,0.00050,0.00131,0.00057,0.00412,0.00099,0,0,0,0,0
4.15,0.09682,-1.47986,0.00061,0.00115,0.00065,0.00050,0.00124,0.00058,0.00229,0.00129,0,0,0,0,0
4.16,0.09729,-1.48143,0.00055,0.00115,0.00068,0.00053,0.00147,0.00062,0.00275,0.00123,0,0,0,0,0
4.17,0.09755,-1.48076,0.00053,0.00169,0.00072,0.00055,0.00138,0.00059,0.00412,0.00118,0,0,0,0,0
4.18,0.09775,-1.48041,0.00052,0.00168,0.00074,0.00057,0.00122,0.00061,0.00305,0.00111,0,0,0,0,0
4.19,0.09822,-1.47940,0.00059,0.00179,0.00072,0.00061,0.00129,0.00060,0.00290,0.00099,0,0,0,0,0
4.20,0.09843,-1.47983,0.00062,0.00188,0.00072,0.00060,0.00113,0.00059,0.00412,0.00108,0,0,0,0,0
4.21,0.09812,-1.47995,0.00061,0.00158,0.00073,0.00054,0.00117,0.00062,0.00229,0.00101,0,0,0,0,0
4.22,0.09821,-1.47792,0.00060,0.00149,0.00073,0.00048,0.00129,0.00060,0.00366,0.00098,0,0,0,0,0
4.23,0.09831,-1.48064,0.00054,0.00146,0.00075,0.00051,0.00127,0.00060,0.00427,0.00108,0,0,0,0,0
4.24,0.09868,-1.47981,0.00053,0.00145,0.00077,0.00055,0.00109,0.00058,0.00458,0.00131,0,0,0,0,0
4.25,0.09839,-1.47739,0.00062,0.00113,0.00084,0.00053,0.00093,0.00052,0.00397,0.00141,0,0,0,0,0
4.26,0.09812,-1.47961,0.00063,0.00121,0.00082,0.00054,0.00097,0.00055,0.00244,0.00138,0,0,0,0,0
4.27,0.09786,-1.47803,0.00053,0.00089,0.00069,0.00055,0.00096,0.00060,0.00305,0.00127,0,0,0,0,0
4.28,0.09813,-1.47948,0.00052,0.00132,0.00068,0.00055,0.00093,0.00063,0.00320,0.00101,0,0,0,0,0
4.29,0.09797,-1.48048,0.00055,0.00135,0.00070,0.00058,0.00111,0.00065,0.00397,0.00105,0,0,0,0,0
4.30,0.09776,-1.48093,0.00055,0.00077,0.00066,0.00058,0.00108,0.00064,0.00381,0.00103,0,0,0,0,0
4.31,0.09800,-1.47911,0.00058,0.00076,0.00077,0.00051,0.00113,0.00059,0.00366,0.00130,0,0,0,0,0
4.32,0.09766,-1.47716,0.00061,0.00075,0.00083,0.00051,0.00106,0.00061,0.00305,0.00166,0,0,0,0,0
4.33,0.09812,-1.47948,0.00055,0.00093,0.00078,0.00057,0.00123,0.00064,0.00305,0.00142,0,0,0,0,0
4.34,0.09785,-1.47897,0.00055,0.00113,0.00080,0.00055,0.00135,0.00071,0.00458,0.00120,0,0,0,0,0
4.35,0.09840,-1.48056,0.00060,0.00122,0.00096,0.00107,0.00104,0.00080,0.00381,0.00120,0,0,0,0,0
4.36,0.09802,-1.47954,0.00065,0.00131,0.00104,0.00153,0.00102,0.00087,0.00488,0.00144,0,0,0,0,0
4.37,0.09802,-1.48056,0.00064,0.00114,0.00096,0.00146,0.00108,0.00086,0.00366,0.00148,0,0,0,0,0
4.38,0.09745,-1.47893,0.00059,0.00079,0.00086,0.00104,0.00091,0.00073,0.00198,0.00101,0,0,0,0,0
4.39,0.09807,-1.48116,0.00064,0.00079,0.00079,0.00083,0.00086,0.00068,0.00534,0.00093,0,0,0,0,0
4.40,0.09755,-1.47762,0.00074,0.00116,0.00088,0.00107,0.00078,0.00066,0.00336,0.00119,0,0,0,0,0
4.41,0.09751,-1.48079,0.00165,0.00158,0.00092,0.00106,0.00063,0.00064,0.00549,0.00105,0,0,0,0,0
4.42,0.09714,-1.47862,0.00413,0.00299,0.00085,0.00089,0.00075,0.00060,0.00351,0.00101,0,0,0,0,0
4.43,0.09667,-1.47926,0.00697,0.01124,0.00079,0.00068,0.00159,0.00093,0.00320,0.00128,0,0,0,0,0
4.44,0.09676,-1.47977,0.00835,0.01346,0.00072,0.00058,0.00181,0.00244,0.00198,0.00151,0,0,0,0,0
4.45,0.09686,-1.48517,0.00845,0.01169,0.00065,0.00053,0.00130,0.00269,0.00473,0.00152,0,0,0,1,0
4.46,0.09633,-1.48016,0.00708,0.01366,0.00065,0.00058,0.00117,0.00271,0.00443,0.00179,0,0,0,0,0
4.47,0.09586,-1.47949,0.00691,0.01165,0.00064,0.00061,0.00084,0.00318,0.00244,0.00201,0,0,0,0,0
4.48,0.09638,-1.47969,0.00754,0.01214,0.00066,0.00059,0.00063,0.00243,0.00412,0.00162,0,0,0,0,0
4.49,0.09787,-1.47955,0.00532,0.01286,0.00066,0.00062,0.00058,0.00238,0.00397,0.00149,0,0,0,0,0
4.50,0.09875,-1.48090,0.00604,0.01581,0.00069,0.00066,0.00057,0.00266,0.00381,0.00180,0,0,0,0,0
4.51,0.09785,-1.47926,0.00782,0.01708,0.00075,0.00064,0.00057,0.00199,0.00351,0.00185,0,0,0,0,0
4.52,0.09695,-1.47917,0.00654,0.01389,0.00085,0.00071,0.00058,0.00102,0.00381,0.00156,0,0,0,0,0
4.53,0.09733,-1.47906,0.00317,0.01037,0.00086,0.00078,0.00067,0.00094,0.00275,0.00131,0,0,0,0,0
4.54,0.09748,-1.47754,0.00055,0.00747,0.00075,0.00073,0.00071,0.00126,0.00443,0.00115,0,0,0,0,0
4.55,0.09772,-1.47971,0.00062,0.00439,0.00069,0.00064,0.00074,0.00128,0.00366,0.00101,0,0,0,0,1
4.56,0.09817,-1.48042,0.00061,0.00141,0.00069,0.00056,0.00103,0.00106,0.00381,0.00189,0,0,0,0,0
4.57,0.09840,-1.48045,0.00060,0.00083,0.00073,0.00064,0.00123,0.00080,0.00336,0.00293,0,0,0,0,0
4.58,0.09832,-1.48343,0.00058,0.00076,0.00072,0.00066,0.00126,0.00077,0.00366,0.00246,0,0,0,0,0
4.59,0.09825,-1.48009,0.00054,0.00074,0.00069,0.00057,0.00119,0.00084,0.00259,0.00177,0,0,0,0,0
4.60,0.09793,-1.48134,0.00056,0.00085,0.00080,0.00055,0.00100,0.00078,0.00381,0.00129,0,0,0,0,0
4.61,0.09742,-1.47743,0.00059,0.00101,0.00082,0.00060,0.00085,0.00075,0.00366,0.00156,0,0,0,0,0
4.62,0.09719,-1.47961,0.00056,0.00098,0.00069,0.00069,0.00109,0.00075,0.00504,0.00204,0,0,0,0,0
4.63,0.09642,-1.47946,0.00055,0.00076,0.00064,0.00069,0.00135,0.00069,0.00336,0.00174,0,0,0,0,0
4.64,0.09620,-1.48148,0.00059,0.00071,0.00065,0.00060,0.00148,0.00062,0.00885,0.00152,0,0,0,0,0
4.65,0.09696,-1.47958,0.00061,0.00062,0.00068,0.00053,0.00138,0.00058,0.00275,0.00167,0,0,0,0,0
4.66,0.09727,-1.48267,0.00058,0.00066,0.00072,0.00060,0.00122,0.00061,0.00717,0.00190,0,0,0,0,0
4.67,0.09694,-1.48137,0.00055,0.00070,0.00077,0.00063,0.00166,0.00060,0.00381,0.00156,0,0,0,0,0
4.68,0.09701,-1.47931,0.00053,0.00068,0.00074,0.00058,0.00163,0.00065,0.00488,0.00175,0,0,0,0,0
4.69,0.09693,-1.47858,0.00055,0.00063,0.00073,0.00060,0.00146,0.00074,0.00183,0.00186,0,0,0,0,0
4.70,0.09634,-1.47917,0.00059,0.00059,0.00073,0.00061,0.00159,0.00075,0.00290,0.00157,0,0,0,0,0
4.71,0.09658,-1.47928,0.00061,0.00067,0.00074,0.00060,0.00156,0.00073,0.00320,0.00189,0,0,0,0,0
4.72,0.09714,-1.47871,0.00066,0.00065,0.00074,0.00064,0.00148,0.00075,0.00275,0.00199,0,0,0,0,0
4.73,0.09682,-1.48068,0.00068,0.00065,0.00073,0.00064,0.00125,0.00074,0.00229,0.00168,0,0,0,0,0
4.74,0.09669,-1.48167,0.00060,0.00085,0.00082,0.00062,0.00099,0.00068,0.00610,0.00119,0,0,0,0,0
4.75,0.09672,-1.47972,0.00059,0.00098,0.00088,0.00066,0.00101,0.00068,0.00351,0.00109,0,0,0,0,0
4.76,0.09664,-1.47939,0.00059,0.00090,0.00084,0.00065,0.00113,0.00066,0.00336,0.00123,0,0,0,0,0
4.77,0.09709,-1.47922,0.00081,0.00124,0.00083,0.00061,0.00105,0.00064,0.00336,0.00102,0,0,0,0,0
4.78,0.09749,-1.47951,0.00482,0.00812,0.00074,0.00066,0.00109,0.00067,0.00732,0.00099,0,0,0,0,0
4.79,0.09687,-1.47899,0.00719,0.01262,0.00065,0.00066,0.00115,0.00090,-0.00046,0.00187,0,0,0,0,0
4.80,0.09615,-1.48090,0.00513,0.01391,0.00069,0.00061,0.00169,0.00154,0.00320,0.00331,0,0,0,1,0
4.81,0.09591,-1.47913,0.00598,0.01837,0.00074,0.00061,0.00184,0.00217,0.00031,0.00421,0,0,0,0,0
4.82,0.09649,-1.47980,0.00697,0.01731,0.00072,0.00054,0.00128,0.00278,0.00153,0.00440,0,0,0,0,0
4.83,0.09728,-1.48062,0.00440,0.01384,0.00066,0.00051,0.00106,0.00282,0.00183,0.00342,0,0,0,0,0
4.84,0.09814,-1.47989,0.00267,0.01476,0.00070,0.00058,0.00092,0.00300,0.00626,0.00213,0,0,0,0,0
4.85,0.09744,-1.47943,0.00262,0.01310,0.00077,0.00062,0.00077,0.00261,0.00397,0.00145,0,0,0,0,0
4.86,0.09702,-1.48070,0.00225,0.01035,0.00076,0.00063,0.00071,0.00168,0.00366,0.00095,0,0,0,0,0
4.87,0.09713,-1.48007,0.00247,0.01027,0.00072,0.00062,0.00066,0.00148,0.00381,0.00085,0,0,0,0,0
4.88,0.09684,-1.48071,0.00306,0.01119,0.00067,0.00057,0.00055,0.00105,0.00443,0.00088,0,0,0,0,0
4.89,0.09692,-1.47835,0.00373,0.01157,0.00069,0.00057,0.00056,0.00083,0.00214,0.00118,0,0,0,0,0
4.90,0.09688,-1.47974,0.00236,0.00602,0.00079,0.00063,0.00058,0.00077,0.00320,0.00139,0,0,0,0,0
4.91,0.09659,-1.48125,0.00072,0.00265,0.00081,0.00065,0.00061,0.00069,0.00381,0.00114,0,0,0,0,0
4.92,0.09636,-1.48106,0.00063,0.00309,0.00073,0.00063,0.00067,0.00091,0.00305,0.00091,0,0,0,0,0
4.93,0.09717,-1.47914,0.00057,0.00175,0.00068,0.00061,0.00087,0.00109,0.00534,0.00189,0,0,0,0,1
4.94,0.09739,-1.47910,0.00061,0.00085,0.00071,0.00059,0.00104,0.00097,0.00412,0.00291,0,0,0,0,0
4.95,0.09834,-1.48076,0.00060,0.00084,0.00075,0.00064,0.00126,0.00081,0.00290,0.00277,0,0,0,0,0
4.96,0.09842,-1.47844,0.00056,0.00105,0.00090,0.00109,0.00139,0.00082,0.00351,0.00173,0,0,0,0,0
4.97,0.09867,-1.47998,0.00056,0.00107,0.00088,0.00112,0.00110,0.00071,0.00214,0.00088,0,0,0,0,0
4.98,0.09753,-1.47913,0.00057,0.00094,0.00075,0.00062,0.00164,0.00070,0.00366,0.00140,0,0,0,0,0
4.99,0.09718,-1.47906,0.00063,0.00085,0.00070,0.00056,0.00188,0.00075,0.00351,0.00195,0,0,0,0,0
5.00,0.09695,-1.47971,0.00058,0.00071,0.00074,0.00057,0.00127,0.00075,0.00397,0.00204,0,0,0,0,0
5.01,0.09676,-1.47939,0.00053,0.00068,0.00081,0.00057,0.00130,0.00075,0.00504,0.00183,0,0,0,0,0
5.02,0.09701,-1.48090,0.00057,0.00063,0.00085,0.00064,0.00155,0.00074,0.00458,0.00176,0,0,0,0,0
5.03,0.09707,-1.48056,0.00063,0.00065,0.00086,0.00062,0.00186,0.00075,0.00183,0.00196,0,0,0,0,0
5.04,0.09667,-1.48007,0.00062,0.00072,0.00083,0.00067,0.00186,0.00071,0.00229,0.00217,0,0,0,0,0
5.05,0.09724,-1.47974,0.00060,0.00069,0.00075,0.00066,0.00230,0.00070,0.00595,0.00260,0,0,0,0,0
5.06,0.09724,-1.47792,0.00058,0.00065,0.00068,0.00054,0.00301,0.00074,0.00427,0.00328,0,0,0,0,0
5.07,0.09636,-1.47995,0.00056,0.00072,0.00072,0.00053,0.00304,0.00071,0.00351,0.00326,0,0,0,0,0
5.08,0.09579,-1.47987,0.00080,0.00122,0.00081,0.00063,0.00272,0.00067,0.00214,0.00262,0,0,0,0,0
5.09,0.09612,-1.47926,0.00097,0.00128,0.00077,0.00065,0.00246,0.00071,0.00458,0.00193,0,0,0,0,0
5.10,0.09655,-1.48285,0.00076,0.00076,0.00069,0.00062,0.00249,0.00068,0.00458,0.00134,0,0,0,0,0
5.11,0.09645,-1.48026,0.00068,0.00068,0.00073,0.00062,0.00321,0.00071,0.00275,0.00117,0,0,0,0,0
5.12,0.09658,-1.47949,0.00073,0.00063,0.00072,0.00057,0.00256,0.00075,0.00275,0.00114,0,0,0,0,0
5.13,0.09736,-1.47845,0.00062,0.00064,0.00068,0.00057,0.00172,0.00069,0.00153,0.00106,0,0,0,0,0
5.14,0.09751,-1.48055,0.00049,0.00071,0.00075,0.00065,0.00249,0.00067,0.00778,0.00080,0,0,0,0,0
5.15,0.09768,-1.47905,0.00062,0.00076,0.00074,0.00064,0.00226,0.00063,0.00397,0.00079,0,0,0,0,0
5.16,0.09690,-1.47897,0.00177,0.00468,0.00072,0.00067,0.00167,0.00056,0.00610,0.00107,0,1,0,0,0
5.17,0.09683,-1.44525,0.00406,0.01052,0.00069,0.00071,0.00127,0.00058,0.00427,0.00113,0,0,0,0,0
5.18,0.09838,-1.36540,0.00375,0.00979,0.00065,0.00057,0.00120,0.00125,-0.00305,0.00244,0,0,0,0,0
5.19,0.09949,-1.22401,0.00493,0.00706,0.00070,0.00062,0.00139,0.00156,-0.00305,0.00324,0,0,0,1,0
5.20,0.09880,-1.02904,0.00716,0.00888,0.00073,0.00063,0.00171,0.00220,0.00412,0.00243,0,0,0,0,0
5.21,0.09816,-0.80556,0.00769,0.01119,0.00074,0.00058,0.00173,0.00357,0.00580,0.00184,0,0,0,0,0
5.22,0.09710,-0.53242,0.00683,0.00794,0.00071,0.00056,0.00132,0.00271,0.00305,0.00144,0,0,0,0,0
5.23,0.09719,-0.25568,0.00301,0.00315,0.00071,0.00052,0.00127,0.00118,0.00183,0.00239,0,0,0,0,1
5.24,0.09848,0.02747,0.00104,0.00367,0.00073,0.00054,0.00103,0.00078,0.00519,0.00293,0,0,0,0,0
5.25,0.09911,0.33292,0.00094,0.00332,0.00070,0.00060,0.00085,0.00081,0.00214,0.00223,0,0,0,0,0
5.26,0.09814,0.60756,0.00061,0.00149,0.00062,0.00061,0.00079,0.00080,0.00168,0.00134,0,0,0,0,0
5.27,0.09705,0.86827,0.00076,0.00297,0.00060,0.00063,0.00099,0.00061,0.00351,0.00134,0,0,0,0,0
5.28,0.09690,1.09164,0.00095,0.00274,0.00065,0.00054,0.00097,0.00065,0.00397,0.00217,0,0,0,0,0
5.29,0.09727,1.26302,0.00090,0.00299,0.00068,0.00053,0.00073,0.00071,0.00458,0.00188,0,0,0,0,0
5.30,0.09936,1.38683,0.00151,0.00615,0.00072,0.00070,0.00091,0.00082,0.00198,0.00143,0,0,0,0,0
5.31,0.10003,1.46410,0.00130,0.00423,0.00074,0.00080,0.00089,0.00075,0.00275,0.00148,0,0,0,0,0
5.32,0.09933,1.48276,0.00144,0.00533,0.00076,0.00077,0.00068,0.00064,0.00443,0.00145,0,0,0,0,0
5.33,0.09929,1.48404,0.00254,0.00856,0.00074,0.00070,0.00062,0.00066,0.00397,0.00136,0,0,0,0,0
5.34,0.10023,1.48375,0.00442,0.01358,0.00073,0.00062,0.00065,0.00058,0.00473,0.00087,0,0,0,0,0
5.35,0.10038,1.48500,0.00871,0.01781,0.00076,0.00063,0.00103,0.00127,0.00183,0.00120,0,0,0,0,0
5.36,0.10013,1.48405,0.00695,0.01251,0.00070,0.00059,0.00135,0.00183,0.00290,0.00152,0,0,0,0,0
5.37,0.09981,1.48381,0.00155,0.00633,0.00068,0.00048,0.00114,0.00122,0.00488,0.00143,0,0,0,0,0
5.38,0.09913,1.48381,0.00131,0.00511,0.00073,0.00054,0.00082,0.00117,0.00198,0.00184,0,0,0,0,0
5.39,0.09851,1.48335,0.00177,0.00359,0.00072,0.00057,0.00086,0.00128,0.00183,0.00273,0,0,0,0,0
5.40,0.09886,1.48476,0.00151,0.00431,0.00073,0.00057,0.00091,0.00076,0.00473,0.00226,0,0,0,0,0
5.41,0.09877,1.48518,0.00107,0.00492,0.00071,0.00059,0.00107,0.00057,0.00381,0.00166,0,0,0,0,0
5.42,0.09882,1.47729,0.00072,0.00457,0.00074,0.00062,0.00123,0.00063,0.00275,0.00239,0,0,0,0,0
5.43,0.09778,1.48514,0.00083,0.00521,0.00081,0.00067,0.00091,0.00073,0.00412,0.00219,0,0,0,0,0
5.44,0.09708,1.48451,0.00072,0.00367,0.00077,0.00063,0.00094,0.00073,0.00381,0.00147,0,0,0,0,0
5.45,0.09729,1.48315,0.00054,0.00270,0.00069,0.00056,0.00105,0.00062,0.00290,0.00145,0,0,0,0,0
5.46,0.09802,1.48421,0.00051,0.00153,0.00067,0.00053,0.00087,0.00054,0.00290,0.00154,0,0,0,0,0
5.47,0.09828,1.48421,0.00052,0.00087,0.00070,0.00054,0.00095,0.00065,0.00320,0.00110,0,0,0,0,0
5.48,0.09710,1.48410,0.00052,0.00105,0.00070,0.00056,0.00102,0.00066,0.00336,0.00077,0,0,0,0,0
5.49,0.09674,1.48465,0.00094,0.00283,0.00068,0.00056,0.00086,0.00060,0.00046,0.00105,0,0,0,0,0
5.50,0.09655,1.48389,0.00222,0.01169,0.00065,0.00058,0.00074,0.00064,0.00336,0.00136,0,0,0,0,0
5.51,0.09645,1.48508,0.00995,0.02262,0.00064,0.00062,0.00107,0.00221,0.00610,0.00184,0,0,0,0,0
5.52,0.09702,1.48457,0.00897,0.01651,0.00064,0.00062,0.00118,0.00452,0.00275,0.00204,0,0,0,1,0
5.53,0.09733,1.48334,0.00181,0.01044,0.00063,0.00057,0.00073,0.00369,0.00488,0.00133,0,0,0,0,0
5.54,0.09698,1.48401,0.00256,0.01275,0.00067,0.00055,0.00059,0.00154,0.00412,0.00091,0,0,0,0,0
5.55,0.09755,1.48428,0.00201,0.00965,0.00075,0.00057,0.00059,0.00093,0.00336,0.00107,0,0,0,0,0
5.56,0.09675,1.48615,0.00212,0.00866,0.00075,0.00066,0.00052,0.00098,0.00397,0.00126,0,0,0,0,0
5.57,0.09662,1.48581,0.00321,0.01117,0.00074,0.00066,0.00052,0.00136,0.00320,0.00113,0,0,0,0,0
5.58,0.09797,1.48405,0.00202,0.00758,0.00079,0.00062,0.00059,0.00131,0.00351,0.00117,0,0,0,0,0
5.59,0.09854,1.48444,0.00060,0.00405,0.00072,0.00063,0.00072,0.00088,0.00275,0.00139,0,0,0,0,0
5.60,0.09856,1.48305,0.00060,0.00378,0.00066,0.00067,0.00090,0.00095,0.00107,0.00263,0,0,0,0,0
5.61,0.09727,1.48311,0.00061,0.00157,0.00071,0.00070,0.00103,0.00100,0.00412,0.00278,0,0,0,0,1
5.62,0.09647,1.48450,0.00059,0.00116,0.00072,0.00062,0.00108,0.00088,0.00336,0.00282,0,0,0,0,0
5.63,0.09669,1.48389,0.00055,0.00099,0.00067,0.00059,0.00134,0.00080,0.00336,0.00345,0,0,0,0,0
5.64,0.09672,1.48517,0.00053,0.00072,0.00066,0.00056,0.00130,0.00081,0.00259,0.00345,0,0,0,0,0
5.65,0.09711,1.48424,0.00051,0.00082,0.00072,0.00052,0.00121,0.00078,0.00381,0.00238,0,0,0,0,0
5.66,0.09691,1.48662,0.00056,0.00106,0.00069,0.00053,0.00126,0.00066,0.00275,0.00112,0,0,0,0,0
5.67,0.09649,1.48492,0.00060,0.00114,0.00075,0.00063,0.00098,0.00071,0.00519,0.00129,0,0,0,0,0
5.68,0.09667,1.48289,0.00053,0.00186,0.00088,0.00070,0.00087,0.00077,0.00366,0.00138,0,0,0,0,0
5.69,0.09722,1.48425,0.00054,0.00197,0.00087,0.00070,0.00093,0.00073,0.00519,0.00157,0,0,0,0,0
5.70,0.09712,1.48975,0.00060,0.00109,0.00077,0.00064,0.00092,0.00083,0.00305,0.00155,0,0,0,0,0
5.71,0.09722,1.48421,0.00054,0.00085,0.00076,0.00057,0.00102,0.00103,0.00290,0.00190,0,0,0,0,0
5.72,0.09715,1.48405,0.00056,0.00081,0.00081,0.00059,0.00135,0.00097,0.00305,0.00210,0,0,0,0,0
5.73,0.09677,1.48392,0.00061,0.00076,0.00079,0.00063,0.00143,0.00081,0.00504,0.00174,0,0,0,0,0
5.74,0.09690,1.48473,0.00059,0.00080,0.00075,0.00061,0.00156,0.00070,0.00336,0.00169,0,0,0,0,0
5.75,0.09718,1.48390,0.00056,0.00075,0.00072,0.00050,0.00160,0.00063,0.00580,0.00152,0,0,0,0,0
5.76,0.09742,1.48425,0.00060,0.00061,0.00070,0.00048,0.00174,0.00069,0.00473,0.00174,0,0,0,0,0
5.77,0.09771,1.48480,0.00060,0.00072,0.00069,0.00057,0.00242,0.00076,0.00336,0.00214,0,0,0,0,0
5.78,0.09751,1.48529,0.00058,0.00086,0.00073,0.00066,0.00215,0.00083,0.00671,0.00178,0,0,0,0,0
5.79,0.09810,1.48048,0.00061,0.00075,0.00079,0.00063,0.00172,0.00091,0.00397,0.00162,0,0,0,0,0
5.80,0.09853,1.48721,0.00059,0.00065,0.00076,0.00058,0.00170,0.00083,0.00214,0.00176,0,0,0,0,0
5.81,0.09910,1.48422,0.00058,0.00063,0.00068,0.00063,0.00121,0.00068,0.00336,0.00135,0,0,0,0,0
5.82,0.09830,1.48309,0.00077,0.00226,0.00068,0.00064,0.00089,0.00060,0.00504,0.00106,0,0,0,0,0
5.83,0.09804,1.48714,0.00122,0.00368,0.00077,0.00063,0.00087,0.00061,0.00381,0.00107,0,0,0,0,0
5.84,0.09729,1.48276,0.00110,0.00247,0.00098,0.00108,0.00134,0.00066,0.00320,0.00094,0,0,0,0,0
5.85,0.09724,1.48448,0.00070,0.00118,0.00102,0.00118,0.00143,0.00069,0.00519,0.00100,0,0,0,0,0
5.86,0.09798,1.48340,0.00086,0.00099,0.00080,0.00071,0.00086,0.00065,0.00336,0.00090,0,0,0,0,0
5.87,0.09871,1.48442,0.00263,0.00863,0.00074,0.00068,0.00124,0.00060,0.00381,0.00121,0,0,0,0,0
5.88,0.09845,1.48434,0.00392,0.01365,0.00077,0.00065,0.00183,0.00075,0.00137,0.00223,0,0,0,1,0
5.89,0.09839,1.48441,0.00287,0.01040,0.00077,0.00059,0.00178,0.00129,0.01999,0.00365,0,0,0,0,0
5.90,0.09772,1.48479,0.00225,0.00809,0.00074,0.00059,0.00154,0.00152,0.00351,0.00442,0,0,0,0,0
5.91,0.09738,1.48430,0.00177,0.00913,0.00068,0.00050,0.00123,0.00137,0.00885,0.00387,0,0,0,0,0
5.92,0.09795,1.49199,0.00194,0.01352,0.00061,0.00053,0.00128,0.00167,0.00641,0.00323,0,0,0,0,0
5.93,0.09806,1.48647,0.00229,0.01173,0.00061,0.00053,0.00105,0.00185,0.00229,0.00296,0,0,0,0,0
5.94,0.09846,1.48407,0.00199,0.00881,0.00067,0.00049,0.00096,0.00144,0.00076,0.00194,0,0,0,0,0
5.95,0.09862,1.48384,0.00205,0.00870,0.00067,0.00051,0.00108,0.00166,0.00381,0.00114,0,0,0,0,0
5.96,0.09841,1.48456,0.00176,0.00926,0.00065,0.00053,0.00077,0.00162,0.00305,0.00108,0,0,0,0,0
5.97,0.09793,1.48235,0.00204,0.01167,0.00063,0.00053,0.00055,0.00101,0.00214,0.00110,0,0,0,0,0
5.98,0.09746,1.48547,0.00295,0.01069,0.00063,0.00051,0.00051,0.00114,0.00366,0.00105,0,0,0,0,0
5.99,0.09721,1.48358,0.00311,0.00759,0.00065,0.00061,0.00053,0.00110,0.00275,0.00117,0,0,0,0,0
6.00,0.09796,1.48418,0.00180,0.00477,0.00075,0.00079,0.00068,0.00075,0.00412,0.00107,0,0,0,0,0
6.01,0.09120,1.48347,0.00072,0.00295,0.00091,0.00105,0.00086,0.00069,0.00336,0.00085,0,0,0,0,0
6.02,0.09773,1.48506,0.00061,0.00377,0.00093,0.00106,0.00074,0.00086,0.00290,0.00091,0,0,0,0,0
6.03,0.10246,1.48285,0.00052,0.00315,0.00083,0.00088,0.00072,0.00104,0.00244,0.00085,0,0,0,0,1
6.04,0.10061,1.48407,0.00054,0.00104,0.00083,0.00082,0.00095,0.00106,0.00229,0.00092,0,0,0,0,0
6.05,0.09753,1.48250,0.00054,0.00127,0.00087,0.00075,0.00134,0.00095,0.00565,0.00121,0,0,0,0,0
6.06,0.09582,1.48648,0.00059,0.00124,0.00088,0.00082,0.00145,0.00081,0.00549,0.00139,0,0,0,0,0
6.07,0.09623,1.48425,0.00064,0.00100,0.00087,0.00106,0.00147,0.00075,0.00320,0.00161,0,0,0,0,0
6.08,0.09647,1.48500,0.00061,0.00101,0.00082,0.00092,0.00150,0.00078,0.00198,0.00228,0,0,0,0,0
6.09,0.09636,1.48589,0.00057,0.00083,0.00079,0.00058,0.00153,0.00080,0.00656,0.00277,0,0,0,0,0
6.10,0.09678,1.48427,0.00057,0.00064,0.00081,0.00055,0.00165,0.00075,0.00443,0.00220,0,0,0,0,0
6.11,0.09707,1.48355,0.00060,0.00063,0.00079,0.00063,0.00175,0.00075,0.00031,0.00141,0,0,0,0,0
6.12,0.09603,1.48534,0.00058,0.00061,0.00075,0.00063,0.00215,0.00070,0.00137,0.00178,0,0,0,0,0
6.13,0.09561,1.48369,0.00058,0.00064,0.00076,0.00056,0.00347,0.00068,0.00305,0.00210,0,0,0,0,0
6.14,0.09639,1.48495,0.00057,0.00068,0.00073,0.00054,0.00303,0.00071,0.00107,0.00218,0,0,0,0,0
6.15,0.09726,1.48395,0.00056,0.00066,0.00068,0.00058,0.00172,0.00066,0.00214,0.00206,0,0,0,0,0
6.16,0.09846,1.48386,0.00060,0.00170,0.00073,0.00063,0.00152,0.00067,0.00305,0.00140,0,0,0,0,0
6.17,0.09867,1.48387,0.00165,0.00824,0.00073,0.00070,0.00087,0.00070,0.00290,0.00126,0,0,0,0,0
6.18,0.09934,1.48386,0.00252,0.01464,0.00072,0.00073,0.00126,0.00110,0.00183,0.00234,0,0,0,0,0
6.19,0.09925,1.48483,0.00268,0.01704,0.00071,0.00068,0.00157,0.00203,0.00641,0.00344,0,0,0,0,0
6.20,0.09846,1.49358,0.00227,0.01223,0.00083,0.00073,0.00134,0.00298,0.00473,0.00555,0,0,0,1,0
6.21,0.09858,1.48441,0.00229,0.00891,0.00084,0.00070,0.00122,0.00304,0.00229,0.00486,0,0,0,0,0
6.22,0.09836,1.48427,0.00245,0.01240,0.00071,0.00057,0.00102,0.00215,0.00351,0.00175,0,0,0,0,0
6.23,0.09823,1.48477,0.00196,0.00909,0.00067,0.00051,0.00077,0.00158,0.00305,0.00145,0,0,0,0,0
6.24,0.09703,1.48407,0.00205,0.00857,0.00068,0.00054,0.00059,0.00144,0.00443,0.00148,0,0,0,0,0
6.25,0.09643,1.48405,0.00185,0.00860,0.00066,0.00055,0.00057,0.00123,0.00320,0.00115,0,0,0,0,0
6.26,0.09629,1.48378,0.00188,0.00964,0.00065,0.00056,0.00055,0.00120,0.00290,0.00094,0,0,0,0,0
6.27,0.09701,1.48528,0.00224,0.01139,0.00063,0.00056,0.00057,0.00102,0.00290,0.00103,0,0,0,0,0
6.28,0.09671,1.48540,0.00228,0.00944,0.00061,0.00055,0.00053,0.00090,0.00519,0.00112,0,0,0,0,0
6.29,0.09635,1.48529,0.00237,0.01015,0.00069,0.00058,0.00054,0.00091,0.00244,0.00099,0,0,0,0,0
6.30,0.09616,1.48309,0.00178,0.00877,0.00075,0.00060,0.00056,0.00076,0.00336,0.00095,0,0,0,0,0
6.31,0.09648,1.48280,0.00092,0.00461,0.00083,0.00066,0.00057,0.00078,0.00397,0.00095,0,0,0,0,0
6.32,0.09663,1.48418,0.00068,0.00288,0.00089,0.00077,0.00061,0.00079,0.00366,0.00102,0,0,0,0,0
6.33,0.09696,1.48384,0.00053,0.00280,0.00076,0.00074,0.00064,0.00089,0.00290,0.00098,0,0,0,0,0
6.34,0.09681,1.48328,0.00056,0.00164,0.00068,0.00062,0.00084,0.00098,0.00320,0.00106,0,0,0,0,0
6.35,0.09601,1.48380,0.00059,0.00117,0.00078,0.00063,0.00091,0.00098,0.00336,0.00148,0,0,0,0,1
6.36,0.09493,1.48650,0.00060,0.00115,0.00075,0.00066,0.00084,0.00116,0.00458,0.00162,0,0,0,0,0
6.37,0.09448,1.48506,0.00058,0.00123,0.00072,0.00070,0.00080,0.00109,0.00427,0.00145,0,0,0,0,0
6.38,0.09422,1.48434,0.00056,0.00103,0.00074,0.00065,0.00087,0.00084,0.00427,0.00164,0,0,0,0,0
6.39,0.09383,1.48401,0.00055,0.00080,0.00064,0.00055,0.00124,0.00073,0.00351,0.00253,0,0,0,0,0
6.40,0.09373,1.48416,0.00059,0.00064,0.00069,0.00058,0.00134,0.00073,0.00275,0.00327,0,0,0,0,0
6.41,0.09400,1.48521,0.00061,0.00066,0.00073,0.00059,0.00120,0.00075,0.00320,0.00356,0,0,0,0,0
6.42,0.09487,1.48418,0.00063,0.00070,0.00073,0.00054,0.00147,0.00073,0.00366,0.00453,0,0,0,0,0
6.43,0.09505,1.48486,0.00062,0.00105,0.00077,0.00054,0.00195,0.00065,0.00732,0.00469,0,0,0,0,0
6.44,0.09547,1.48416,0.00059,0.00103,0.00075,0.00053,0.00190,0.00064,0.00809,0.00525,0,0,0,0,0
6.45,0.09577,1.48370,0.00061,0.00077,0.00070,0.00056,0.00154,0.00065,0.00519,0.00578,0,0,0,0,0
6.46,0.09533,1.48238,0.00074,0.00089,0.00067,0.00056,0.00184,0.00063,0.00305,0.00595,0,0,0,0,0
6.47,0.09516,1.48308,0.00075,0.00120,0.00068,0.00052,0.00281,0.00060,0.00336,0.00646,0,0,0,0,0
6.48,0.09610,1.48462,0.00057,0.00108,0.00073,0.00056,0.00365,0.00066,0.00214,0.00593,0,0,0,0,0
6.49,0.09667,1.48480,0.00057,0.00060,0.00076,0.00057,0.00413,0.00070,0.00092,0.00612,0,0,0,0,0
6.50,0.09679,1.48509,0.00064,0.00063,0.00073,0.00053,0.00417,0.00061,0.00366,0.00649,0,0,0,0,0
6.51,0.09765,1.48503,0.00063,0.00059,0.00065,0.00054,0.00423,0.00070,0.00031,0.00425,0,0,0,0,0
6.52,0.09806,1.47981,0.00059,0.00058,0.00067,0.00067,0.00464,0.00076,0.00305,0.00266,0,0,0,0,0
6.53,0.09815,1.48534,0.00057,0.00068,0.00082,0.00092,0.00309,0.00068,0.00351,0.00212,0,0,0,0,0
6.54,0.09821,1.48424,0.00078,0.00318,0.00082,0.00091,0.00252,0.00065,0.00290,0.00131,0,0,0,0,0
6.55,0.09875,1.48477,0.00320,0.01450,0.00070,0.00067,0.00239,0.00067,0.00397,0.00255,0,0,0,0,0
6.56,0.09837,1.48552,0.00616,0.01666,0.00070,0.00059,0.00150,0.00149,0.00732,0.00473,0,0,0,1,0
6.57,0.09767,1.48201,0.00448,0.01119,0.00072,0.00053,0.00138,0.00176,0.00366,0.00536,0,0,0,0,0
6.58,0.09677,1.48450,0.00174,0.01147,0.00071,0.00052,0.00088,0.00106,0.00565,0.00351,0,0,0,0,0
6.59,0.09665,1.48149,0.00172,0.01275,0.00064,0.00057,0.00100,0.00128,0.00397,0.00243,0,0,0,0,0
6.60,0.09782,1.48351,0.00227,0.01042,0.00068,0.00057,0.00082,0.00153,0.00366,0.00196,0,0,0,0,0
6.61,0.09857,1.47943,0.00240,0.00849,0.00077,0.00056,0.00053,0.00127,0.00412,0.00116,0,0,0,0,0
6.62,0.09863,1.48448,0.00230,0.01013,0.00078,0.00052,0.00056,0.00110,0.00244,0.00094,0,0,0,0,0
6.63,0.09809,1.48354,0.00188,0.00819,0.00074,0.00058,0.00058,0.00079,0.00366,0.00099,0,0,0,0,0
6.64,0.09721,1.48227,0.00102,0.00630,0.00072,0.00070,0.00056,0.00065,0.00381,0.00156,0,0,0,0,0
6.65,0.09668,1.48460,0.00056,0.00332,0.00082,0.00066,0.00061,0.00080,0.00351,0.00181,0,0,0,0,0
6.66,0.09724,1.48390,0.00048,0.00250,0.00082,0.00065,0.00071,0.00117,0.00504,0.00126,0,0,0,0,0
6.67,0.09794,1.48460,0.00052,0.00308,0.00076,0.00069,0.00075,0.00121,0.00366,0.00094,0,0,0,0,0
6.68,0.09716,1.48427,0.00062,0.00174,0.00081,0.00067,0.00080,0.00096,0.00412,0.00128,0,0,0,0,1
6.69,0.09711,1.48463,0.00059,0.00101,0.00076,0.00079,0.00100,0.00087,0.00290,0.00118,0,0,0,0,0
6.70,0.09698,1.48544,0.00057,0.00095,0.00073,0.00077,0.00133,0.00078,0.00168,0.00108,0,0,0,0,0
6.71,0.09660,1.48546,0.00055,0.00093,0.00073,0.00063,0.00117,0.00069,0.00381,0.00159,0,0,0,0,0
6.72,0.09656,1.48462,0.00057,0.00085,0.00071,0.00058,0.00116,0.00073,0.00458,0.00230,0,0,0,0,0
6.73,0.09685,1.48453,0.00061,0.00073,0.00073,0.00053,0.00164,0.00090,0.00259,0.00444,0,0,0,0,0
6.74,0.09642,1.48367,0.00055,0.00068,0.00077,0.00051,0.00163,0.00090,0.00443,0.00610,0,0,0,0,0
6.75,0.09699,1.48500,0.00060,0.00112,0.00076,0.00052,0.00133,0.00086,0.00610,0.00728,0,0,0,0,0
6.76,0.09748,1.48326,0.00059,0.00112,0.00073,0.00060,0.00175,0.00084,0.00427,0.00669,0,0,0,0,0
6.77,0.09735,1.48401,0.00057,0.00110,0.00075,0.00063,0.00203,0.00080,0.00809,0.00544,0,0,0,0,0
6.78,0.09770,1.48358,0.00060,0.00108,0.00072,0.00062,0.00227,0.00083,0.00244,0.00688,0,0,0,0,0
6.79,0.09776,1.48463,0.00060,0.00065,0.00069,0.00056,0.00250,0.00079,0.00214,0.00756,0,0,0,0,0
6.80,0.09867,1.48189,0.00057,0.00067,0.00074,0.00049,0.00182,0.00075,0.00381,0.00950,0,0,0,0,0
6.81,0.09850,1.48390,0.00059,0.00115,0.00074,0.00049,0.00243,0.00081,0.00488,0.00973,0,0,0,0,0
6.82,0.09868,1.48424,0.00080,0.00133,0.00067,0.00055,0.00371,0.00076,0.00076,0.00833,0,0,0,0,0
6.83,0.09883,1.48471,0.00084,0.00089,0.00064,0.00056,0.00513,0.00076,0.00748,0.00824,0,0,0,0,0
6.84,0.09877,1.48447,0.00067,0.00084,0.00064,0.00053,0.00586,0.00077,0.00565,0.00833,0,0,0,0,0
6.85,0.09893,1.48343,0.00080,0.00087,0.00066,0.00052,0.00554,0.00069,0.00153,0.00856,0,0,0,0,0
6.86,0.09931,1.44705,0.00078,0.00265,0.00073,0.00052,0.00560,0.00070,0.00458,0.00804,0,0,0,0,0
6.87,0.09997,1.35663,0.00066,0.00552,0.00070,0.00062,0.00526,0.00072,0.00168,0.00662,0,0,1,0,0
6.88,0.09918,1.20163,0.00165,0.01065,0.00067,0.00070,0.00297,0.00074,0.00305,0.00453,0,0,0,0,0
6.89,0.09957,1.01471,0.00404,0.01544,0.00071,0.00064,0.00146,0.00082,0.00351,0.00424,0,0,0,0,0
6.90,0.09875,0.76747,0.00382,0.01509,0.00070,0.00059,0.00160,0.00083,-0.00198,0.00442,0,0,0,1,0
6.91,0.09920,0.51176,0.00433,0.01186,0.00064,0.00061,0.00108,0.00104,0.01266,0.00380,0,0,0,0,0
6.92,0.09813,0.21025,0.00374,0.01021,0.00064,0.00058,0.00069,0.00106,0.00366,0.00253,0,0,0,0,0
6.93,0.09667,-0.07402,0.00116,0.01026,0.00068,0.00055,0.00054,0.00099,0.00458,0.00143,0,0,0,0,0
6.94,0.09745,-0.38165,0.00244,0.00919,0.00070,0.00056,0.00056,0.00104,0.00381,0.00107,0,0,0,0,0
6.95,0.09759,-0.67043,0.00206,0.00505,0.00072,0.00058,0.00053,0.00087,0.00412,0.00180,0,0,0,0,0
6.96,0.09733,-0.91138,0.00059,0.00098,0.00068,0.00060,0.00053,0.00069,0.00519,0.00207,0,0,0,0,0
6.97,0.09574,-1.13535,0.00104,0.00422,0.00073,0.00062,0.00054,0.00080,0.00473,0.00145,0,0,0,0,0
6.98,0.09533,-1.29552,0.00140,0.00440,0.00080,0.00065,0.00064,0.00101,0.00458,0.00111,0,0,0,0,1
6.99,0.09568,-1.41586,0.00106,0.00163,0.00074,0.00068,0.00106,0.00109,0.00259,0.00125,0,0,0,0,0
7.00,0.09577,-1.47229,0.00070,0.00159,0.00072,0.00062,0.00121,0.00100,0.00458,0.00206,0,0,0,0,0
7.01,0.09610,-1.48079,0.00058,0.00101,0.00075,0.00058,0.00145,0.00074,0.00275,0.00239,0,0,0,0,0
7.02,0.09788,-1.47879,0.00054,0.00143,0.00075,0.00059,0.00163,0.00067,0.00366,0.00343,0,0,0,0,0
7.03,0.09778,-1.47914,0.00052,0.00351,0.00071,0.00059,0.00133,0.00082,0.00381,0.00314,0,0,0,0,0
7.04,0.09773,-1.47884,0.00057,0.00338,0.00073,0.00056,0.00147,0.00088,0.00275,0.00157,0,0,0,0,0
7.05,0.09735,-1.47809,0.00062,0.00129,0.00072,0.00054,0.00129,0.00070,0.00061,0.00133,0,0,0,0,0
7.06,0.09803,-1.47929,0.00058,0.00301,0.00070,0.00053,0.00113,0.00065,0.00458,0.00197,0,0,0,0,0
7.07,0.09764,-1.48064,0.00055,0.00412,0.00070,0.00050,0.00156,0.00061,0.00275,0.00360,0,0,0,0,0
7.08,0.09625,-1.47939,0.00055,0.00481,0.00066,0.00050,0.00155,0.00060,0.00168,0.00258,0,0,0,0,0
7.09,0.09514,-1.48021,0.00058,0.00381,0.00070,0.00053,0.00142,0.00065,0.00244,0.00152,0,0,0,0,0
7.10,0.09628,-1.48061,0.00058,0.00124,0.00072,0.00055,0.00147,0.00066,0.00290,0.00353,0,0,0,0,0
7.11,0.09712,-1.48010,0.00056,0.00183,0.00065,0.00058,0.00163,0.00064,0.00351,0.00357,0,0,0,0,0
7.12,0.09863,-1.47855,0.00056,0.00134,0.00066,0.00057,0.00175,0.00065,0.00305,0.00303,0,0,0,0,0
7.13,0.09866,-1.47978,0.00056,0.00066,0.00069,0.00055,0.00149,0.00064,0.00320,0.00370,0,0,0,0,0
7.14,0.09887,-1.47997,0.00055,0.00123,0.00065,0.00053,0.00125,0.00061,0.00427,0.00270,0,0,0,0,0
7.15,0.09802,-1.48001,0.00058,0.00123,0.00069,0.00054,0.00140,0.00062,0.00259,0.00248,0,0,0,0,0
7.16,0.09763,-1.48210,0.00059,0.00118,0.00068,0.00053,0.00177,0.00069,0.00214,0.00339,0,0,0,0,0
7.17,0.09711,-1.47946,0.00058,0.00124,0.00068,0.00053,0.00155,0.00071,0.00214,0.00267,0,0,0,0,0
7.18,0.09789,-1.48036,0.00058,0.00088,0.00067,0.00057,0.00122,0.00065,0.00443,0.00232,0,0,0,0,0
7.19,0.09810,-1.47800,0.00057,0.00086,0.00063,0.00061,0.00135,0.00063,0.00214,0.00240,0,0,0,0,0
7.20,0.09780,-1.47821,0.00057,0.00082,0.00066,0.00060,0.00144,0.00063,0.00244,0.00215,0,0,0,0,0
7.21,0.09775,-1.47963,0.00064,0.00080,0.00068,0.00056,0.00142,0.00067,0.00290,0.00209,0,0,0,0,0
7.22,0.09753,-1.48021,0.00060,0.00089,0.00069,0.00056,0.00149,0.00069,0.00427,0.00259,0,0,0,0,0
7.23,0.09788,-1.47940,0.00057,0.00088,0.00069,0.00055,0.00152,0.00067,0.00320,0.00297,0,0,0,0,0
7.24,0.09730,-1.48163,0.00061,0.00100,0.00070,0.00054,0.00156,0.00068,0.00351,0.00256,0,0,0,0,0
7.25,0.09800,-1.47943,0.00062,0.00092,0.00066,0.00058,0.00189,0.00074,0.00229,0.00188,0,0,0,0,0
7.26,0.09813,-1.48055,0.00062,0.00071,0.00068,0.00057,0.00185,0.00074,0.00443,0.00151,0,0,0,0,0
7.27,0.09807,-1.48149,0.00060,0.00071,0.00067,0.00054,0.00343,0.00066,0.00397,0.00136,0,0,0,0,0
7.28,0.09760,-1.47862,0.00058,0.00069,0.00068,0.00056,0.00381,0.00065,0.00122,0.00114,0,0,0,0,0
7.29,0.09733,-1.47951,0.00065,0.00077,0.00076,0.00069,0.00182,0.00066,0.00397,0.00147,0,0,0,0,0
7.30,0.09740,-1.48073,0.00079,0.00082,0.00074,0.00075,0.00138,0.00072,0.00137,0.00177,0,0,0,0,0
7.31,0.09741,-1.47961,0.00076,0.00081,0.00071,0.00067,0.00137,0.00076,0.00305,0.00142,0,0,0,0,0
7.32,0.09768,-1.48131,0.00075,0.00099,0.00077,0.00064,0.00137,0.00075,0.00198,0.00113,0,0,0,0,0
7.33,0.09754,-1.47902,0.00068,0.00100,0.00076,0.00064,0.00118,0.00064,0.00153,0.00096,0,0,0,0,0
7.34,0.09717,-1.47943,0.00204,0.00966,0.00068,0.00060,0.00115,0.00056,0.00427,0.00101,0,0,0,0,0
7.35,0.09781,-1.47926,0.00461,0.01457,0.00070,0.00057,0.00143,0.00057,0.00443,0.00180,0,0,0,1,0
7.36,0.09711,-1.48091,0.00378,0.00829,0.00072,0.00054,0.00137,0.00077,-0.00015,0.00287,0,0,0,0,0
7.37,0.09645,-1.47978,0.00242,0.00758,0.00066,0.00057,0.00133,0.00119,0.01465,0.00297,0,0,0,0,0
7.38,0.09664,-1.48157,0.00240,0.01053,0.00064,0.00059,0.00116,0.00130,0.00214,0.00227,0,0,0,0,0
7.39,0.09751,-1.48013,0.00256,0.01170,0.00066,0.00054,0.00077,0.00152,0.00320,0.00161,0,0,0,0,0
7.40,0.09876,-1.47736,0.00306,0.00986,0.00068,0.00055,0.00059,0.00152,0.00275,0.00116,0,0,0,0,0
7.41,0.09916,-1.48125,0.00243,0.00881,0.00066,0.00054,0.00057,0.00145,0.00427,0.00123,0,0,0,0,0
7.42,0.09910,-1.47896,0.00248,0.01038,0.00075,0.00064,0.00055,0.00139,0.00336,0.00111,0,0,0,0,0
7.43,0.09883,-1.47881,0.00175,0.00688,0.00085,0.00071,0.00057,0.00088,0.00351,0.00090,0,0,0,0,0
7.44,0.09813,-1.47815,0.00061,0.00326,0.00082,0.00070,0.00067,0.00082,0.00229,0.00085,0,0,0,0,0
7.45,0.09840,-1.47972,0.00071,0.00329,0.00086,0.00089,0.00076,0.00105,0.00412,0.00086,0,0,0,0,0
7.46,0.09824,-1.48105,0.00072,0.00165,0.00092,0.00087,0.00084,0.00096,0.00290,0.00183,0,0,0,0,1
7.47,0.09883,-1.48383,0.00066,0.00094,0.00086,0.00065,0.00108,0.00093,0.00458,0.00185,0,0,0,0,0
7.48,0.09905,-1.47888,0.00064,0.00116,0.00102,0.00100,0.00128,0.00116,0.00412,0.00109,0,0,0,0,0
7.49,0.09927,-1.47746,0.00058,0.00118,0.00096,0.00107,0.00102,0.00119,0.00504,0.00194,0,0,0,0,0
7.50,0.09891,-1.47858,0.00054,0.00099,0.00068,0.00064,0.00110,0.00117,0.00275,0.00269,0,0,0,0,0
7.51,0.09773,-1.47887,0.00051,0.00090,0.00067,0.00052,0.00131,0.00098,0.00381,0.00331,0,0,0,0,0
7.52,0.09628,-1.47890,0.00053,0.00068,0.00069,0.00061,0.00138,0.00082,0.00168,0.00365,0,0,0,0,0
7.53,0.09625,-1.48120,0.00059,0.00065,0.00069,0.00062,0.00160,0.00082,0.00504,0.00398,0,0,0,0,0
7.54,0.09771,-1.48013,0.00057,0.00064,0.00071,0.00052,0.00176,0.00076,0.00198,0.00449,0,0,0,0,0
7.55,0.09818,-1.48030,0.00053,0.00057,0.00069,0.00053,0.00160,0.00068,0.00580,0.00370,0,0,0,0,0
7.56,0.09860,-1.47946,0.00058,0.00058,0.00065,0.00055,0.00107,0.00063,0.00443,0.00274,0,0,0,0,0
7.57,0.09925,-1.47964,0.00062,0.00054,0.00067,0.00052,0.00108,0.00069,0.00229,0.00243,0,0,0,0,0
7.58,0.09903,-1.48044,0.00064,0.00056,0.00070,0.00053,0.00138,0.00071,0.00214,0.00229,0,0,0,0,0
7.59,0.09937,-1.47914,0.00060,0.00063,0.00069,0.00055,0.00131,0.00062,0.00381,0.00184,0,0,0,0,0
7.60,0.09918,-1.47821,0.00057,0.00064,0.00067,0.00060,0.00117,0.00060,0.00488,0.00107,0,0,0,0,0
7.61,0.09872,-1.47983,0.00074,0.00068,0.00068,0.00066,0.00103,0.00062,0.00366,0.00101,0,0,0,0,0
7.62,0.09913,-1.48055,0.00076,0.00103,0.00078,0.00059,0.00092,0.00059,0.00336,0.00106,0,0,0,0,0
7.63,0.09920,-1.48029,0.00092,0.00226,0.00091,0.00069,0.00086,0.00058,0.00366,0.00120,0,0,0,0,0
7.64,0.09915,-1.48041,0.00276,0.00499,0.00083,0.00073,0.00080,0.00061,0.00198,0.00131,0,0,0,0,0
7.65,0.09896,-1.47888,0.00489,0.00779,0.00075,0.00060,0.00215,0.00108,0.00092,0.00269,0,0,0,1,0
7.66,0.09863,-1.47913,0.00352,0.00645,0.00072,0.00055,0.00303,0.00268,0.01022,0.00362,0,0,0,0,0
