"Time","2 Trdml","3 Platform","4 GM","5 Ip","6 BF","7 VL","8 St","9 TA","10 Gs","11 Gr","12 Synch","42 Ramp up","43 Ramp down","44 sw onset","45 sw offset"
0.00,0.19250,-1.48084,0.00362,0.01030,0.00072,0.00062,0.00206,0.00084,-0.00408,0.00401,0,0,0,1,0
0.01,0.19438,-1.47731,0.00286,0.00795,0.00071,0.00055,0.00206,0.00096,-0.00574,0.00475,0,0,0,0,0
0.02,0.19546,-1.47984,0.00163,0.01031,0.00068,0.00057,0.00209,0.00177,0.00533,0.00508,0,0,0,0,0
0.03,0.19530,-1.47959,0.00208,0.00772,0.00068,0.00055,0.00140,0.00207,0.00487,0.00322,0,0,0,0,0
0.04,0.19623,-1.47982,0.00273,0.00961,0.00069,0.00058,0.00122,0.00252,0.00364,0.00173,0,0,0,0,0
0.05,0.19625,-1.47995,0.00279,0.01381,0.00065,0.00061,0.00121,0.00337,0.00404,0.00154,0,0,0,0,0
0.06,0.19606,-1.48148,0.00297,0.01445,0.00084,0.00063,0.00110,0.00285,0.00383,0.00096,0,0,0,0,0
0.07,0.19550,-1.47983,0.00561,0.01425,0.00096,0.00068,0.00086,0.00179,0.00145,0.00081,0,0,0,0,0
0.08,0.19512,-1.48255,0.00539,0.01270,0.00083,0.00063,0.00062,0.00114,0.00286,0.00091,0,0,0,0,0
0.09,0.19537,-1.47938,0.00294,0.00766,0.00085,0.00060,0.00053,0.00071,0.00418,0.00167,0,0,0,0,0
0.10,0.19478,-1.48150,0.00166,0.00394,0.00089,0.00072,0.00072,0.00076,0.00316,0.00160,0,0,0,0,0
0.11,0.19426,-1.48327,0.00079,0.00298,0.00082,0.00077,0.00089,0.00090,0.00502,0.00088,0,0,0,0,1
0.12,0.19373,-1.47935,0.00077,0.00128,0.00083,0.00080,0.00095,0.00093,0.00544,0.00104,0,0,0,0,0
0.13,0.19198,-1.48179,0.00066,0.00110,0.00096,0.00099,0.00135,0.00093,0.00266,0.00108,0,0,0,0,0
0.14,0.19080,-1.48161,0.00068,0.00113,0.00113,0.00106,0.00167,0.00080,0.00441,0.00091,0,0,0,0,0
0.15,0.19162,-1.48214,0.00063,0.00116,0.00101,0.00096,0.00169,0.00073,0.00139,0.00109,0,0,0,0,0
0.16,0.19236,-1.47990,0.00058,0.00109,0.00088,0.00090,0.00171,0.00071,0.00441,0.00108,0,0,0,0,0
0.17,0.19217,-1.48130,0.00059,0.00103,0.00096,0.00112,0.00193,0.00076,0.00259,0.00128,0,0,0,0,0
0.18,0.19257,-1.47913,0.00060,0.00093,0.00091,0.00098,0.00151,0.00075,0.00286,0.00144,0,0,0,0,0
0.19,0.19282,-1.47946,0.00057,0.00103,0.00092,0.00094,0.00084,0.00075,0.00234,0.00135,0,0,0,0,0
0.20,0.19316,-1.48266,0.00055,0.00106,0.00079,0.00094,0.00071,0.00068,0.00342,0.00123,0,0,0,0,0
0.21,0.19320,-1.48076,0.00059,0.00090,0.00073,0.00095,0.00079,0.00062,0.00386,0.00109,0,0,0,0,0
0.22,0.19331,-1.47914,0.00248,0.00781,0.00081,0.00093,0.00076,0.00065,0.00360,0.00110,0,0,0,0,0
0.23,0.19358,-1.48116,0.00433,0.01430,0.00073,0.00057,0.00087,0.00082,-0.00067,0.00135,0,0,0,0,0
0.24,0.19417,-1.48039,0.00370,0.01292,0.00070,0.00056,0.00123,0.00097,0.00032,0.00284,0,0,0,1,0
0.25,0.19480,-1.48119,0.00258,0.01154,0.00067,0.00061,0.00126,0.00143,0.00339,0.00479,0,0,0,0,0
0.26,0.19567,-1.48000,0.00252,0.01094,0.00066,0.00061,0.00123,0.00307,-0.00186,0.00504,0,0,0,0,0
0.27,0.19584,-1.48004,0.00286,0.00945,0.00072,0.00056,0.00146,0.00359,0.00698,0.00393,0,0,0,0,0
0.28,0.19615,-1.48123,0.00260,0.00814,0.00070,0.00051,0.00138,0.00276,0.00375,0.00253,0,0,0,0,0
0.29,0.19661,-1.48065,0.00296,0.00947,0.00066,0.00055,0.00139,0.00252,0.00199,0.00146,0,0,0,0,0
0.30,0.19599,-1.48029,0.00395,0.01121,0.00067,0.00059,0.00142,0.00282,0.00414,0.00143,0,0,0,0,0
0.31,0.19562,-1.48120,0.00388,0.01232,0.00090,0.00062,0.00102,0.00230,0.00391,0.00131,0,0,0,0,0
0.32,0.19566,-1.48199,0.00706,0.01205,0.00091,0.00063,0.00078,0.00161,0.00170,0.00098,0,0,0,0,0
0.33,0.19561,-1.48271,0.00948,0.01402,0.00067,0.00064,0.00058,0.00130,0.00381,0.00108,0,0,0,0,0
0.34,0.19545,-1.47998,0.00567,0.01808,0.00086,0.00082,0.00054,0.00082,0.00336,0.00152,0,0,0,0,0
0.35,0.19528,-1.48136,0.00193,0.01204,0.00097,0.00089,0.00057,0.00077,0.00316,0.00132,0,0,0,0,0
0.36,0.19458,-1.48102,0.00082,0.00314,0.00087,0.00078,0.00098,0.00092,0.00414,0.00111,0,0,0,0,1
0.37,0.19429,-1.47889,0.00066,0.00185,0.00092,0.00071,0.00129,0.00102,0.00591,0.00202,0,0,0,0,0
0.38,0.19387,-1.48030,0.00073,0.00137,0.00097,0.00081,0.00116,0.00093,0.00263,0.00179,0,0,0,0,0
0.39,0.19461,-1.47991,0.00064,0.00113,0.00112,0.00138,0.00144,0.00091,0.00391,0.00097,0,0,0,0,0
0.40,0.19552,-1.47939,0.00056,0.00098,0.00103,0.00123,0.00157,0.00081,0.00450,0.00096,0,0,0,0,0
0.41,0.19526,-1.47924,0.00057,0.00106,0.00085,0.00089,0.00150,0.00068,0.00450,0.00117,0,0,0,0,0
0.42,0.19493,-1.48019,0.00057,0.00121,0.00095,0.00125,0.00155,0.00068,0.00758,0.00123,0,0,0,0,0
0.43,0.19441,-1.48143,0.00057,0.00120,0.00094,0.00127,0.00121,0.00069,0.00073,0.00117,0,0,0,0,0
0.44,0.19450,-1.48158,0.00057,0.00114,0.00093,0.00118,0.00104,0.00069,0.00277,0.00134,0,0,0,0,0
0.45,0.19384,-1.47815,0.00060,0.00118,0.00098,0.00117,0.00109,0.00073,0.00413,0.00128,0,0,0,0,0
0.46,0.19352,-1.48036,0.00060,0.00109,0.00106,0.00112,0.00087,0.00071,0.00376,0.00112,0,0,0,0,0
0.47,0.19429,-1.48003,0.00056,0.00117,0.00110,0.00095,0.00067,0.00064,0.00259,0.00107,0,0,0,0,0
0.48,0.19539,-1.48207,0.00134,0.00437,0.00098,0.00069,0.00066,0.00059,-0.00167,0.00104,0,0,0,0,0
0.49,0.19581,-1.47979,0.00478,0.01087,0.00079,0.00058,0.00270,0.00095,0.00294,0.00220,0,0,0,1,0
0.50,0.19522,-1.47923,0.00467,0.01119,0.00075,0.00061,0.00340,0.00127,0.01865,0.00576,0,0,0,0,0
0.51,0.19510,-1.48224,0.00147,0.00804,0.00071,0.00061,0.00211,0.00188,0.00239,0.00630,0,0,0,0,0
0.52,0.19491,-1.48015,0.00448,0.01038,0.00068,0.00058,0.00164,0.00281,-0.00338,0.00455,0,0,0,0,0
0.53,0.19372,-1.48083,0.00470,0.01159,0.00072,0.00057,0.00137,0.00340,-0.00754,0.00392,0,0,0,0,0
0.54,0.19288,-1.48111,0.00232,0.01264,0.00076,0.00055,0.00126,0.00373,0.00441,0.00235,0,0,0,0,0
0.55,0.19342,-1.48093,0.00547,0.01269,0.00077,0.00054,0.00074,0.00382,0.00436,0.00115,0,0,0,0,0
0.56,0.19400,-1.47773,0.00871,0.01771,0.00088,0.00063,0.00062,0.00272,0.00285,0.00086,0,0,0,0,0
0.57,0.19305,-1.48063,0.00889,0.01837,0.00090,0.00075,0.00061,0.00144,0.00385,0.00094,0,0,0,0,0
0.58,0.19315,-1.47882,0.00684,0.01252,0.00080,0.00082,0.00051,0.00109,0.00186,0.00139,0,0,0,0,0
0.59,0.19310,-1.47946,0.00336,0.00708,0.00080,0.00081,0.00058,0.00075,0.00338,0.00116,0,0,0,0,0
0.60,0.19365,-1.48139,0.00072,0.00169,0.00074,0.00066,0.00078,0.00080,0.00239,0.00074,0,0,0,0,0
0.61,0.19312,-1.48093,0.00059,0.00159,0.00071,0.00059,0.00112,0.00092,0.00288,0.00145,0,0,0,0,1
0.62,0.19227,-1.48190,0.00066,0.00146,0.00073,0.00064,0.00127,0.00085,0.00270,0.00164,0,0,0,0,0
0.63,0.19327,-1.47938,0.00066,0.00105,0.00084,0.00064,0.00125,0.00091,0.00391,0.00109,0,0,0,0,0
0.64,0.19454,-1.47867,0.00059,0.00136,0.00090,0.00066,0.00162,0.00079,0.00361,0.00097,0,0,0,0,0
0.65,0.19546,-1.48117,0.00060,0.00111,0.00083,0.00105,0.00194,0.00060,0.00386,0.00087,0,0,0,0,0
0.66,0.19533,-1.47992,0.00061,0.00091,0.00084,0.00102,0.00179,0.00065,0.00477,0.00101,0,0,0,0,0
0.67,0.19498,-1.48072,0.00055,0.00115,0.00088,0.00065,0.00175,0.00064,0.00388,0.00130,0,0,0,0,0
0.68,0.19452,-1.48185,0.00057,0.00125,0.00097,0.00097,0.00143,0.00065,0.00067,0.00133,0,0,0,0,0
0.69,0.19446,-1.48047,0.00062,0.00129,0.00107,0.00125,0.00107,0.00067,0.00404,0.00124,0,0,0,0,0
0.70,0.19503,-1.48111,0.00063,0.00122,0.00094,0.00116,0.00091,0.00064,0.00388,0.00102,0,0,0,0,0
0.71,0.19510,-1.47936,0.00060,0.00099,0.00085,0.00087,0.00077,0.00065,0.00366,0.00089,0,0,0,0,0
0.72,0.19555,-1.47942,0.00063,0.00102,0.00086,0.00063,0.00073,0.00064,0.00378,0.00089,0,0,0,0,0
0.73,0.19586,-1.47968,0.00109,0.00179,0.00096,0.00065,0.00068,0.00062,0.00328,0.00091,0,0,0,0,0
0.74,0.19542,-1.48264,0.00224,0.00805,0.00097,0.00063,0.00236,0.00082,0.00359,0.00213,0,0,0,0,0
0.75,0.19492,-1.48029,0.00412,0.01237,0.00079,0.00057,0.00293,0.00082,0.00422,0.00446,0,0,0,1,0
0.76,0.19503,-1.47912,0.00640,0.01144,0.00078,0.00059,0.00197,0.00137,0.00349,0.00612,0,0,0,0,0
0.77,0.19489,-1.48102,0.00676,0.01289,0.00073,0.00060,0.00155,0.00335,-0.00582,0.00559,0,0,0,0,0
0.78,0.19530,-1.48133,0.00613,0.01054,0.00069,0.00058,0.00108,0.00393,0.00597,0.00390,0,0,0,0,0
0.79,0.19492,-1.48171,0.00633,0.01296,0.00073,0.00059,0.00108,0.00379,0.00288,0.00210,0,0,0,0,0
0.80,0.19468,-1.48223,0.00602,0.01731,0.00072,0.00062,0.00081,0.00364,0.00236,0.00097,0,0,0,0,0
0.81,0.19505,-1.47964,0.00656,0.01805,0.00071,0.00060,0.00055,0.00214,0.00380,0.00095,0,0,0,0,0
0.82,0.19495,-1.48127,0.00716,0.01582,0.00073,0.00058,0.00055,0.00110,0.00458,0.00103,0,0,0,0,0
0.83,0.19448,-1.48080,0.00377,0.00940,0.00084,0.00062,0.00057,0.00086,0.00295,0.00132,0,0,0,0,0
0.84,0.19401,-1.48055,0.00060,0.00554,0.00082,0.00066,0.00070,0.00076,0.00248,0.00113,0,0,0,0,0
0.85,0.19460,-1.48202,0.00055,0.00245,0.00071,0.00065,0.00089,0.00086,0.00371,0.00084,0,0,0,0,1
0.86,0.19540,-1.47874,0.00057,0.00093,0.00068,0.00060,0.00119,0.00100,0.00411,0.00204,0,0,0,0,0
0.87,0.19545,-1.48193,0.00058,0.00094,0.00072,0.00060,0.00124,0.00096,0.00422,0.00232,0,0,0,0,0
0.88,0.19578,-1.46798,0.00055,0.00101,0.00071,0.00063,0.00109,0.00089,0.00462,0.00114,0,1,0,0,0
0.89,0.19560,-1.40291,0.00051,0.00097,0.00068,0.00058,0.00117,0.00075,0.00345,0.00130,0,0,0,0,0
0.90,0.19578,-1.27113,0.00048,0.00085,0.00069,0.00055,0.00167,0.00060,0.00234,0.00215,0,0,0,0,0
0.91,0.19527,-1.09946,0.00054,0.00088,0.00072,0.00062,0.00172,0.00057,0.00778,0.00235,0,0,0,0,0
0.92,0.19467,-0.87260,0.00072,0.00090,0.00076,0.00059,0.00157,0.00055,0.00272,0.00185,0,0,0,0,0
0.93,0.19386,-0.62685,0.00079,0.00099,0.00075,0.00052,0.00162,0.00054,0.00345,0.00134,0,0,0,0,0
0.94,0.19291,-0.34677,0.00090,0.00112,0.00122,0.00075,0.00164,0.00063,0.00354,0.00114,0,0,0,0,0
0.95,0.19360,-0.04371,0.00101,0.00133,0.00254,0.00091,0.00143,0.00072,0.00716,0.00108,0,0,0,0,0
0.96,0.19414,0.23460,0.00071,0.00126,0.00238,0.00095,0.00093,0.00073,0.00332,0.00086,0,0,0,0,0
0.97,0.19425,0.53263,0.00052,0.00098,0.00094,0.00083,0.00071,0.00067,0.00408,0.00122,0,0,0,0,0
0.98,0.19297,0.78658,0.00054,0.00081,0.00076,0.00059,0.00061,0.00059,0.00238,0.00163,0,0,0,0,0
0.99,0.19240,1.01177,0.00055,0.00089,0.00069,0.00057,0.00064,0.00056,0.00386,0.00138,0,0,0,0,0
1.00,0.19183,1.21192,0.00161,0.00789,0.00065,0.00059,0.00083,0.00058,0.00533,0.00273,0,0,0,0,0
1.01,0.19394,1.35897,0.00221,0.01252,0.00068,0.00056,0.00117,0.00067,0.00418,0.00491,0,0,0,0,0
1.02,0.19431,1.44913,0.00170,0.00925,0.00067,0.00051,0.00140,0.00092,-0.01161,0.00621,0,0,0,0,0
1.03,0.19464,1.48105,0.00366,0.00917,0.00066,0.00052,0.00139,0.00100,0.00112,0.00658,0,0,0,1,0
1.04,0.19457,1.48448,0.00574,0.00988,0.00070,0.00054,0.00110,0.00116,0.00562,0.00631,0,0,0,0,0
1.05,0.19523,1.48430,0.00626,0.01112,0.00068,0.00052,0.00081,0.00313,0.00226,0.00385,0,0,0,0,0
1.06,0.19556,1.48563,0.00604,0.01044,0.00066,0.00055,0.00069,0.00352,0.00336,0.00155,0,0,0,0,0
1.07,0.19541,1.48544,0.00588,0.00955,0.00070,0.00057,0.00055,0.00166,0.00374,0.00141,0,0,0,0,0
1.08,0.19524,1.48437,0.00451,0.00981,0.00070,0.00058,0.00053,0.00090,0.00330,0.00126,0,0,0,0,0
1.09,0.19453,1.48464,0.00291,0.00880,0.00077,0.00064,0.00058,0.00080,0.00341,0.00143,0,0,0,0,0
1.10,0.19431,1.48110,0.00247,0.00781,0.00084,0.00070,0.00073,0.00094,0.00330,0.00113,0,0,0,0,0
1.11,0.19440,1.48471,0.00104,0.00434,0.00077,0.00066,0.00083,0.00106,0.00307,0.00084,0,0,0,0,1
1.12,0.19353,1.48445,0.00056,0.00138,0.00065,0.00060,0.00108,0.00084,0.00345,0.00279,0,0,0,0,0
1.13,0.19222,1.48471,0.00074,0.00082,0.00104,0.00077,0.00155,0.00072,0.00240,0.00452,0,0,0,0,0
1.14,0.19226,1.48423,0.00079,0.00082,0.00113,0.00074,0.00156,0.00076,0.00525,0.00380,0,0,0,0,0
1.15,0.19313,1.48431,0.00060,0.00109,0.00072,0.00056,0.00138,0.00065,0.00563,0.00343,0,0,0,0,0
1.16,0.19457,1.48385,0.00060,0.00150,0.00070,0.00058,0.00131,0.00062,0.00297,0.00261,0,0,0,0,0
1.17,0.19512,1.48506,0.00061,0.00118,0.00071,0.00056,0.00120,0.00064,0.00336,0.00192,0,0,0,0,0
1.18,0.19582,1.48392,0.00063,0.00083,0.00068,0.00060,0.00120,0.00059,0.00317,0.00152,0,0,0,0,0
1.19,0.19619,1.48372,0.00063,0.00084,0.00068,0.00064,0.00115,0.00058,0.00280,0.00156,0,0,0,0,0
1.20,0.19562,1.48363,0.00062,0.00089,0.00072,0.00059,0.00135,0.00068,0.00184,0.00163,0,0,0,0,0
1.21,0.19510,1.48638,0.00063,0.00088,0.00075,0.00060,0.00149,0.00067,0.00289,0.00151,0,0,0,0,0
1.22,0.19521,1.48293,0.00060,0.00085,0.00074,0.00062,0.00141,0.00064,0.00200,0.00199,0,0,0,0,0
1.23,0.19547,1.48229,0.00058,0.00081,0.00074,0.00061,0.00154,0.00073,0.00204,0.00152,0,0,0,0,0
1.24,0.19574,1.48558,0.00057,0.00073,0.00078,0.00061,0.00169,0.00072,0.00224,0.00111,0,0,0,0,0
1.25,0.19538,1.48364,0.00054,0.00075,0.00074,0.00059,0.00172,0.00075,-0.00016,0.00121,0,0,0,0,0
1.26,0.19541,1.48444,0.00053,0.00072,0.00079,0.00064,0.00151,0.00080,0.01235,0.00109,0,0,0,0,0
1.27,0.19489,1.48423,0.00054,0.00076,0.00089,0.00071,0.00154,0.00081,0.00408,0.00118,0,0,0,0,0
1.28,0.19428,1.48396,0.00055,0.00074,0.00089,0.00084,0.00136,0.00082,0.00433,0.00123,0,0,0,0,0
1.29,0.19356,1.48465,0.00087,0.00239,0.00086,0.00077,0.00090,0.00076,0.00310,0.00099,0,0,0,0,0
1.30,0.19341,1.48389,0.00422,0.00945,0.00079,0.00062,0.00094,0.00067,0.00132,0.00098,0,0,0,0,0
1.31,0.19284,1.48392,0.00702,0.01357,0.00083,0.00065,0.00158,0.00086,0.00463,0.00295,0,0,0,0,0
1.32,0.19311,1.48415,0.00532,0.01174,0.00084,0.00059,0.00150,0.00094,-0.00809,0.00429,0,0,0,1,0
1.33,0.19282,1.48342,0.00470,0.00902,0.00077,0.00057,0.00132,0.00139,0.00429,0.00389,0,0,0,0,0
1.34,0.19248,1.48514,0.00463,0.00936,0.00079,0.00058,0.00136,0.00247,0.00315,0.00352,0,0,0,0,0
1.35,0.19230,1.48375,0.00463,0.01216,0.00090,0.00066,0.00103,0.00255,0.00095,0.00196,0,0,0,0,0
1.36,0.19240,1.48260,0.00619,0.01302,0.00084,0.00064,0.00070,0.00191,0.00559,0.00080,0,0,0,0,0
1.37,0.19263,1.48459,0.00501,0.01609,0.00072,0.00056,0.00051,0.00158,0.00364,0.00088,0,0,0,0,0
1.38,0.19276,1.48458,0.00279,0.01248,0.00076,0.00059,0.00053,0.00111,0.00417,0.00087,0,0,0,0,0
1.39,0.19286,1.48330,0.00142,0.00446,0.00081,0.00066,0.00055,0.00071,0.00212,0.00077,0,0,0,0,0
1.40,0.19321,1.48401,0.00060,0.00202,0.00088,0.00075,0.00066,0.00084,0.00433,0.00080,0,0,0,0,0
1.41,0.19343,1.48370,0.00061,0.00142,0.00089,0.00074,0.00094,0.00102,0.00279,0.00133,0,0,0,0,1
1.42,0.19313,1.48568,0.00066,0.00119,0.00101,0.00082,0.00140,0.00097,0.00480,0.00165,0,0,0,0,0
1.43,0.19309,1.48356,0.00076,0.00109,0.00113,0.00109,0.00211,0.00090,0.00335,0.00137,0,0,0,0,0
1.44,0.19434,1.48369,0.00072,0.00113,0.00105,0.00112,0.00258,0.00096,0.00450,0.00155,0,0,0,0,0
1.45,0.19533,1.48529,0.00056,0.00133,0.00271,0.00119,0.00236,0.00096,0.00432,0.00165,0,0,0,0,0
1.46,0.19474,1.48549,0.00053,0.00163,0.00276,0.00132,0.00187,0.00088,0.00336,0.00136,0,0,0,0,0
1.47,0.19475,1.48493,0.00060,0.00150,0.00129,0.00150,0.00133,0.00086,0.00438,0.00167,0,0,0,0,0
1.48,0.19442,1.48735,0.00071,0.00119,0.00128,0.00135,0.00119,0.00075,0.00342,0.00164,0,0,0,0,0
1.49,0.19444,1.48406,0.00184,0.00881,0.00097,0.00083,0.00167,0.00088,0.00301,0.00109,0,0,0,0,0
1.50,0.19411,1.48459,0.00248,0.01324,0.00079,0.00059,0.00191,0.00115,0.01612,0.00277,0,0,0,1,0
1.51,0.19387,1.48387,0.00199,0.01275,0.00076,0.00055,0.00158,0.00116,0.00172,0.00403,0,0,0,0,0
1.52,0.19437,1.48544,0.00196,0.01301,0.00074,0.00058,0.00113,0.00194,0.00263,0.00294,0,0,0,0,0
1.53,0.19484,1.48261,0.00201,0.00904,0.00073,0.00059,0.00128,0.00209,0.00405,0.00219,0,0,0,0,0
1.54,0.19464,1.48481,0.00205,0.00833,0.00079,0.00053,0.00114,0.00152,0.00339,0.00203,0,0,0,0,0
1.55,0.19458,1.48409,0.00353,0.00961,0.00075,0.00054,0.00077,0.00180,0.00381,0.00155,0,0,0,0,0
1.56,0.19428,1.48461,0.00459,0.01060,0.00070,0.00053,0.00101,0.00189,0.00305,0.00104,0,0,0,0,0
1.57,0.19420,1.48282,0.00495,0.01108,0.00071,0.00054,0.00092,0.00155,0.00372,0.00081,0,0,0,0,0
1.58,0.19478,1.48442,0.00682,0.01000,0.00072,0.00062,0.00062,0.00121,0.00250,0.00089,0,0,0,0,0
1.59,0.19507,1.48392,0.00798,0.00994,0.00086,0.00074,0.00055,0.00111,0.00403,0.00102,0,0,0,0,0
1.60,0.19489,1.48373,0.00457,0.00912,0.00097,0.00092,0.00057,0.00084,0.00289,0.00110,0,0,0,0,0
1.61,0.19508,1.48489,0.00101,0.00466,0.00089,0.00099,0.00071,0.00067,0.00294,0.00109,0,0,0,0,0
1.62,0.19530,1.48356,0.00056,0.00145,0.00081,0.00091,0.00087,0.00091,0.00309,0.00091,0,0,0,0,1
1.63,0.19494,1.48698,0.00061,0.00124,0.00081,0.00084,0.00117,0.00107,0.00642,0.00127,0,0,0,0,0
1.64,0.19402,1.48483,0.00060,0.00124,0.00100,0.00103,0.00141,0.00099,0.00349,0.00137,0,0,0,0,0
1.65,0.19345,1.48500,0.00057,0.00114,0.00121,0.00110,0.00129,0.00094,0.00188,0.00100,0,0,0,0,0
1.66,0.19423,1.48538,0.00060,0.00120,0.00113,0.00110,0.00117,0.00086,0.00232,0.00132,0,0,0,0,0
1.67,0.19428,1.48458,0.00060,0.00135,0.00102,0.00113,0.00164,0.00080,0.00231,0.00163,0,0,0,0,0
1.68,0.19379,1.48493,0.00059,0.00134,0.00097,0.00109,0.00182,0.00079,0.00357,0.00143,0,0,0,0,0
1.69,0.19377,1.48557,0.00062,0.00123,0.00106,0.00103,0.00122,0.00071,0.00347,0.00117,0,0,0,0,0
1.70,0.19308,1.48700,0.00059,0.00131,0.00099,0.00103,0.00112,0.00074,0.00384,0.00139,0,0,0,0,0
1.71,0.19315,1.48438,0.00061,0.00139,0.00083,0.00122,0.00108,0.00078,0.00247,0.00150,0,0,0,0,0
1.72,0.19326,1.48401,0.00065,0.00141,0.00107,0.00116,0.00110,0.00076,0.00322,0.00134,0,0,0,0,0
1.73,0.19316,1.47963,0.00064,0.00130,0.00124,0.00113,0.00108,0.00069,0.00376,0.00128,0,0,0,0,0
1.74,0.19317,1.48452,0.00059,0.00100,0.00104,0.00096,0.00069,0.00060,0.00381,0.00092,0,0,0,0,0
1.75,0.19299,1.48476,0.00342,0.00475,0.00080,0.00069,0.00069,0.00071,0.00362,0.00065,0,0,0,0,0
1.76,0.19298,1.48530,0.00525,0.01100,0.00074,0.00069,0.00147,0.00093,0.00299,0.00250,0,0,0,1,0
1.77,0.19272,1.48440,0.00294,0.01208,0.00068,0.00068,0.00175,0.00093,0.01024,0.00400,0,0,0,0,0
1.78,0.19275,1.48469,0.00239,0.01115,0.00070,0.00060,0.00121,0.00221,-0.00965,0.00381,0,0,0,0,0
1.79,0.19387,1.48187,0.00310,0.01197,0.00072,0.00054,0.00113,0.00377,0.00262,0.00359,0,0,0,0,0
1.80,0.19382,1.48414,0.00464,0.01455,0.00071,0.00059,0.00109,0.00341,0.00400,0.00205,0,0,0,0,0
1.81,0.19458,1.48376,0.00601,0.01771,0.00073,0.00065,0.00096,0.00262,0.00289,0.00108,0,0,0,0,0
1.82,0.19481,1.48282,0.00870,0.01893,0.00068,0.00066,0.00074,0.00237,0.00538,0.00099,0,0,0,0,0
1.83,0.19478,1.48358,0.00924,0.01843,0.00070,0.00066,0.00054,0.00194,0.00453,0.00101,0,0,0,0,0
1.84,0.19453,1.48493,0.00569,0.01330,0.00081,0.00074,0.00057,0.00114,0.00355,0.00135,0,0,0,0,0
1.85,0.19522,1.48921,0.00335,0.00865,0.00082,0.00084,0.00057,0.00072,0.00298,0.00115,0,0,0,0,0
1.86,0.19526,1.48554,0.00141,0.00487,0.00074,0.00072,0.00064,0.00071,0.00355,0.00090,0,0,0,0,0
1.87,0.19469,1.48408,0.00060,0.00159,0.00075,0.00065,0.00086,0.00086,0.00323,0.00202,0,0,0,0,1
1.88,0.19447,1.48457,0.00067,0.00138,0.00083,0.00071,0.00143,0.00107,0.00051,0.00280,0,0,0,0,0
1.89,0.19376,1.48541,0.00070,0.00120,0.00103,0.00096,0.00148,0.00091,0.00560,0.00162,0,0,0,0,0
1.90,0.19370,1.48274,0.00062,0.00126,0.00106,0.00123,0.00117,0.00071,0.00491,0.00085,0,0,0,0,0
1.91,0.19377,1.48535,0.00067,0.00151,0.00094,0.00111,0.00134,0.00066,0.00065,0.00104,0,0,0,0,0
1.92,0.19285,1.48375,0.00060,0.00147,0.00086,0.00082,0.00113,0.00065,0.00228,0.00127,0,0,0,0,0
1.93,0.19286,1.48427,0.00055,0.00117,0.00074,0.00061,0.00106,0.00073,0.00294,0.00119,0,0,0,0,0
1.94,0.19216,1.48281,0.00062,0.00117,0.00089,0.00068,0.00130,0.00075,0.00301,0.00137,0,0,0,0,0
1.95,0.19299,1.48506,0.00058,0.00114,0.00100,0.00107,0.00107,0.00076,0.00526,0.00143,0,0,0,0,0
1.96,0.19435,1.48372,0.00056,0.00125,0.00108,0.00118,0.00098,0.00073,0.00349,0.00162,0,0,0,0,0
1.97,0.19494,1.48439,0.00057,0.00150,0.00122,0.00140,0.00097,0.00066,0.00321,0.00175,0,0,0,0,0
1.98,0.19592,1.48525,0.00062,0.00159,0.00143,0.00170,0.00076,0.00066,0.00398,0.00176,0,0,0,0,0
1.99,0.19611,1.48297,0.00067,0.00121,0.00118,0.00111,0.00062,0.00063,0.00461,0.00143,0,0,0,0,0
2.00,0.19592,1.48423,0.00071,0.00100,0.00083,0.00072,0.00054,0.00064,0.00372,0.00073,0,0,0,0,0
2.01,0.19665,1.48428,0.00488,0.00685,0.00081,0.00073,0.00246,0.00093,0.00313,0.00330,0,0,0,1,0
2.02,0.19669,1.48350,0.00740,0.01113,0.00073,0.00072,0.00296,0.00111,0.00645,0.00679,0,0,0,0,0
2.03,0.19660,1.48552,0.00461,0.00885,0.00072,0.00064,0.00158,0.00198,0.01177,0.00591,0,0,0,0,0
2.04,0.19652,1.48445,0.00323,0.00842,0.00073,0.00056,0.00121,0.00246,0.00027,0.00299,0,0,0,0,0
2.05,0.19657,1.48397,0.00479,0.01016,0.00072,0.00057,0.00075,0.00285,0.00493,0.00185,0,0,0,0,0
2.06,0.19673,1.48370,0.00660,0.01168,0.00070,0.00063,0.00078,0.00291,0.00130,0.00130,0,0,0,0,0
2.07,0.19685,1.48566,0.00492,0.01487,0.00069,0.00064,0.00072,0.00227,0.00361,0.00072,0,0,0,0,0
2.08,0.19663,1.48424,0.00688,0.01989,0.00067,0.00060,0.00056,0.00184,0.00287,0.00094,0,0,0,0,0
2.09,0.19622,1.48408,0.00859,0.01868,0.00078,0.00075,0.00055,0.00101,0.00259,0.00111,0,0,0,0,0
2.10,0.19603,1.48419,0.00364,0.01000,0.00090,0.00087,0.00059,0.00070,0.00427,0.00092,0,0,0,0,0
2.11,0.19478,1.48401,0.00056,0.00479,0.00084,0.00076,0.00068,0.00075,0.00244,0.00084,0,0,0,0,0
2.12,0.19358,1.45182,0.00052,0.00303,0.00069,0.00067,0.00081,0.00105,0.00347,0.00088,0,0,0,0,1
2.13,0.19260,1.36760,0.00057,0.00162,0.00068,0.00064,0.00150,0.00117,0.00526,0.00115,0,0,1,0,0
2.14,0.19107,1.23087,0.00063,0.00118,0.00074,0.00062,0.00149,0.00110,0.00192,0.00149,0,0,0,0,0
2.15,0.19232,1.03496,0.00092,0.00160,0.00106,0.00078,0.00097,0.00155,0.00345,0.00150,0,0,0,0,0
2.16,0.19299,0.81093,0.00107,0.00164,0.00123,0.00090,0.00101,0.00198,-0.00034,0.00167,0,0,0,0,0
2.17,0.19372,0.53465,0.00077,0.00160,0.00099,0.00080,0.00090,0.00183,0.00372,0.00149,0,0,0,0,0
2.18,0.19236,0.25916,0.00062,0.00233,0.00080,0.00069,0.00085,0.00142,0.00463,0.00129,0,0,0,0,0
2.19,0.19107,-0.05426,0.00062,0.00178,0.00066,0.00055,0.00076,0.00107,0.00372,0.00143,0,0,0,0,0
2.20,0.19115,-0.35279,0.00057,0.00118,0.00066,0.00054,0.00091,0.00099,0.00442,0.00157,0,0,0,0,0
2.21,0.19189,-0.62565,0.00054,0.00111,0.00070,0.00062,0.00131,0.00090,0.00450,0.00158,0,0,0,0,0
2.22,0.19325,-0.89200,0.00056,0.00131,0.00074,0.00069,0.00142,0.00081,0.01156,0.00122,0,0,0,0,0
2.23,0.19452,-1.10065,0.00060,0.00148,0.00082,0.00068,0.00141,0.00088,0.00228,0.00195,0,0,0,0,0
2.24,0.19519,-1.28677,0.00061,0.00105,0.00083,0.00065,0.00116,0.00089,0.00338,0.00222,0,0,0,0,0
2.25,0.19608,-1.40898,0.00058,0.00084,0.00097,0.00076,0.00109,0.00088,0.00075,0.00164,0,0,0,0,0
2.26,0.19612,-1.47046,0.00059,0.00100,0.00097,0.00078,0.00149,0.00092,0.00288,0.00151,0,0,0,0,0
2.27,0.19583,-1.48150,0.00059,0.00090,0.00073,0.00068,0.00143,0.00079,0.00453,0.00181,0,0,0,0,0
2.28,0.19626,-1.48134,0.00056,0.00076,0.00070,0.00066,0.00125,0.00073,0.00360,0.00216,0,0,0,0,0
2.29,0.19573,-1.48223,0.00057,0.00077,0.00085,0.00080,0.00129,0.00087,0.00336,0.00251,0,0,0,0,0
2.30,0.19419,-1.48142,0.00056,0.00059,0.00083,0.00070,0.00104,0.00077,0.00366,0.00287,0,0,0,0,0
2.31,0.19401,-1.48075,0.00060,0.00059,0.00066,0.00054,0.00100,0.00063,0.00357,0.00200,0,0,0,0,0
2.32,0.19518,-1.48207,0.00060,0.00065,0.00069,0.00056,0.00104,0.00070,0.00376,0.00103,0,0,0,0,0
2.33,0.19514,-1.48031,0.00052,0.00061,0.00074,0.00058,0.00080,0.00070,0.00361,0.00121,0,0,0,0,0
2.34,0.19498,-1.48078,0.00050,0.00077,0.00070,0.00062,0.00061,0.00056,0.00306,0.00120,0,0,0,0,0
2.35,0.19491,-1.48122,0.00057,0.00088,0.00072,0.00057,0.00055,0.00059,0.00392,0.00093,0,0,0,0,0
2.36,0.19534,-1.48093,0.00059,0.00077,0.00071,0.00054,0.00061,0.00061,0.00257,0.00093,0,0,0,0,0
2.37,0.19505,-1.48171,0.00105,0.00525,0.00068,0.00058,0.00062,0.00058,0.00301,0.00088,0,0,0,0,0
2.38,0.19569,-1.48067,0.00439,0.01658,0.00069,0.00058,0.00075,0.00079,0.00382,0.00135,0,0,0,0,0
2.39,0.19578,-1.48240,0.00685,0.01700,0.00072,0.00056,0.00147,0.00246,0.02380,0.00469,0,0,0,0,0
2.40,0.19544,-1.47984,0.00676,0.01213,0.00074,0.00061,0.00171,0.00246,0.00236,0.00637,0,0,0,1,0
2.41,0.19450,-1.48116,0.00622,0.01331,0.00073,0.00062,0.00142,0.00205,0.00638,0.00672,0,0,0,0,0
2.42,0.19403,-1.48189,0.00579,0.01265,0.00070,0.00058,0.00132,0.00292,0.00007,0.00525,0,0,0,0,0
2.43,0.19492,-1.47979,0.00666,0.01664,0.00067,0.00055,0.00101,0.00382,0.00503,0.00157,0,0,0,0,0
2.44,0.19527,-1.48084,0.00670,0.01848,0.00070,0.00055,0.00072,0.00371,0.00326,0.00113,0,0,0,0,0
2.45,0.19548,-1.48018,0.00734,0.01489,0.00076,0.00057,0.00059,0.00286,0.00334,0.00128,0,0,0,0,0
2.46,0.19610,-1.48098,0.00742,0.01670,0.00080,0.00067,0.00064,0.00230,0.00268,0.00125,0,0,0,0,0
2.47,0.18920,-1.48062,0.00558,0.01858,0.00093,0.00095,0.00092,0.00132,0.01056,0.00112,0,0,0,0,0
2.48,0.19436,-1.48966,0.00281,0.01122,0.00096,0.00100,0.00093,0.00102,0.00281,0.00109,0,0,0,0,0
2.49,0.20051,-1.47924,0.00072,0.00339,0.00080,0.00076,0.00080,0.00082,0.00377,0.00103,0,0,0,0,0
2.50,0.19858,-1.48041,0.00059,0.00186,0.00073,0.00067,0.00103,0.00093,0.00465,0.00168,0,0,0,0,1
2.51,0.19391,-1.48063,0.00062,0.00188,0.00071,0.00068,0.00186,0.00096,0.00318,0.00316,0,0,0,0,0
2.52,0.19235,-1.48055,0.00061,0.00122,0.00072,0.00065,0.00187,0.00088,0.00323,0.00332,0,0,0,0,0
2.53,0.19297,-1.48121,0.00057,0.00108,0.00076,0.00064,0.00162,0.00077,0.00311,0.00202,0,0,0,0,0
2.54,0.19378,-1.48105,0.00057,0.00103,0.00077,0.00060,0.00192,0.00067,0.00252,0.00171,0,0,0,0,0
2.55,0.19331,-1.47767,0.00057,0.00098,0.00072,0.00057,0.00180,0.00062,0.00907,0.00178,0,0,0,0,0
2.56,0.19237,-1.48055,0.00058,0.00103,0.00072,0.00061,0.00205,0.00064,0.00214,0.00168,0,0,0,0,0
2.57,0.19288,-1.47876,0.00058,0.00102,0.00076,0.00063,0.00195,0.00073,0.00746,0.00193,0,0,0,0,0
2.58,0.19384,-1.48127,0.00055,0.00098,0.00238,0.00116,0.00162,0.00076,0.00357,0.00188,0,0,0,0,0
2.59,0.19445,-1.48249,0.00055,0.00085,0.00384,0.00129,0.00168,0.00072,0.00750,0.00155,0,0,0,0,0
2.60,0.19461,-1.48237,0.00057,0.00106,0.00233,0.00106,0.00134,0.00069,0.00487,0.00147,0,0,0,0,0
2.61,0.19475,-1.48156,0.00059,0.00122,0.00093,0.00088,0.00078,0.00067,0.00403,0.00152,0,0,0,0,0
2.62,0.19458,-1.48073,0.00169,0.00526,0.00086,0.00059,0.00071,0.00057,0.00381,0.00154,0,0,0,0,0
2.63,0.19372,-1.48083,0.00476,0.01384,0.00074,0.00064,0.00142,0.00070,0.00627,0.00265,0,0,0,0,0
2.64,0.19366,-1.48102,0.00418,0.01175,0.00073,0.00068,0.00213,0.00082,0.00092,0.00528,0,0,0,1,0
2.65,0.19444,-1.48060,0.00233,0.00820,0.00074,0.00064,0.00179,0.00142,0.00573,0.00621,0,0,0,0,0
2.66,0.19465,-1.48181,0.00220,0.00932,0.00072,0.00061,0.00162,0.00275,0.00432,0.00529,0,0,0,0,0
2.67,0.19460,-1.48384,0.00249,0.01106,0.00066,0.00057,0.00147,0.00340,-0.00052,0.00350,0,0,0,0,0
2.68,0.19480,-1.48202,0.00460,0.01797,0.00064,0.00051,0.00112,0.00288,0.00421,0.00140,0,0,0,0,0
2.69,0.19449,-1.48138,0.00737,0.02109,0.00071,0.00060,0.00081,0.00214,0.00391,0.00096,0,0,0,0,0
2.70,0.19450,-1.48015,0.00560,0.01558,0.00074,0.00062,0.00054,0.00149,0.00305,0.00142,0,0,0,0,0
2.71,0.19382,-1.48047,0.00135,0.00784,0.00085,0.00066,0.00053,0.00085,0.00284,0.00145,0,0,0,0,0
2.72,0.19385,-1.48052,0.00062,0.00425,0.00092,0.00079,0.00072,0.00076,0.00370,0.00106,0,0,0,0,0
2.73,0.19335,-1.48020,0.00063,0.00173,0.00082,0.00078,0.00084,0.00101,0.00336,0.00087,0,0,0,0,1
2.74,0.19270,-1.48116,0.00063,0.00124,0.00082,0.00078,0.00160,0.00121,0.00284,0.00114,0,0,0,0,0
2.75,0.19278,-1.47715,0.00079,0.00146,0.00119,0.00129,0.00258,0.00128,0.00355,0.00153,0,0,0,0,0
2.76,0.19440,-1.48185,0.00072,0.00185,0.00336,0.00163,0.00225,0.00115,0.00588,0.00165,0,0,0,0,0
2.77,0.19634,-1.48167,0.00057,0.00171,0.00339,0.00139,0.00205,0.00100,0.00500,0.00202,0,0,0,0,0
2.78,0.19696,-1.48156,0.00060,0.00175,0.00298,0.00139,0.00184,0.00101,0.00229,0.00174,0,0,0,0,0
2.79,0.19550,-1.47702,0.00057,0.00177,0.00308,0.00146,0.00096,0.00080,0.00353,0.00149,0,0,0,0,0
2.80,0.19441,-1.48062,0.00060,0.00122,0.00157,0.00121,0.00060,0.00061,0.00329,0.00138,0,0,0,0,0
2.81,0.19454,-1.48236,0.00132,0.00555,0.00111,0.00081,0.00139,0.00063,0.00493,0.00268,0,0,0,0,0
2.82,0.19519,-1.47986,0.00189,0.01132,0.00078,0.00059,0.00265,0.00065,-0.01742,0.00435,0,0,0,1,0
2.83,0.19564,-1.48093,0.00202,0.01226,0.00074,0.00058,0.00298,0.00088,0.00409,0.00566,0,0,0,0,0
2.84,0.19513,-1.47821,0.00232,0.00849,0.00073,0.00057,0.00219,0.00184,-0.00178,0.00751,0,0,0,0,0
2.85,0.19527,-1.48045,0.00210,0.00576,0.00072,0.00056,0.00173,0.00276,0.00002,0.00675,0,0,0,0,0
2.86,0.19646,-1.47975,0.00155,0.00562,0.00075,0.00056,0.00204,0.00210,-0.00143,0.00473,0,0,0,0,0
2.87,0.19665,-1.48031,0.00180,0.00736,0.00075,0.00052,0.00192,0.00122,0.00271,0.00420,0,0,0,0,0
2.88,0.19634,-1.47912,0.00219,0.01238,0.00072,0.00054,0.00226,0.00119,-0.00187,0.00452,0,0,0,0,0
2.89,0.19431,-1.47874,0.00358,0.01297,0.00094,0.00063,0.00285,0.00155,0.00283,0.00405,0,0,0,0,0
2.90,0.19323,-1.48161,0.00372,0.01329,0.00096,0.00064,0.00180,0.00207,0.00206,0.00227,0,0,0,0,0
2.91,0.19318,-1.48108,0.00505,0.01759,0.00074,0.00056,0.00069,0.00174,0.00239,0.00110,0,0,0,0,0
2.92,0.19322,-1.48043,0.00661,0.01621,0.00080,0.00061,0.00061,0.00118,0.00349,0.00143,0,0,0,0,0
2.93,0.19325,-1.48081,0.00341,0.00734,0.00087,0.00069,0.00071,0.00085,0.00388,0.00118,0,0,0,0,0
2.94,0.19397,-1.48179,0.00060,0.00124,0.00082,0.00072,0.00082,0.00088,0.00370,0.00076,0,0,0,0,0
2.95,0.19326,-1.47780,0.00053,0.00114,0.00083,0.00081,0.00096,0.00094,0.00391,0.00113,0,0,0,0,1
2.96,0.19269,-1.48523,0.00059,0.00113,0.00084,0.00078,0.00152,0.00095,0.00240,0.00136,0,0,0,0,0
2.97,0.19254,-1.48046,0.00063,0.00094,0.00087,0.00099,0.00236,0.00087,0.00147,0.00134,0,0,0,0,0
2.98,0.19332,-1.48155,0.00065,0.00112,0.00089,0.00098,0.00287,0.00073,0.00203,0.00152,0,0,0,0,0
2.99,0.19454,-1.48069,0.00064,0.00099,0.00081,0.00066,0.00229,0.00069,0.00439,0.00190,0,0,0,0,0
3.00,0.19441,-1.48224,0.00061,0.00083,0.00082,0.00068,0.00150,0.00066,0.00218,0.00160,0,0,0,0,0
3.01,0.19384,-1.48056,0.00059,0.00100,0.00090,0.00106,0.00134,0.00069,0.00467,0.00111,0,0,0,0,0
3.02,0.19318,-1.48092,0.00061,0.00116,0.00101,0.00146,0.00108,0.00077,0.01172,0.00111,0,0,0,0,0
3.03,0.19309,-1.48082,0.00061,0.00104,0.00099,0.00133,0.00083,0.00070,-0.01038,0.00092,0,0,0,0,0
3.04,0.19383,-1.47701,0.00060,0.00105,0.00088,0.00091,0.00067,0.00061,0.01341,0.00087,0,0,0,0,0
3.05,0.19408,-1.48025,0.00091,0.00171,0.00072,0.00065,0.00060,0.00059,0.03432,0.00098,0,0,0,0,0
3.06,0.19394,-1.48332,0.00404,0.00662,0.00073,0.00063,0.00125,0.00059,0.00529,0.00285,0,0,0,0,0
3.07,0.19465,-1.48156,0.00676,0.01125,0.00079,0.00057,0.00209,0.00064,0.00959,0.00471,0,0,0,0,0
3.08,0.19522,-1.48004,0.00392,0.00993,0.00076,0.00053,0.00218,0.00072,-0.00358,0.00456,0,0,0,1,0
3.09,0.19500,-1.48030,0.00250,0.00960,0.00073,0.00054,0.00160,0.00134,0.00554,0.00529,0,0,0,0,0
3.10,0.19415,-1.48058,0.00299,0.00670,0.00068,0.00052,0.00138,0.00253,0.00259,0.00593,0,0,0,0,0
3.11,0.19441,-1.48216,0.00222,0.00874,0.00069,0.00051,0.00110,0.00321,0.00391,0.00423,0,0,0,0,0
3.12,0.19490,-1.47945,0.00236,0.01282,0.00069,0.00055,0.00098,0.00289,0.00716,0.00210,0,0,0,0,0
3.13,0.19460,-1.48151,0.00312,0.01296,0.00067,0.00060,0.00105,0.00228,0.00141,0.00113,0,0,0,0,0
3.14,0.19417,-1.47959,0.00402,0.01344,0.00073,0.00061,0.00069,0.00151,0.00512,0.00119,0,0,0,0,0
3.15,0.19409,-1.47910,0.00328,0.01097,0.00075,0.00060,0.00060,0.00092,0.00280,0.00165,0,0,0,0,0
3.16,0.19380,-1.48111,0.00155,0.00736,0.00078,0.00055,0.00055,0.00084,0.00396,0.00183,0,0,0,0,0
3.17,0.19400,-1.48071,0.00070,0.00304,0.00084,0.00065,0.00061,0.00086,0.00392,0.00118,0,0,0,0,0
3.18,0.19408,-1.47913,0.00062,0.00344,0.00083,0.00081,0.00079,0.00087,0.00364,0.00077,0,0,0,0,1
3.19,0.19400,-1.47962,0.00066,0.00328,0.00079,0.00071,0.00095,0.00096,0.00422,0.00082,0,0,0,0,0
3.20,0.19400,-1.47985,0.00062,0.00097,0.00080,0.00066,0.00132,0.00105,0.00256,0.00132,0,0,0,0,0
3.21,0.19354,-1.48072,0.00053,0.00108,0.00089,0.00098,0.00148,0.00098,0.00338,0.00135,0,0,0,0,0
3.22,0.19327,-1.48132,0.00053,0.00103,0.00097,0.00124,0.00181,0.00086,0.00345,0.00101,0,0,0,0,0
3.23,0.19219,-1.48267,0.00061,0.00087,0.00096,0.00125,0.00219,0.00082,0.00402,0.00104,0,0,0,0,0
3.24,0.19209,-1.48060,0.00062,0.00095,0.00083,0.00097,0.00177,0.00083,0.00438,0.00109,0,0,0,0,0
3.25,0.19309,-1.48035,0.00061,0.00094,0.00074,0.00059,0.00158,0.00076,0.00327,0.00110,0,0,0,0,0
3.26,0.19493,-1.48183,0.00064,0.00077,0.00069,0.00056,0.00189,0.00066,0.00250,0.00105,0,0,0,0,0
3.27,0.19577,-1.48048,0.00063,0.00082,0.00070,0.00087,0.00155,0.00070,0.00324,0.00106,0,0,0,0,0
3.28,0.19556,-1.48030,0.00061,0.00086,0.00075,0.00086,0.00109,0.00064,0.00201,0.00088,0,0,0,0,0
3.29,0.19543,-1.48010,0.00063,0.00094,0.00078,0.00058,0.00096,0.00057,0.00417,0.00076,0,0,0,0,0
3.30,0.19480,-1.47969,0.00121,0.00474,0.00083,0.00058,0.00068,0.00058,0.00444,0.00092,0,0,0,0,0
3.31,0.19465,-1.48056,0.00379,0.01303,0.00077,0.00059,0.00081,0.00091,-0.00020,0.00187,0,0,0,0,0
3.32,0.19442,-1.48133,0.00394,0.01403,0.00073,0.00056,0.00159,0.00100,0.00322,0.00398,0,0,0,1,0
3.33,0.19392,-1.48109,0.00249,0.00999,0.00072,0.00054,0.00170,0.00073,-0.00255,0.00465,0,0,0,0,0
3.34,0.19337,-1.47994,0.00465,0.00952,0.00074,0.00069,0.00124,0.00091,0.00189,0.00547,0,0,0,0,0
3.35,0.19292,-1.48044,0.00421,0.00715,0.00072,0.00064,0.00124,0.00125,0.00309,0.00528,0,0,0,0,0
3.36,0.19309,-1.47971,0.00217,0.00620,0.00071,0.00048,0.00132,0.00200,0.00190,0.00304,0,0,0,0,0
3.37,0.19301,-1.48186,0.00210,0.01234,0.00073,0.00055,0.00111,0.00281,0.00106,0.00186,0,0,0,0,0
3.38,0.19271,-1.48192,0.00272,0.01427,0.00074,0.00060,0.00102,0.00229,0.00287,0.00106,0,0,0,0,0
3.39,0.19186,-1.47868,0.00467,0.00963,0.00077,0.00060,0.00101,0.00156,0.00359,0.00101,0,0,0,0,0
3.40,0.19227,-1.47890,0.00492,0.01010,0.00074,0.00061,0.00070,0.00130,0.00334,0.00104,0,0,0,0,0
3.41,0.19311,-1.48105,0.00580,0.01283,0.00078,0.00064,0.00060,0.00094,0.00440,0.00088,0,0,0,0,0
3.42,0.19371,-1.47894,0.00447,0.00893,0.00084,0.00069,0.00065,0.00074,0.00387,0.00082,0,0,0,0,0
3.43,0.19346,-1.48228,0.00105,0.00331,0.00080,0.00070,0.00074,0.00087,0.00345,0.00096,0,0,0,0,0
3.44,0.19388,-1.48010,0.00056,0.00154,0.00075,0.00071,0.00100,0.00106,0.00452,0.00107,0,0,0,0,1
3.45,0.19478,-1.47533,0.00062,0.00120,0.00083,0.00076,0.00097,0.00103,0.00298,0.00101,0,1,0,0,0
3.46,0.19488,-1.43666,0.00062,0.00106,0.00084,0.00067,0.00090,0.00087,0.00336,0.00095,0,0,0,0,0
3.47,0.19538,-1.33139,0.00068,0.00093,0.00088,0.00096,0.00159,0.00077,0.00392,0.00119,0,0,0,0,0
3.48,0.19696,-1.17096,0.00068,0.00088,0.00265,0.00099,0.00307,0.00076,0.00410,0.00160,0,0,0,0,0
3.49,0.19775,-0.97272,0.00058,0.00087,0.00295,0.00064,0.00319,0.00071,0.01090,0.00164,0,0,0,0,0
3.50,0.19644,-0.72430,0.00061,0.00094,0.00237,0.00060,0.00185,0.00066,0.00270,0.00166,0,0,0,0,0
3.51,0.19477,-0.45643,0.00058,0.00092,0.00213,0.00060,0.00129,0.00059,0.00099,0.00132,0,0,0,0,0
3.52,0.19486,-0.17896,0.00073,0.00118,0.00094,0.00080,0.00118,0.00069,0.00322,0.00085,0,0,0,0,0
3.53,0.19526,0.12979,0.00071,0.00110,0.00097,0.00093,0.00080,0.00071,0.00360,0.00108,0,0,0,0,0
3.54,0.19458,0.41098,0.00072,0.00079,0.00096,0.00075,0.00057,0.00063,0.00292,0.00132,0,0,0,0,0
3.55,0.19414,0.69672,0.00076,0.00083,0.00088,0.00065,0.00061,0.00063,0.00312,0.00100,0,0,0,0,0
3.56,0.19345,0.93701,0.00059,0.00076,0.00064,0.00063,0.00058,0.00064,0.00371,0.00108,0,0,0,0,0
3.57,0.19365,1.14066,0.00136,0.00391,0.00063,0.00053,0.00079,0.00062,0.00648,0.00196,0,0,0,0,0
3.58,0.19489,1.30361,0.00235,0.00889,0.00074,0.00054,0.00153,0.00063,0.00328,0.00498,0,0,0,0,0
3.59,0.19494,1.42300,0.00240,0.01221,0.00072,0.00056,0.00153,0.00072,-0.00630,0.00595,0,0,0,0,0
3.60,0.19515,1.47489,0.00181,0.01018,0.00066,0.00056,0.00110,0.00078,0.00468,0.00615,0,0,0,0,0
3.61,0.19523,1.48123,0.00239,0.00851,0.00065,0.00056,0.00124,0.00078,0.00853,0.00698,0,0,0,1,0
3.62,0.19528,1.48345,0.00330,0.01004,0.00062,0.00055,0.00124,0.00089,0.00082,0.00568,0,0,0,0,0
3.63,0.19648,1.48901,0.00212,0.01147,0.00069,0.00053,0.00105,0.00161,-0.00004,0.00502,0,0,0,0,0
3.64,0.19607,1.48479,0.00441,0.01203,0.00074,0.00056,0.00087,0.00366,0.00404,0.00310,0,0,0,0,0
3.65,0.19550,1.48396,0.00680,0.01241,0.00070,0.00059,0.00076,0.00348,0.00620,0.00108,0,0,0,0,0
3.66,0.19508,1.48171,0.00868,0.02054,0.00068,0.00058,0.00070,0.00157,0.00300,0.00094,0,0,0,0,0
3.67,0.19479,1.48507,0.00953,0.01989,0.00070,0.00058,0.00058,0.00110,0.00358,0.00123,0,0,0,0,0
3.68,0.19408,1.48415,0.00516,0.01110,0.00082,0.00066,0.00053,0.00076,0.00397,0.00106,0,0,0,0,0
3.69,0.19325,1.48315,0.00208,0.00809,0.00084,0.00074,0.00067,0.00071,0.00273,0.00116,0,0,0,0,0
3.70,0.19242,1.48401,0.00107,0.00733,0.00090,0.00072,0.00091,0.00106,0.00371,0.00155,0,0,0,0,1
3.71,0.19188,1.48563,0.00065,0.00461,0.00106,0.00071,0.00153,0.00111,0.00311,0.00318,0,0,0,0,0
3.72,0.19252,1.48538,0.00063,0.00074,0.00097,0.00066,0.00209,0.00080,0.00705,0.00519,0,0,0,0,0
3.73,0.19352,1.48247,0.00058,0.00069,0.00082,0.00058,0.00174,0.00067,0.00420,0.00393,0,0,0,0,0
3.74,0.19413,1.48283,0.00058,0.00097,0.00076,0.00062,0.00142,0.00075,0.00327,0.00176,0,0,0,0,0
3.75,0.19365,1.48440,0.00057,0.00112,0.00078,0.00067,0.00195,0.00078,0.00585,0.00125,0,0,0,0,0
3.76,0.19298,1.48387,0.00060,0.00093,0.00080,0.00067,0.00226,0.00070,-0.00206,0.00150,0,0,0,0,0
3.77,0.19293,1.48533,0.00062,0.00092,0.00081,0.00096,0.00198,0.00072,0.00421,0.00183,0,0,0,0,0
3.78,0.19227,1.48417,0.00062,0.00110,0.00080,0.00119,0.00169,0.00078,0.00211,0.00154,0,0,0,0,0
3.79,0.19290,1.48362,0.00059,0.00116,0.00087,0.00127,0.00215,0.00083,-0.00001,0.00137,0,0,0,0,0
3.80,0.19388,1.48345,0.00062,0.00114,0.00091,0.00136,0.00219,0.00080,0.00288,0.00141,0,0,0,0,0
3.81,0.19416,1.48295,0.00058,0.00111,0.00096,0.00092,0.00167,0.00071,0.00450,0.00130,0,0,0,0,0
3.82,0.19376,1.48574,0.00057,0.00157,0.00091,0.00060,0.00136,0.00067,0.00225,0.00109,0,0,0,0,0
3.83,0.19384,1.48654,0.00344,0.01117,0.00080,0.00065,0.00100,0.00072,0.00316,0.00120,0,0,0,0,0
3.84,0.19424,1.48408,0.00607,0.01659,0.00078,0.00063,0.00191,0.00084,0.00475,0.00245,0,0,0,1,0
3.85,0.19479,1.48424,0.00401,0.01241,0.00071,0.00055,0.00241,0.00124,0.00305,0.00500,0,0,0,0,0
3.86,0.19537,1.48438,0.00283,0.01018,0.00074,0.00054,0.00173,0.00343,-0.00186,0.00440,0,0,0,0,0
3.87,0.19492,1.48563,0.00557,0.01156,0.00081,0.00053,0.00129,0.00468,0.00390,0.00207,0,0,0,0,0
3.88,0.19454,1.48340,0.00823,0.01806,0.00075,0.00054,0.00088,0.00318,0.00367,0.00127,0,0,0,0,0
3.89,0.19464,1.48393,0.00722,0.01709,0.00068,0.00053,0.00063,0.00234,0.00376,0.00100,0,0,0,0,0
3.90,0.19402,1.48424,0.00482,0.01210,0.00076,0.00056,0.00059,0.00154,0.00400,0.00113,0,0,0,0,0
3.91,0.19449,1.48456,0.00221,0.01065,0.00086,0.00060,0.00059,0.00089,0.00268,0.00147,0,0,0,0,0
3.92,0.19524,1.48471,0.00075,0.00570,0.00081,0.00077,0.00075,0.00092,0.00510,0.00141,0,0,0,0,0
3.93,0.19522,1.48510,0.00060,0.00254,0.00069,0.00080,0.00091,0.00097,0.00336,0.00097,0,0,0,0,1
3.94,0.19446,1.48453,0.00063,0.00268,0.00084,0.00078,0.00138,0.00100,0.00328,0.00112,0,0,0,0,0
3.95,0.19424,1.48394,0.00066,0.00123,0.00109,0.00093,0.00195,0.00106,0.00341,0.00138,0,0,0,0,0
3.96,0.19513,1.48312,0.00066,0.00154,0.00127,0.00128,0.00251,0.00100,0.00237,0.00193,0,0,0,0,0
3.97,0.19660,1.48465,0.00066,0.00222,0.00301,0.00147,0.00252,0.00089,0.00397,0.00222,0,0,0,0,0
3.98,0.19594,1.48452,0.00067,0.00192,0.00284,0.00126,0.00148,0.00083,0.00403,0.00172,0,0,0,0,0
3.99,0.19400,1.48433,0.00069,0.00151,0.00112,0.00121,0.00080,0.00082,0.00371,0.00114,0,0,0,0,0
4.00,0.19343,1.48496,0.00059,0.00172,0.00142,0.00133,0.00065,0.00078,0.00347,0.00107,0,0,0,0,0
4.01,0.19285,1.47951,0.00058,0.00150,0.00122,0.00106,0.00059,0.00058,0.00336,0.00098,0,0,0,0,0
4.02,0.19319,1.48373,0.00267,0.00416,0.00077,0.00061,0.00195,0.00069,0.07316,0.00162,0,0,0,0,0
4.03,0.19408,1.48251,0.00297,0.00869,0.00074,0.00055,0.00311,0.00076,0.01537,0.00388,0,0,0,1,0
4.04,0.19393,1.48472,0.00224,0.01035,0.00067,0.00057,0.00245,0.00074,-0.01110,0.00578,0,0,0,0,0
4.05,0.19506,1.48678,0.00254,0.01041,0.00067,0.00060,0.00210,0.00189,0.01742,0.00583,0,0,0,0,0
4.06,0.19579,1.48185,0.00196,0.00960,0.00067,0.00062,0.00209,0.00287,-0.00590,0.00616,0,0,0,0,0
4.07,0.19600,1.48590,0.00272,0.01000,0.00074,0.00061,0.00182,0.00299,-0.00231,0.00586,0,0,0,0,0
4.08,0.19484,1.48488,0.00521,0.01083,0.00071,0.00062,0.00175,0.00348,0.00703,0.00393,0,0,0,0,0
4.09,0.19380,1.48392,0.00539,0.01211,0.00064,0.00060,0.00135,0.00328,-0.00397,0.00257,0,0,0,0,0
4.10,0.19411,1.48303,0.00532,0.01299,0.00073,0.00063,0.00113,0.00264,0.00759,0.00135,0,0,0,0,0
4.11,0.19478,1.48315,0.00701,0.01730,0.00071,0.00065,0.00098,0.00198,0.00183,0.00080,0,0,0,0,0
4.12,0.19454,1.48538,0.00950,0.02078,0.00067,0.00062,0.00056,0.00155,0.00320,0.00092,0,0,0,0,0
4.13,0.19449,1.48516,0.00931,0.01536,0.00084,0.00068,0.00055,0.00119,0.00452,0.00104,0,0,0,0,0
4.14,0.19470,1.48504,0.00382,0.00837,0.00094,0.00069,0.00053,0.00080,0.00240,0.00106,0,0,0,0,0
4.15,0.19464,1.48458,0.00071,0.00409,0.00087,0.00068,0.00076,0.00072,0.00574,0.00106,0,0,0,0,0
4.16,0.19456,1.48461,0.00055,0.00230,0.00072,0.00066,0.00097,0.00075,0.00263,0.00122,0,0,0,0,1
4.17,0.19471,1.48560,0.00064,0.00172,0.00070,0.00072,0.00120,0.00080,0.00153,0.00114,0,0,0,0,0
4.18,0.19497,1.48274,0.00065,0.00103,0.00094,0.00114,0.00125,0.00079,0.00364,0.00097,0,0,0,0,0
4.19,0.19483,1.48536,0.00060,0.00131,0.00100,0.00110,0.00133,0.00076,0.00245,0.00114,0,0,0,0,0
4.20,0.19473,1.48615,0.00063,0.00127,0.00082,0.00065,0.00158,0.00074,0.00543,0.00120,0,0,0,0,0
4.21,0.19405,1.48418,0.00061,0.00115,0.00080,0.00089,0.00185,0.00070,0.00411,0.00130,0,0,0,0,0
4.22,0.19322,1.48483,0.00061,0.00131,0.00088,0.00115,0.00183,0.00070,0.00406,0.00160,0,0,0,0,0
4.23,0.19170,1.48395,0.00056,0.00151,0.00104,0.00088,0.00126,0.00070,0.00261,0.00161,0,0,0,0,0
4.24,0.19179,1.48466,0.00056,0.00155,0.00106,0.00115,0.00087,0.00076,0.00308,0.00140,0,0,0,0,0
4.25,0.19214,1.48784,0.00059,0.00144,0.00092,0.00143,0.00075,0.00074,0.00336,0.00120,0,0,0,0,0
4.26,0.19401,1.48295,0.00062,0.00157,0.00094,0.00119,0.00071,0.00067,0.00391,0.00108,0,0,0,0,0
4.27,0.19575,1.48520,0.00062,0.00154,0.00093,0.00096,0.00065,0.00063,0.00236,0.00085,0,0,0,0,0
4.28,0.19670,1.48341,0.00085,0.00116,0.00082,0.00068,0.00060,0.00055,0.00298,0.00080,0,0,0,0,0
4.29,0.19704,1.48425,0.00297,0.00684,0.00075,0.00055,0.00182,0.00059,0.00294,0.00142,0,0,0,0,0
4.30,0.19564,1.48459,0.00775,0.01012,0.00075,0.00057,0.00286,0.00074,0.00060,0.00338,0,0,0,1,0
4.31,0.19475,1.48573,0.00686,0.00956,0.00074,0.00058,0.00258,0.00176,0.00758,0.00490,0,0,0,0,0
4.32,0.19458,1.48352,0.00267,0.01057,0.00074,0.00054,0.00200,0.00293,0.00310,0.00403,0,0,0,0,0
4.33,0.19405,1.48581,0.00266,0.01196,0.00075,0.00052,0.00146,0.00369,0.00067,0.00299,0,0,0,0,0
4.34,0.19403,1.48485,0.00515,0.01210,0.00072,0.00057,0.00119,0.00424,0.00308,0.00208,0,0,0,0,0
4.35,0.19342,1.48440,0.00898,0.01671,0.00070,0.00060,0.00114,0.00403,0.00265,0.00111,0,0,0,0,0
4.36,0.19341,1.48331,0.00873,0.02115,0.00069,0.00062,0.00103,0.00270,0.00337,0.00118,0,0,0,0,0
4.37,0.19311,1.48555,0.00625,0.01722,0.00074,0.00062,0.00078,0.00173,0.00340,0.00110,0,0,0,0,0
4.38,0.19203,1.47981,0.00454,0.01347,0.00082,0.00064,0.00057,0.00113,0.00417,0.00102,0,0,0,0,0
4.39,0.19252,1.48574,0.00198,0.00846,0.00083,0.00069,0.00064,0.00068,0.00406,0.00110,0,0,0,0,0
4.40,0.19387,1.48421,0.00062,0.00382,0.00076,0.00070,0.00072,0.00079,0.00319,0.00096,0,0,0,0,1
4.41,0.19533,1.48391,0.00065,0.00132,0.00070,0.00064,0.00088,0.00086,0.00300,0.00308,0,0,0,0,0
4.42,0.19562,1.48590,0.00067,0.00093,0.00078,0.00065,0.00127,0.00089,-0.00032,0.00448,0,0,0,0,0
4.43,0.19580,1.48365,0.00070,0.00114,0.00084,0.00067,0.00145,0.00087,0.00259,0.00264,0,0,0,0,0
4.44,0.19567,1.48408,0.00062,0.00106,0.00082,0.00065,0.00160,0.00080,0.00273,0.00129,0,0,0,0,0
4.45,0.19603,1.48470,0.00060,0.00097,0.00080,0.00097,0.00195,0.00078,0.00351,0.00111,0,0,0,0,0
4.46,0.19588,1.48561,0.00061,0.00094,0.00080,0.00097,0.00207,0.00067,-0.00002,0.00104,0,0,0,0,0
4.47,0.19566,1.48442,0.00060,0.00097,0.00093,0.00115,0.00223,0.00063,0.00214,0.00121,0,0,0,0,0
4.48,0.19465,1.48380,0.00059,0.00125,0.00098,0.00140,0.00280,0.00078,0.00965,0.00150,0,0,0,0,0
4.49,0.19416,1.48407,0.00056,0.00152,0.00107,0.00136,0.00269,0.00079,0.00760,0.00141,0,0,0,0,0
4.50,0.19385,1.48267,0.00055,0.00144,0.00107,0.00111,0.00139,0.00066,0.00269,0.00121,0,0,0,0,0
4.51,0.19340,1.48419,0.00054,0.00149,0.00097,0.00109,0.00101,0.00066,0.00431,0.00119,0,0,0,0,0
4.52,0.19313,1.48493,0.00058,0.00134,0.00097,0.00118,0.00089,0.00062,0.00225,0.00090,0,0,0,0,0
4.53,0.19322,1.48370,0.00152,0.00623,0.00079,0.00078,0.00076,0.00068,0.00284,0.00103,0,0,0,0,0
4.54,0.19307,1.48437,0.00494,0.01052,0.00072,0.00063,0.00229,0.00074,0.00539,0.00266,0,0,0,1,0
4.55,0.19246,1.48477,0.00574,0.00983,0.00075,0.00055,0.00278,0.00073,0.00463,0.00401,0,0,0,0,0
4.56,0.19243,1.48307,0.00392,0.01017,0.00075,0.00054,0.00179,0.00202,0.01111,0.00431,0,0,0,0,0
4.57,0.19292,1.48295,0.00285,0.00910,0.00070,0.00055,0.00183,0.00363,0.00159,0.00439,0,0,0,0,0
4.58,0.19325,1.48607,0.00203,0.00790,0.00065,0.00053,0.00175,0.00344,0.00408,0.00308,0,0,0,0,0
4.59,0.19358,1.48447,0.00224,0.00813,0.00066,0.00057,0.00119,0.00225,-0.00309,0.00223,0,0,0,0,0
4.60,0.19336,1.48375,0.00320,0.01052,0.00070,0.00061,0.00105,0.00270,0.00355,0.00161,0,0,0,0,0
4.61,0.19409,1.48386,0.00392,0.01208,0.00070,0.00058,0.00128,0.00284,0.00356,0.00075,0,0,0,0,0
4.62,0.19464,1.48824,0.00405,0.01132,0.00069,0.00052,0.00091,0.00155,0.00416,0.00094,0,0,0,0,0
4.63,0.19451,1.48464,0.00737,0.01120,0.00075,0.00055,0.00050,0.00138,0.00346,0.00100,0,0,0,0,0
4.64,0.19481,1.48504,0.00648,0.01015,0.00078,0.00062,0.00052,0.00115,0.00336,0.00091,0,0,0,0,0
4.65,0.19432,1.48331,0.00209,0.00822,0.00082,0.00066,0.00055,0.00079,0.00352,0.00088,0,0,0,0,0
4.66,0.19457,1.48474,0.00111,0.00452,0.00082,0.00064,0.00063,0.00084,0.00346,0.00096,0,0,0,0,0
4.67,0.19475,1.48499,0.00058,0.00134,0.00081,0.00066,0.00091,0.00090,0.00325,0.00086,0,0,0,0,1
4.68,0.19456,1.48296,0.00064,0.00135,0.00077,0.00077,0.00117,0.00097,0.00121,0.00101,0,0,0,0,0
4.69,0.19356,1.48446,0.00091,0.00140,0.00084,0.00107,0.00149,0.00096,0.00386,0.00122,0,0,0,0,0
4.70,0.19331,1.48461,0.00087,0.00128,0.00095,0.00135,0.00173,0.00092,0.00150,0.00110,0,0,0,0,0
4.71,0.19393,1.48464,0.00056,0.00120,0.00260,0.00127,0.00208,0.00083,0.00427,0.00128,0,0,0,0,0
4.72,0.19460,1.48562,0.00056,0.00113,0.00260,0.00116,0.00253,0.00073,0.00472,0.00125,0,0,0,0,0
4.73,0.19458,1.48322,0.00061,0.00119,0.00094,0.00086,0.00239,0.00068,0.00342,0.00110,0,0,0,0,0
4.74,0.19434,1.48626,0.00063,0.00134,0.00104,0.00091,0.00187,0.00075,0.00408,0.00125,0,0,0,0,0
4.75,0.19397,1.48641,0.00066,0.00156,0.00125,0.00123,0.00112,0.00068,0.00316,0.00128,0,0,0,0,0
4.76,0.19379,1.48256,0.00064,0.00127,0.00112,0.00092,0.00066,0.00055,0.00350,0.00120,0,0,0,0,0
4.77,0.19459,1.48461,0.00064,0.00087,0.00090,0.00086,0.00061,0.00056,0.00419,0.00104,0,0,0,0,0
4.78,0.19429,1.48209,0.00147,0.00312,0.00083,0.00087,0.00062,0.00061,0.00399,0.00086,0,0,0,0,0
4.79,0.19402,1.48434,0.00245,0.00890,0.00076,0.00060,0.00187,0.00067,-0.01355,0.00260,0,0,0,1,0
4.80,0.19425,1.48370,0.00465,0.01132,0.00075,0.00067,0.00324,0.00212,0.01729,0.00606,0,0,0,0,0
4.81,0.19486,1.48590,0.00591,0.01075,0.00078,0.00065,0.00258,0.00313,-0.02660,0.00679,0,0,0,0,0
4.82,0.19553,1.48597,0.00553,0.01264,0.00075,0.00056,0.00229,0.00453,0.00293,0.00599,0,0,0,0,0
4.83,0.19560,1.48373,0.00394,0.01069,0.00068,0.00054,0.00206,0.00439,0.00248,0.00396,0,0,0,0,0
4.84,0.19648,1.48540,0.00232,0.00965,0.00069,0.00054,0.00147,0.00309,0.00397,0.00201,0,0,0,0,0
4.85,0.19712,1.48649,0.00216,0.01049,0.00068,0.00054,0.00125,0.00310,0.00264,0.00218,0,0,0,0,0
4.86,0.19737,1.48322,0.00369,0.01163,0.00070,0.00055,0.00112,0.00285,0.00510,0.00158,0,0,0,0,0
4.87,0.19671,1.48485,0.00412,0.01423,0.00074,0.00055,0.00104,0.00213,0.00345,0.00096,0,0,0,0,0
4.88,0.19628,1.48372,0.00527,0.01357,0.00069,0.00055,0.00059,0.00153,0.00318,0.00083,0,0,0,0,0
4.89,0.19585,1.48178,0.00695,0.01322,0.00063,0.00058,0.00056,0.00142,0.00213,0.00106,0,0,0,0,0
4.90,0.19627,1.45282,0.00594,0.01218,0.00074,0.00064,0.00058,0.00078,0.00310,0.00123,0,0,0,0,0
4.91,0.19571,1.35668,0.00360,0.00860,0.00097,0.00081,0.00083,0.00073,0.00305,0.00148,0,0,1,0,0
4.92,0.19361,1.21783,0.00076,0.00358,0.00092,0.00083,0.00093,0.00072,0.00256,0.00123,0,0,0,0,0
4.93,0.19375,1.01276,0.00055,0.00260,0.00076,0.00067,0.00084,0.00077,0.00289,0.00085,0,0,0,0,1
4.94,0.19362,0.78711,0.00059,0.00257,0.00071,0.00063,0.00106,0.00082,0.00525,0.00112,0,0,0,0,0
4.95,0.19224,0.51059,0.00070,0.00115,0.00083,0.00073,0.00104,0.00097,0.00268,0.00109,0,0,0,0,0
4.96,0.19217,0.23270,0.00071,0.00183,0.00098,0.00101,0.00086,0.00137,0.00299,0.00089,0,0,0,0,0
4.97,0.19101,-0.07427,0.00060,0.00204,0.00099,0.00105,0.00077,0.00164,0.00329,0.00084,0,0,0,0,0
4.98,0.19117,-0.35734,0.00055,0.00167,0.00084,0.00073,0.00085,0.00156,0.00314,0.00081,0,0,0,0,0
4.99,0.19050,-0.65080,0.00058,0.00240,0.00074,0.00066,0.00111,0.00135,0.00347,0.00118,0,0,0,0,0
5.00,0.19026,-0.90513,0.00055,0.00241,0.00081,0.00065,0.00124,0.00105,0.00453,0.00136,0,0,0,0,0
5.01,0.19166,-1.12041,0.00056,0.00137,0.00076,0.00061,0.00131,0.00082,0.00341,0.00151,0,0,0,0,0
5.02,0.19285,-1.29464,0.00078,0.00137,0.00089,0.00105,0.00154,0.00083,0.00480,0.00155,0,0,0,0,0
5.03,0.18118,-1.41197,0.00079,0.00159,0.00095,0.00110,0.00181,0.00087,-0.00010,0.00141,0,0,0,0,0
5.04,0.19630,-1.47032,0.00064,0.00114,0.00095,0.00077,0.00159,0.00085,0.00266,0.00127,0,0,0,0,0
5.05,0.20088,-1.48022,0.00055,0.00134,0.00087,0.00072,0.00131,0.00077,0.00487,0.00108,0,0,0,0,0
5.06,0.19943,-1.48065,0.00053,0.00131,0.00071,0.00063,0.00140,0.00067,0.00423,0.00136,0,0,0,0,0
5.07,0.19668,-1.47988,0.00057,0.00076,0.00079,0.00063,0.00131,0.00071,0.00432,0.00150,0,0,0,0,0
5.08,0.19527,-1.48088,0.00057,0.00074,0.00079,0.00065,0.00099,0.00075,0.00551,0.00109,0,0,0,0,0
5.09,0.19515,-1.48084,0.00059,0.00076,0.00074,0.00064,0.00087,0.00068,0.00318,0.00088,0,0,0,0,0
5.10,0.19566,-1.48110,0.00057,0.00073,0.00082,0.00076,0.00082,0.00065,0.00187,0.00087,0,0,0,0,0
5.11,0.19540,-1.48055,0.00056,0.00076,0.00086,0.00074,0.00067,0.00066,0.00436,0.00082,0,0,0,0,0
5.12,0.19475,-1.47949,0.00056,0.00091,0.00075,0.00060,0.00068,0.00067,0.00292,0.00080,0,0,0,0,0
5.13,0.19424,-1.48115,0.00058,0.00121,0.00069,0.00058,0.00070,0.00066,0.00507,0.00074,0,0,0,0,0
5.14,0.19433,-1.48290,0.00345,0.00881,0.00074,0.00059,0.00076,0.00061,0.00386,0.00194,0,0,0,0,0
5.15,0.19487,-1.48126,0.00725,0.01607,0.00075,0.00058,0.00163,0.00127,0.00366,0.00577,0,0,0,0,0
5.16,0.19528,-1.48144,0.00568,0.01520,0.00075,0.00055,0.00167,0.00154,0.00168,0.00653,0,0,0,1,0
5.17,0.19611,-1.48234,0.00520,0.01415,0.00077,0.00056,0.00128,0.00264,-0.01086,0.00540,0,0,0,0,0
5.18,0.19639,-1.48203,0.00698,0.01693,0.00074,0.00054,0.00119,0.00494,0.00196,0.00393,0,0,0,0,0
5.19,0.19665,-1.48115,0.00749,0.02125,0.00073,0.00058,0.00073,0.00507,0.00330,0.00131,0,0,0,0,0
5.20,0.19640,-1.48351,0.00881,0.02387,0.00071,0.00064,0.00062,0.00272,0.00397,0.00098,0,0,0,0,0
5.21,0.19605,-1.48158,0.00669,0.02151,0.00079,0.00068,0.00061,0.00118,0.00299,0.00110,0,0,0,0,0
5.22,0.19605,-1.47924,0.00238,0.01417,0.00088,0.00071,0.00058,0.00099,0.00333,0.00103,0,0,0,0,0
5.23,0.19609,-1.48118,0.00083,0.00671,0.00081,0.00062,0.00062,0.00091,0.00371,0.00093,0,0,0,0,0
5.24,0.19546,-1.47871,0.00057,0.00166,0.00072,0.00055,0.00097,0.00105,0.00272,0.00211,0,0,0,0,1
5.25,0.19544,-1.48034,0.00072,0.00071,0.00071,0.00063,0.00191,0.00102,0.00359,0.00487,0,0,0,0,0
5.26,0.19457,-1.48073,0.00075,0.00091,0.00074,0.00067,0.00247,0.00087,0.00526,0.00469,0,0,0,0,0
5.27,0.19431,-1.47922,0.00078,0.00115,0.00387,0.00154,0.00267,0.00084,0.00245,0.00225,0,0,0,0,0
5.28,0.19387,-1.48290,0.00092,0.00127,0.00531,0.00203,0.00369,0.00080,0.00583,0.00157,0,0,0,0,0
5.29,0.19297,-1.48095,0.00084,0.00134,0.00232,0.00151,0.00288,0.00071,0.01150,0.00178,0,0,0,0,0
5.30,0.19212,-1.48130,0.00067,0.00142,0.00244,0.00141,0.00145,0.00069,0.00739,0.00171,0,0,0,0,0
5.31,0.19165,-1.48157,0.00065,0.00170,0.00393,0.00168,0.00133,0.00077,0.00285,0.00201,0,0,0,0,0
5.32,0.19180,-1.48095,0.00064,0.00186,0.00265,0.00161,0.00114,0.00084,0.00367,0.00229,0,0,0,0,0
5.33,0.19255,-1.48170,0.00064,0.00160,0.00192,0.00176,0.00098,0.00081,0.00498,0.00205,0,0,0,0,0
5.34,0.19322,-1.48069,0.00087,0.00132,0.00153,0.00142,0.00073,0.00063,0.00444,0.00158,0,0,0,0,0
5.35,0.19365,-1.48360,0.00190,0.00708,0.00070,0.00068,0.00100,0.00061,0.00357,0.00154,0,0,0,1,0
5.36,0.19370,-1.48093,0.00207,0.01173,0.00067,0.00061,0.00156,0.00073,0.00222,0.00312,0,0,0,0,0
5.37,0.19285,-1.47892,0.00218,0.00851,0.00068,0.00054,0.00165,0.00188,0.00511,0.00376,0,0,0,0,0
5.38,0.19356,-1.48107,0.00207,0.00754,0.00071,0.00054,0.00159,0.00212,-0.00306,0.00410,0,0,0,0,0
5.39,0.19482,-1.48012,0.00152,0.00709,0.00077,0.00057,0.00148,0.00184,0.00212,0.00453,0,0,0,0,0
5.40,0.19489,-1.48266,0.00261,0.00968,0.00075,0.00058,0.00129,0.00217,0.00662,0.00310,0,0,0,0,0
5.41,0.19451,-1.48298,0.00505,0.01327,0.00072,0.00056,0.00127,0.00176,0.00117,0.00167,0,0,0,0,0
5.42,0.19377,-1.48072,0.00683,0.01512,0.00072,0.00057,0.00136,0.00175,0.00340,0.00113,0,0,0,0,0
5.43,0.19325,-1.48066,0.00703,0.01703,0.00075,0.00062,0.00094,0.00158,0.00449,0.00096,0,0,0,0,0
5.44,0.19305,-1.48145,0.00484,0.01301,0.00103,0.00076,0.00070,0.00112,0.00257,0.00117,0,0,0,0,0
5.45,0.19314,-1.47865,0.00163,0.00562,0.00108,0.00081,0.00076,0.00076,0.00507,0.00108,0,0,0,0,0
5.46,0.19379,-1.48172,0.00054,0.00127,0.00084,0.00078,0.00076,0.00080,0.00384,0.00080,0,0,0,0,1
5.47,0.19428,-1.47916,0.00057,0.00130,0.00081,0.00073,0.00103,0.00095,0.00438,0.00152,0,0,0,0,0
5.48,0.19428,-1.48034,0.00071,0.00142,0.00126,0.00095,0.00181,0.00110,0.00275,0.00201,0,0,0,0,0
5.49,0.19477,-1.48019,0.00082,0.00160,0.00437,0.00117,0.00238,0.00125,0.00473,0.00170,0,0,0,0,0
5.50,0.19614,-1.48035,0.00072,0.00151,0.00412,0.00148,0.00265,0.00108,0.00317,0.00170,0,0,0,0,0
5.51,0.19576,-1.48103,0.00060,0.00146,0.00107,0.00141,0.00190,0.00098,0.00328,0.00159,0,0,0,0,0
5.52,0.19427,-1.48068,0.00064,0.00146,0.00181,0.00110,0.00082,0.00102,0.00361,0.00129,0,0,0,0,0
5.53,0.19346,-1.48218,0.00063,0.00112,0.00178,0.00116,0.00073,0.00099,0.00248,0.00127,0,0,0,0,0
5.54,0.19273,-1.48019,0.00342,0.00548,0.00080,0.00082,0.00095,0.00076,0.00258,0.00151,0,0,0,0,0
5.55,0.19273,-1.48093,0.00378,0.01104,0.00075,0.00058,0.00228,0.00070,-0.02116,0.00353,0,0,0,1,0
5.56,0.19405,-1.48104,0.00195,0.01277,0.00082,0.00058,0.00264,0.00127,0.00571,0.00542,0,0,0,0,0
5.57,0.19526,-1.47829,0.00249,0.01368,0.00083,0.00060,0.00158,0.00247,0.00483,0.00525,0,0,0,0,0
5.58,0.19602,-1.48047,0.00290,0.01089,0.00070,0.00061,0.00126,0.00342,0.00260,0.00506,0,0,0,0,0
5.59,0.19700,-1.48154,0.00496,0.00972,0.00070,0.00056,0.00158,0.00380,0.00450,0.00427,0,0,0,0,0
5.60,0.19705,-1.48023,0.00655,0.01579,0.00070,0.00052,0.00164,0.00379,0.00482,0.00248,0,0,0,0,0
5.61,0.19697,-1.48096,0.00743,0.01426,0.00067,0.00054,0.00143,0.00329,0.00392,0.00119,0,0,0,0,0
5.62,0.19695,-1.48158,0.00707,0.01296,0.00066,0.00061,0.00129,0.00293,0.00336,0.00091,0,0,0,0,0
5.63,0.19631,-1.47977,0.00741,0.01659,0.00064,0.00065,0.00087,0.00197,0.00310,0.00092,0,0,0,0,0
5.64,0.19574,-1.48010,0.00820,0.01606,0.00070,0.00061,0.00056,0.00107,0.00403,0.00106,0,0,0,0,0
5.65,0.19570,-1.48050,0.00526,0.01303,0.00073,0.00063,0.00054,0.00093,0.00309,0.00103,0,0,0,0,0
5.66,0.19551,-1.48124,0.00282,0.01159,0.00087,0.00071,0.00054,0.00073,0.00268,0.00117,0,0,0,0,0
5.67,0.19601,-1.48000,0.00143,0.00924,0.00091,0.00069,0.00068,0.00070,0.00344,0.00109,0,0,0,0,1
5.68,0.19570,-1.48145,0.00063,0.00377,0.00077,0.00062,0.00095,0.00081,0.00302,0.00084,0,0,0,0,0
5.69,0.19511,-1.48140,0.00061,0.00187,0.00074,0.00065,0.00152,0.00083,0.00206,0.00182,0,0,0,0,0
5.70,0.19438,-1.48035,0.00070,0.00118,0.00079,0.00065,0.00185,0.00084,0.00452,0.00203,0,0,0,0,0
5.71,0.19376,-1.48007,0.00070,0.00129,0.00106,0.00127,0.00162,0.00080,0.00278,0.00131,0,0,0,0,0
5.72,0.19248,-1.48182,0.00066,0.00121,0.00100,0.00135,0.00139,0.00076,0.00464,0.00114,0,0,0,0,0
5.73,0.19166,-1.48265,0.00060,0.00114,0.00076,0.00103,0.00185,0.00078,0.00257,0.00090,0,0,0,0,0
5.74,0.19097,-1.47993,0.00054,0.00128,0.00084,0.00106,0.00209,0.00078,0.00291,0.00092,0,0,0,0,0
5.75,0.19097,-1.48181,0.00061,0.00135,0.00097,0.00094,0.00211,0.00090,0.00361,0.00112,0,0,0,0,0
5.76,0.19177,-1.48082,0.00062,0.00113,0.00097,0.00111,0.00175,0.00084,0.00256,0.00104,0,0,0,0,0
5.77,0.19237,-1.47822,0.00054,0.00106,0.00095,0.00109,0.00094,0.00066,0.00358,0.00091,0,0,0,0,0
5.78,0.19291,-1.48007,0.00055,0.00116,0.00102,0.00109,0.00085,0.00064,0.00446,0.00097,0,0,0,0,0
5.79,0.19354,-1.47914,0.00059,0.00125,0.00102,0.00099,0.00079,0.00067,0.00285,0.00102,0,0,0,0,0
5.80,0.19350,-1.48054,0.00057,0.00146,0.00104,0.00096,0.00064,0.00059,0.00319,0.00095,0,0,0,0,0
5.81,0.19410,-1.47897,0.00371,0.00670,0.00091,0.00088,0.00176,0.00107,0.00399,0.00132,0,0,0,0,0
5.82,0.19422,-1.48053,0.00632,0.00905,0.00072,0.00061,0.00234,0.00184,0.00303,0.00276,0,0,0,1,0
5.83,0.19427,-1.48059,0.00468,0.01152,0.00074,0.00061,0.00183,0.00173,0.00829,0.00448,0,0,0,0,0
5.84,0.19479,-1.48068,0.00255,0.01242,0.00076,0.00057,0.00184,0.00210,0.00525,0.00487,0,0,0,0,0
5.85,0.19521,-1.47998,0.00185,0.01159,0.00074,0.00060,0.00139,0.00302,0.00453,0.00362,0,0,0,0,0
5.86,0.19617,-1.47886,0.00311,0.01301,0.00076,0.00057,0.00090,0.00301,0.00312,0.00185,0,0,0,0,0
5.87,0.19669,-1.48184,0.00544,0.01038,0.00068,0.00054,0.00094,0.00274,0.00419,0.00088,0,0,0,0,0
5.88,0.19661,-1.48052,0.00548,0.01094,0.00062,0.00053,0.00091,0.00231,0.00315,0.00120,0,0,0,0,0
5.89,0.19611,-1.47959,0.00644,0.01188,0.00086,0.00065,0.00073,0.00179,0.00316,0.00154,0,0,0,0,0
5.90,0.19567,-1.48146,0.00819,0.01237,0.00094,0.00072,0.00062,0.00130,0.00355,0.00113,0,0,0,0,0
5.91,0.19560,-1.47922,0.00559,0.01594,0.00081,0.00062,0.00055,0.00100,0.00345,0.00088,0,0,0,0,0
5.92,0.19581,-1.48118,0.00229,0.01241,0.00085,0.00065,0.00057,0.00087,0.00314,0.00090,0,0,0,0,0
5.93,0.19575,-1.48103,0.00062,0.00522,0.00090,0.00067,0.00070,0.00076,0.00309,0.00085,0,0,0,0,0
5.94,0.19567,-1.48038,0.00061,0.00299,0.00078,0.00065,0.00100,0.00085,0.00381,0.00091,0,0,0,0,1
5.95,0.19447,-1.47859,0.00067,0.00116,0.00072,0.00072,0.00153,0.00094,0.00464,0.00148,0,0,0,0,0
5.96,0.19362,-1.48190,0.00073,0.00094,0.00088,0.00095,0.00173,0.00091,0.00269,0.00230,0,0,0,0,0
5.97,0.19390,-1.48022,0.00066,0.00102,0.00095,0.00117,0.00152,0.00080,0.00260,0.00175,0,0,0,0,0
5.98,0.19396,-1.48119,0.00059,0.00099,0.00080,0.00097,0.00164,0.00075,0.00319,0.00130,0,0,0,0,0
5.99,0.19453,-1.47921,0.00059,0.00090,0.00077,0.00096,0.00171,0.00075,0.00267,0.00149,0,0,0,0,0
6.00,0.19438,-1.48121,0.00060,0.00108,0.00080,0.00097,0.00180,0.00069,0.00419,0.00122,0,0,0,0,0
6.01,0.19390,-1.48055,0.00062,0.00102,0.00081,0.00090,0.00148,0.00066,0.00422,0.00146,0,0,0,0,0
6.02,0.19480,-1.48171,0.00064,0.00084,0.00082,0.00085,0.00125,0.00064,0.00291,0.00143,0,0,0,0,0
6.03,0.19491,-1.48155,0.00061,0.00095,0.00081,0.00084,0.00115,0.00067,0.00367,0.00105,0,0,0,0,0
6.04,0.19487,-1.48070,0.00066,0.00120,0.00093,0.00095,0.00073,0.00066,0.00172,0.00112,0,0,0,0,0
6.05,0.19545,-1.48143,0.00208,0.00459,0.00092,0.00077,0.00064,0.00062,0.00351,0.00090,0,0,0,0,0
6.06,0.19557,-1.47960,0.00633,0.01506,0.00073,0.00063,0.00177,0.00135,-0.00056,0.00295,0,1,0,0,0
6.07,0.19584,-1.45006,0.00610,0.01643,0.00069,0.00059,0.00209,0.00217,0.01377,0.00521,0,0,0,1,0
6.08,0.19580,-1.35968,0.00397,0.01169,0.00075,0.00055,0.00190,0.00252,-0.01260,0.00618,0,0,0,0,0
6.09,0.19597,-1.21590,0.00622,0.01038,0.00069,0.00056,0.00191,0.00406,0.00641,0.00476,0,0,0,0,0
6.10,0.19552,-1.01244,0.00809,0.01344,0.00064,0.00065,0.00125,0.00569,0.00403,0.00173,0,0,0,0,0
6.11,0.19537,-0.78376,0.00724,0.01494,0.00067,0.00066,0.00129,0.00458,0.00347,0.00107,0,0,0,0,0
6.12,0.19453,-0.52068,0.00300,0.00562,0.00234,0.00064,0.00189,0.00210,0.00463,0.00212,0,0,0,0,1
6.13,0.19386,-0.22791,0.00054,0.00179,0.00386,0.00062,0.00184,0.00105,0.00335,0.00289,0,0,0,0,0
6.14,0.19415,0.05296,0.00068,0.00182,0.00222,0.00061,0.00109,0.00120,0.00428,0.00225,0,0,0,0,0
6.15,0.19345,0.36163,0.00069,0.00084,0.00068,0.00058,0.00103,0.00113,0.00359,0.00191,0,0,0,0,0
6.16,0.19266,0.62871,0.00054,0.00058,0.00069,0.00056,0.00093,0.00074,0.00361,0.00159,0,0,0,0,0
6.17,0.19244,0.88326,0.00052,0.00058,0.00065,0.00054,0.00100,0.00064,0.00464,0.00107,0,0,0,0,0
6.18,0.19214,1.10459,0.00124,0.00267,0.00066,0.00051,0.00112,0.00060,0.00280,0.00122,0,0,0,0,0
6.19,0.19309,1.27492,0.00732,0.01688,0.00070,0.00063,0.00140,0.00148,0.00612,0.00171,0,0,0,0,0
6.20,0.19458,1.39574,0.01128,0.02373,0.00069,0.00068,0.00152,0.00426,0.00143,0.00301,0,0,0,0,0
6.21,0.19465,1.46886,0.00778,0.01430,0.00063,0.00057,0.00095,0.00488,0.00442,0.00257,0,0,0,1,0
6.22,0.19454,1.48531,0.00626,0.01500,0.00070,0.00052,0.00060,0.00325,0.00343,0.00099,0,0,0,0,0
6.23,0.19570,1.48548,0.00675,0.01700,0.00074,0.00054,0.00055,0.00220,0.00339,0.00082,0,0,0,0,0
6.24,0.19601,1.48547,0.00642,0.01514,0.00074,0.00061,0.00054,0.00123,0.00302,0.00089,0,0,0,0,0
6.25,0.19563,1.48499,0.00423,0.01411,0.00085,0.00067,0.00056,0.00081,0.00453,0.00118,0,0,0,0,0
6.26,0.19460,1.48608,0.00272,0.00991,0.00109,0.00082,0.00055,0.00068,0.00353,0.00130,0,0,0,0,0
6.27,0.19451,1.48372,0.00223,0.00611,0.00106,0.00106,0.00078,0.00082,0.00430,0.00122,0,0,0,0,0
6.28,0.19435,1.48496,0.00094,0.00350,0.00081,0.00088,0.00103,0.00098,0.00308,0.00133,0,0,0,0,1
6.29,0.19421,1.48085,0.00057,0.00208,0.00091,0.00064,0.00125,0.00094,0.00350,0.00350,0,0,0,0,0
6.30,0.19359,1.48427,0.00058,0.00086,0.00107,0.00064,0.00141,0.00087,0.00488,0.00493,0,0,0,0,0
6.31,0.19366,1.48513,0.00054,0.00072,0.00086,0.00055,0.00110,0.00081,0.00141,0.00326,0,0,0,0,0
6.32,0.19431,1.48193,0.00053,0.00087,0.00067,0.00057,0.00116,0.00091,0.00337,0.00195,0,0,0,0,0
6.33,0.19429,1.48226,0.00058,0.00090,0.00071,0.00054,0.00143,0.00087,0.00269,0.00224,0,0,0,0,0
6.34,0.19475,1.48460,0.00056,0.00085,0.00068,0.00050,0.00152,0.00081,0.00532,0.00202,0,0,0,0,0
6.35,0.19423,1.48372,0.00058,0.00081,0.00069,0.00060,0.00156,0.00077,0.00414,0.00121,0,0,0,0,0
6.36,0.19480,1.48381,0.00061,0.00082,0.00078,0.00057,0.00170,0.00066,0.00649,0.00191,0,0,0,0,0
6.37,0.19477,1.48492,0.00064,0.00096,0.00079,0.00061,0.00185,0.00067,0.00214,0.00238,0,0,0,0,0
6.38,0.19469,1.48378,0.00061,0.00087,0.00072,0.00064,0.00178,0.00073,0.00463,0.00202,0,0,0,0,0
6.39,0.19448,1.48101,0.00054,0.00096,0.00068,0.00057,0.00195,0.00074,0.00342,0.00159,0,0,0,0,0
6.40,0.19479,1.48384,0.00059,0.00097,0.00071,0.00059,0.00210,0.00074,0.00361,0.00121,0,0,0,0,0
6.41,0.19438,1.48438,0.00058,0.00079,0.00079,0.00065,0.00266,0.00086,0.01013,0.00132,0,0,0,0,0
6.42,0.19453,1.48370,0.00060,0.00087,0.00081,0.00069,0.00241,0.00082,0.00609,0.00121,0,0,0,0,0
6.43,0.19378,1.48456,0.00063,0.00110,0.00086,0.00070,0.00137,0.00074,0.00477,0.00097,0,0,0,0,0
6.44,0.19384,1.48390,0.00056,0.00106,0.00090,0.00069,0.00125,0.00070,0.00305,0.00127,0,0,0,0,0
6.45,0.19357,1.48343,0.00409,0.00672,0.00084,0.00064,0.00123,0.00059,0.00237,0.00127,0,0,0,0,0
6.46,0.19328,1.48485,0.00465,0.01309,0.00080,0.00057,0.00171,0.00069,0.01224,0.00208,0,0,0,0,0
6.47,0.19217,1.48415,0.00175,0.01049,0.00070,0.00059,0.00190,0.00072,0.00163,0.00408,0,0,0,1,0
6.48,0.18954,1.48360,0.00203,0.00980,0.00069,0.00066,0.00152,0.00194,0.00735,0.00414,0,0,0,0,0
6.49,0.18993,1.48463,0.00223,0.01054,0.00070,0.00062,0.00130,0.00346,0.00376,0.00322,0,0,0,0,0
6.50,0.19180,1.48409,0.00550,0.01000,0.00069,0.00059,0.00084,0.00312,0.00327,0.00212,0,0,0,0,0
6.51,0.19405,1.48556,0.00732,0.01623,0.00073,0.00060,0.00060,0.00198,0.00444,0.00122,0,0,0,0,0
6.52,0.19386,1.48103,0.00470,0.01835,0.00074,0.00065,0.00054,0.00114,0.00275,0.00139,0,0,0,0,0
6.53,0.19349,1.48271,0.00240,0.00868,0.00081,0.00064,0.00052,0.00072,0.00375,0.00131,0,0,0,0,0
6.54,0.19373,1.48382,0.00101,0.00324,0.00092,0.00079,0.00068,0.00065,0.00383,0.00091,0,0,0,0,0
6.55,0.19438,1.48308,0.00060,0.00270,0.00085,0.00083,0.00084,0.00095,0.00276,0.00077,0,0,0,0,1
6.56,0.19417,1.48593,0.00073,0.00158,0.00101,0.00092,0.00133,0.00110,0.00391,0.00130,0,0,0,0,0
6.57,0.19287,1.48496,0.00090,0.00145,0.00303,0.00122,0.00244,0.00111,0.00298,0.00188,0,0,0,0,0
6.58,0.19233,1.48299,0.00119,0.00143,0.00631,0.00154,0.00313,0.00107,0.00092,0.00206,0,0,0,0,0
6.59,0.19341,1.48563,0.00100,0.00181,0.00456,0.00147,0.00250,0.00101,0.00524,0.00175,0,0,0,0,0
6.60,0.19343,1.48320,0.00057,0.00219,0.00154,0.00146,0.00134,0.00095,0.00474,0.00140,0,0,0,0,0
6.61,0.19323,1.48503,0.00064,0.00166,0.00245,0.00169,0.00084,0.00083,0.00208,0.00145,0,0,0,0,0
6.62,0.19276,1.48284,0.00121,0.00105,0.00222,0.00150,0.00075,0.00067,0.00242,0.00128,0,0,0,0,0
6.63,0.19291,1.48332,0.00402,0.00745,0.00106,0.00093,0.00202,0.00111,0.00463,0.00257,0,0,0,1,0
6.64,0.19272,1.48598,0.00386,0.01462,0.00069,0.00054,0.00213,0.00118,0.00342,0.00392,0,0,0,0,0
6.65,0.19303,1.48452,0.00220,0.01391,0.00064,0.00052,0.00111,0.00110,0.00358,0.00455,0,0,0,0,0
6.66,0.19397,1.48013,0.00308,0.01155,0.00072,0.00054,0.00162,0.00283,0.00398,0.00471,0,0,0,0,0
6.67,0.19497,1.48480,0.00255,0.00894,0.00077,0.00056,0.00170,0.00267,-0.00052,0.00364,0,0,0,0,0
6.68,0.19563,1.48485,0.00256,0.00701,0.00073,0.00055,0.00183,0.00113,0.00291,0.00279,0,0,0,0,0
6.69,0.19496,1.48422,0.00221,0.00799,0.00070,0.00057,0.00182,0.00116,0.00255,0.00208,0,0,0,0,0
6.70,0.19451,1.48406,0.00164,0.00728,0.00072,0.00057,0.00145,0.00122,0.00275,0.00149,0,0,0,0,0
6.71,0.19474,1.48472,0.00366,0.00893,0.00071,0.00059,0.00100,0.00126,0.00233,0.00106,0,0,0,0,0
6.72,0.19456,1.48467,0.00857,0.01145,0.00070,0.00062,0.00052,0.00143,0.00378,0.00112,0,0,0,0,0
6.73,0.19449,1.48290,0.00771,0.01317,0.00076,0.00066,0.00052,0.00130,0.00396,0.00103,0,0,0,0,0
6.74,0.19480,1.48520,0.00250,0.00936,0.00081,0.00078,0.00062,0.00088,0.00362,0.00077,0,0,0,0,0
6.75,0.19484,1.48446,0.00108,0.00205,0.00083,0.00082,0.00083,0.00079,0.00434,0.00079,0,0,0,0,0
6.76,0.19549,1.48488,0.00054,0.00129,0.00084,0.00075,0.00096,0.00102,0.00280,0.00082,0,0,0,0,1
6.77,0.19559,1.48669,0.00050,0.00132,0.00112,0.00081,0.00116,0.00130,0.00309,0.00110,0,0,0,0,0
6.78,0.19539,1.48483,0.00059,0.00122,0.00138,0.00101,0.00122,0.00122,0.00418,0.00131,0,0,0,0,0
6.79,0.19625,1.48467,0.00062,0.00108,0.00113,0.00097,0.00117,0.00115,0.00371,0.00112,0,0,0,0,0
6.80,0.19628,1.48312,0.00059,0.00102,0.00090,0.00072,0.00162,0.00105,0.00309,0.00114,0,0,0,0,0
6.81,0.19548,1.48488,0.00056,0.00092,0.00084,0.00069,0.00164,0.00070,0.00458,0.00149,0,0,0,0,0
6.82,0.19435,1.48514,0.00063,0.00089,0.00076,0.00066,0.00155,0.00068,0.00656,0.00156,0,0,0,0,0
6.83,0.19387,1.48278,0.00064,0.00085,0.00084,0.00093,0.00170,0.00083,0.00326,0.00147,0,0,0,0,0
6.84,0.19368,1.48865,0.00066,0.00094,0.00083,0.00094,0.00139,0.00076,0.00413,0.00155,0,0,0,0,0
6.85,0.19351,1.48370,0.00068,0.00082,0.00091,0.00092,0.00105,0.00065,0.00432,0.00132,0,0,0,0,0
6.86,0.19346,1.48343,0.00063,0.00073,0.00096,0.00118,0.00095,0.00067,0.00262,0.00113,0,0,0,0,0
6.87,0.19387,1.48562,0.00058,0.00072,0.00086,0.00090,0.00100,0.00063,0.00411,0.00111,0,0,0,0,0
6.88,0.19419,1.48448,0.00098,0.00305,0.00080,0.00060,0.00087,0.00059,0.00361,0.00088,0,0,0,0,0
6.89,0.19384,1.48450,0.00578,0.01294,0.00076,0.00058,0.00120,0.00106,0.00372,0.00103,0,0,0,0,0
6.90,0.19373,1.48478,0.00600,0.01540,0.00077,0.00057,0.00160,0.00124,0.01768,0.00334,0,0,0,1,0
6.91,0.19436,1.48468,0.00140,0.01230,0.00081,0.00057,0.00152,0.00090,0.00336,0.00418,0,0,0,0,0
6.92,0.19385,1.48456,0.00242,0.01179,0.00079,0.00058,0.00135,0.00227,0.00297,0.00264,0,0,0,0,0
6.93,0.19339,1.48397,0.00506,0.01073,0.00074,0.00058,0.00090,0.00326,0.00348,0.00158,0,0,0,0,0
6.94,0.19293,1.48443,0.00585,0.01230,0.00073,0.00056,0.00070,0.00275,0.00491,0.00089,0,0,0,0,0
6.95,0.19224,1.48368,0.00554,0.01382,0.00069,0.00056,0.00062,0.00221,0.00319,0.00099,0,0,0,0,0
6.96,0.19251,1.47531,0.00517,0.01942,0.00069,0.00064,0.00051,0.00131,0.00351,0.00129,0,0,0,0,0
6.97,0.19319,1.48534,0.00518,0.01829,0.00072,0.00066,0.00057,0.00090,0.00453,0.00144,0,0,0,0,0
6.98,0.19370,1.48403,0.00395,0.00855,0.00079,0.00078,0.00064,0.00086,0.00366,0.00142,0,0,0,0,0
6.99,0.19365,1.48539,0.00144,0.00352,0.00078,0.00076,0.00084,0.00094,0.00238,0.00126,0,0,0,0,0
7.00,0.19402,1.48381,0.00062,0.00202,0.00081,0.00065,0.00098,0.00104,0.00319,0.00084,0,0,0,0,1
7.01,0.19319,1.48546,0.00057,0.00132,0.00089,0.00077,0.00112,0.00100,0.00192,0.00098,0,0,0,0,0
7.02,0.19357,1.48401,0.00053,0.00106,0.00088,0.00083,0.00134,0.00084,0.00482,0.00101,0,0,0,0,0
7.03,0.19416,1.48248,0.00053,0.00098,0.00075,0.00073,0.00144,0.00069,0.00467,0.00091,0,0,0,0,0
7.04,0.19483,1.48522,0.00055,0.00108,0.00068,0.00068,0.00146,0.00066,0.00289,0.00126,0,0,0,0,0
7.05,0.19498,1.48324,0.00060,0.00107,0.00076,0.00061,0.00153,0.00073,0.00110,0.00162,0,0,0,0,0
7.06,0.19387,1.48419,0.00058,0.00094,0.00082,0.00059,0.00136,0.00071,0.00561,0.00215,0,0,0,0,0
7.07,0.19364,1.48393,0.00053,0.00102,0.00079,0.00061,0.00121,0.00065,0.00473,0.00210,0,0,0,0,0
7.08,0.19347,1.48496,0.00058,0.00102,0.00079,0.00067,0.00109,0.00064,0.00449,0.00153,0,0,0,0,0
7.09,0.19326,1.48473,0.00061,0.00096,0.00081,0.00067,0.00084,0.00064,0.00355,0.00131,0,0,0,0,0
7.10,0.19267,1.48503,0.00061,0.00116,0.00087,0.00096,0.00075,0.00067,0.00215,0.00144,0,0,0,0,0
7.11,0.19315,1.48505,0.00058,0.00161,0.00100,0.00125,0.00073,0.00064,0.00347,0.00139,0,0,0,0,0
7.12,0.19399,1.48401,0.00059,0.00165,0.00097,0.00092,0.00063,0.00067,0.00416,0.00110,0,0,0,0,0
7.13,0.19481,1.48517,0.00074,0.00205,0.00085,0.00063,0.00055,0.00066,0.00399,0.00091,0,0,0,0,0
7.14,0.19572,1.48418,0.00567,0.00802,0.00073,0.00066,0.00173,0.00063,0.00173,0.00281,0,0,0,0,0
7.15,0.19591,1.48371,0.00611,0.01121,0.00066,0.00062,0.00258,0.00069,0.00558,0.00581,0,0,0,0,0
7.16,0.19627,1.48414,0.00231,0.00962,0.00072,0.00054,0.00218,0.00080,0.00070,0.00612,0,0,0,1,0
7.17,0.19628,1.48579,0.00471,0.00923,0.00076,0.00055,0.00177,0.00224,0.00301,0.00564,0,0,0,0,0
7.18,0.19594,1.48389,0.00410,0.01083,0.00073,0.00056,0.00131,0.00359,-0.00140,0.00426,0,0,0,0,0
7.19,0.19580,1.48460,0.00392,0.01102,0.00074,0.00058,0.00108,0.00349,0.00294,0.00237,0,0,0,0,0
7.20,0.19625,1.48455,0.00747,0.01033,0.00078,0.00055,0.00078,0.00305,0.00455,0.00150,0,0,0,0,0
7.21,0.19658,1.48504,0.00787,0.01793,0.00074,0.00054,0.00054,0.00240,0.00315,0.00094,0,0,0,0,0
7.22,0.19701,1.47648,0.00563,0.02086,0.00071,0.00059,0.00054,0.00145,0.00485,0.00085,0,0,0,0,0
7.23,0.19711,1.41950,0.00333,0.01421,0.00078,0.00062,0.00057,0.00085,0.00353,0.00115,0,0,0,0,0
7.24,0.19652,1.30202,0.00152,0.00674,0.00079,0.00070,0.00055,0.00081,0.00421,0.00111,0,0,1,0,0
7.25,0.19500,1.13988,0.00058,0.00266,0.00074,0.00065,0.00069,0.00077,0.00156,0.00078,0,0,0,0,1
7.26,0.19602,0.91240,0.00051,0.00252,0.00068,0.00057,0.00072,0.00092,0.00442,0.00097,0,0,0,0,0
7.27,0.19352,0.67667,0.00055,0.00166,0.00064,0.00061,0.00066,0.00108,0.00477,0.00117,0,0,0,0,0
7.28,0.19432,0.38601,0.00103,0.00142,0.00133,0.00109,0.00106,0.00122,0.00370,0.00141,0,0,0,0,0
7.29,0.19342,0.10570,0.00105,0.00241,0.00141,0.00107,0.00101,0.00106,0.00348,0.00117,0,0,0,0,0
7.30,0.19398,-0.20479,0.00058,0.00233,0.00074,0.00060,0.00080,0.00082,0.00335,0.00090,0,0,0,0,0
7.31,0.19354,-0.47953,0.00056,0.00120,0.00081,0.00065,0.00115,0.00081,0.00284,0.00100,0,0,0,0,0
7.32,0.19331,-0.76218,0.00059,0.00122,0.00097,0.00076,0.00131,0.00075,0.00646,0.00095,0,0,0,0,0
7.33,0.19323,-1.00999,0.00058,0.00100,0.00089,0.00069,0.00134,0.00071,0.00509,0.00092,0,0,0,0,0
7.34,0.19338,-1.19692,0.00057,0.00101,0.00075,0.00064,0.00124,0.00068,0.00145,0.00142,0,0,0,0,0
7.35,0.19393,-1.35394,0.00058,0.00095,0.00068,0.00061,0.00130,0.00071,0.00339,0.00133,0,0,0,0,0
7.36,0.19392,-1.44611,0.00056,0.00093,0.00068,0.00055,0.00118,0.00073,-0.00148,0.00080,0,0,0,0,0
7.37,0.19409,-1.47717,0.00059,0.00097,0.00085,0.00068,0.00109,0.00075,0.00258,0.00111,0,0,0,0,0
7.38,0.19427,-1.47939,0.00067,0.00103,0.00103,0.00078,0.00098,0.00073,0.00309,0.00116,0,0,0,0,0
7.39,0.19453,-1.48002,0.00085,0.00117,0.00267,0.00081,0.00080,0.00067,0.00406,0.00092,0,0,0,0,0
7.40,0.19419,-1.47968,0.00089,0.00118,0.00376,0.00079,0.00087,0.00069,0.00319,0.00085,0,0,0,0,0
7.41,0.19374,-1.48098,0.00080,0.00104,0.00363,0.00071,0.00074,0.00073,0.00227,0.00099,0,0,0,0,0
7.42,0.19382,-1.48006,0.00068,0.00082,0.00240,0.00066,0.00060,0.00073,0.00388,0.00111,0,0,0,0,0
7.43,0.19431,-1.48087,0.00058,0.00062,0.00075,0.00060,0.00060,0.00063,0.00377,0.00087,0,0,0,0,0
7.44,0.19417,-1.48368,0.00112,0.00121,0.00062,0.00058,0.00069,0.00058,0.00370,0.00109,0,0,0,0,0
7.45,0.19419,-1.48297,0.00208,0.00613,0.00065,0.00056,0.00103,0.00065,0.00004,0.00350,0,0,0,0,0
7.46,0.19546,-1.48123,0.00268,0.01019,0.00068,0.00055,0.00142,0.00065,-0.00912,0.00672,0,0,0,0,0
7.47,0.19477,-1.48022,0.00426,0.01001,0.00066,0.00053,0.00151,0.00072,0.00073,0.00564,0,0,0,0,0
7.48,0.19336,-1.48169,0.00435,0.00674,0.00067,0.00053,0.00143,0.00081,-0.00133,0.00532,0,0,0,0,0
7.49,0.19271,-1.48040,0.00251,0.00557,0.00074,0.00055,0.00148,0.00092,0.01630,0.00656,0,0,0,1,0
7.50,0.19323,-1.48132,0.00226,0.00987,0.00075,0.00057,0.00142,0.00119,0.00132,0.00570,0,0,0,0,0
