"Time","49 st rmp dw","48 sw rmp dw","47 st rmp up","46 sw rmp up","45 sw offset","44 sw onset","43 Ramp down","42 Ramp up","41 MTP (deg)","12 Synch","11 Gr","10 Gs","9 TA","8 St","7 VL","6 BF","5 Ip","4 GM","3 Platform","2 Trdml","1 Synch"
0.00,0,0,0,0,0,0,0,0,,0,0.00145,0.00492,0.00076,0.00114,0.00064,0.00070,0.00942,0.00397,0.50833,0.19431,3.27662
0.01,0,0,0,0,0,1,0,0,146.059219,0,0.00154,0.00288,0.00253,0.00112,0.00091,0.00074,0.02069,0.01052,0.20898,0.19453,3.27727
0.02,0,0,0,0,0,0,0,0,170.564667,0,0.00194,0.00015,0.00605,0.00089,0.00096,0.00079,0.02513,0.01154,-0.04745,0.19438,3.27698
0.03,0,0,0,0,0,0,0,0,177.348877,0,0.00155,0.00374,0.00493,0.00073,0.00075,0.00078,0.02079,0.00729,-0.35927,0.19437,3.27761
0.04,0,0,0,0,0,0,0,0,168.752045,0,0.00165,0.00259,0.00182,0.00057,0.00065,0.00076,0.01552,0.00493,-0.63199,0.19423,3.27679
0.05,0,0,0,0,0,0,0,0,176.336182,0,0.00194,0.00338,0.00202,0.00054,0.00085,0.00083,0.01563,0.00435,-0.89139,0.19425,3.27726
0.06,0,0,0,0,0,0,0,0,177.758545,0,0.00146,0.00405,0.00200,0.00059,0.00086,0.00076,0.01303,0.00339,-1.11937,0.19444,3.27688
0.07,0,0,0,0,0,0,0,0,165.081421,0,0.00132,0.00257,0.00145,0.00061,0.00055,0.00062,0.01095,0.00304,-1.28704,0.19483,3.27736
0.08,0,0,0,0,0,0,0,0,167.838562,0,0.00131,0.00291,0.00139,0.00058,0.00057,0.00067,0.01116,0.00443,-1.40757,0.19511,3.27707
0.09,0,0,0,0,0,0,0,0,167.939514,0,0.00128,0.00351,0.00138,0.00053,0.00064,0.00080,0.01243,0.00550,-1.47515,0.19463,3.27729
0.10,0,0,0,0,0,0,0,0,163.049637,0,0.00160,0.00356,0.00111,0.00051,0.00086,0.00085,0.01243,0.00780,-1.47191,0.19411,3.27655
0.11,0,0,0,0,0,0,0,0,173.280518,0,0.00166,0.00406,0.00091,0.00055,0.00113,0.00087,0.01399,0.00697,-1.40889,0.19321,3.27652
0.12,0,0,0,0,0,0,0,0,175.381561,0,0.00110,0.00261,0.00078,0.00069,0.00120,0.00094,0.01108,0.00248,-1.29291,0.19289,3.27692
0.13,0,0,0,0,1,0,0,0,171.279755,0,0.00202,0.00219,0.00124,0.00098,0.00104,0.00088,0.00406,0.00058,-1.11755,0.19331,3.27736
0.14,0,0,0,0,0,0,0,0,150.774033,0,0.00301,0.00201,0.00133,0.00190,0.00097,0.00244,0.00278,0.00083,-0.90665,0.19274,3.27751
0.15,0,0,0,0,0,0,0,0,135.490341,0,0.00228,0.00274,0.00089,0.00216,0.00127,0.00427,0.00232,0.00096,-0.65057,0.19187,3.27608
0.16,0,0,0,0,0,0,0,0,129.627121,0,0.00228,0.00397,0.00092,0.00213,0.00153,0.00435,0.00190,0.00073,-0.38043,0.19055,3.27748
0.17,0,0,0,0,0,0,0,0,123.623497,0,0.00317,0.00353,0.00141,0.00215,0.00170,0.00485,0.00221,0.00070,-0.07571,0.19200,3.27760
0.18,0,0,0,0,0,0,0,0,116.049728,0,0.00259,0.00462,0.00155,0.00128,0.00141,0.00751,0.00187,0.00081,0.20774,0.19267,3.27757
0.19,0,0,0,0,0,0,0,0,120.629341,0,0.00242,0.00377,0.00107,0.00109,0.00156,0.00822,0.00170,0.00084,0.51114,0.19151,3.27774
0.20,0,0,0,0,0,0,0,0,121.393486,0,0.00312,0.00365,0.00111,0.00103,0.00227,0.00815,0.00207,0.00106,0.76448,0.19145,3.27666
0.21,0,0,0,0,0,0,0,0,129.598511,0,0.00213,0.00426,0.00093,0.00078,0.00178,0.00638,0.00215,0.00297,0.99401,0.19220,3.27698
0.22,0,0,0,0,0,1,0,0,152.679367,0,0.00268,0.00359,0.00071,0.00274,0.00088,0.00197,0.00392,0.00528,1.20341,0.19268,3.27740
0.23,0,0,0,0,0,0,0,0,168.879318,0,0.00646,0.00372,0.00122,0.00337,0.00067,0.00074,0.00783,0.00415,1.34685,0.19281,3.27777
0.24,0,0,0,0,0,0,0,0,173.722992,0,0.00834,-0.00101,0.00319,0.00192,0.00071,0.00064,0.01450,0.00325,1.44252,0.19236,3.27669
0.25,0,0,0,0,0,0,0,0,170.036621,0,0.00541,0.00043,0.00483,0.00131,0.00067,0.00065,0.02120,0.00698,1.48441,0.19271,3.27709
0.26,0,0,0,0,0,0,0,0,78.680054,0,0.00197,0.00416,0.00335,0.00074,0.00068,0.00067,0.02238,0.00782,1.46685,0.19398,3.27715
0.27,0,0,0,0,0,0,0,0,173.714630,0,0.00127,0.00214,0.00158,0.00053,0.00066,0.00069,0.01966,0.00656,1.39790,0.19432,3.27760
0.28,0,0,0,0,0,0,0,0,172.446579,0,0.00132,0.00500,0.00106,0.00051,0.00060,0.00072,0.01407,0.00486,1.27268,0.19410,3.27695
0.29,0,0,0,0,0,0,0,0,175.972580,0,0.00147,0.00286,0.00076,0.00056,0.00062,0.00072,0.00775,0.00151,1.08676,0.19418,3.27760
0.30,0,0,0,0,0,0,0,0,171.771576,0,0.00189,0.00348,0.00096,0.00078,0.00060,0.00066,0.00400,0.00051,0.87339,0.19431,3.27692
0.31,0,0,0,0,1,0,0,0,160.943146,0,0.00262,0.00371,0.00120,0.00087,0.00061,0.00067,0.00163,0.00057,0.60540,0.19563,3.27800
0.32,0,0,0,0,0,0,0,0,144.527603,0,0.00226,0.00334,0.00146,0.00097,0.00095,0.00081,0.00128,0.00071,0.33608,0.19627,3.27702
0.33,0,0,0,0,0,0,0,0,136.094040,0,0.00211,0.00438,0.00165,0.00089,0.00110,0.00086,0.00149,0.00068,0.02692,0.19479,3.27700
0.34,0,0,0,0,0,0,0,0,126.763474,0,0.00216,0.00556,0.00147,0.00069,0.00081,0.00081,0.00126,0.00058,-0.25612,0.19419,3.27626
0.35,0,0,0,0,0,0,0,0,119.941254,0,0.00173,0.00386,0.00101,0.00118,0.00065,0.00076,0.00094,0.00063,-0.55563,0.19307,3.27704
0.36,0,0,0,0,0,0,0,0,128.359070,0,0.00150,0.00417,0.00071,0.00162,0.00061,0.00069,0.00078,0.00063,-0.82625,0.19287,3.27690
0.37,0,0,0,0,0,0,0,0,121.962440,0,0.00134,0.00080,0.00068,0.00122,0.00056,0.00064,0.00290,0.00129,-1.04952,0.19282,3.27745
0.38,0,0,0,0,0,0,0,0,126.800972,0,0.00181,0.00525,0.00066,0.00128,0.00060,0.00069,0.01103,0.00836,-1.24329,0.19367,3.27813
0.39,0,0,0,0,0,1,0,0,144.079605,0,0.00197,0.00705,0.00201,0.00159,0.00061,0.00074,0.01741,0.00870,-1.37597,0.19490,3.27703
0.40,0,0,0,0,0,0,0,0,172.961273,0,0.00242,0.01017,0.00384,0.00169,0.00065,0.00078,0.01853,0.00371,-1.45769,0.19455,3.27738
0.41,0,0,0,0,0,0,0,0,162.023117,0,0.00383,0.00920,0.00497,0.00158,0.00071,0.00080,0.01519,0.00629,-1.48112,0.19472,3.27668
0.42,0,0,0,0,0,0,0,0,165.011047,0,0.00333,0.00826,0.00474,0.00134,0.00062,0.00075,0.01389,0.00554,-1.44522,0.19492,3.27756
0.43,0,0,0,0,0,0,0,0,177.750381,0,0.00218,0.00360,0.00472,0.00146,0.00062,0.00076,0.02156,0.00793,-1.34343,0.19402,3.27732
0.44,0,0,0,0,0,0,0,0,176.724487,0,0.00202,0.00369,0.00449,0.00125,0.00080,0.00098,0.02748,0.01557,-1.19372,0.19402,3.27735
0.45,0,0,0,0,0,0,0,0,163.631699,0,0.00277,0.00254,0.00239,0.00425,0.00128,0.00132,0.01575,0.00973,-0.99164,0.19247,3.27736
0.46,0,0,0,0,1,0,0,0,162.345764,0,0.00386,-0.00567,0.00111,0.00494,0.00164,0.00337,0.00287,0.00109,-0.75760,0.19100,3.27778
0.47,0,0,0,0,0,0,0,0,156.300629,0,0.00304,0.00599,0.00105,0.00296,0.00156,0.00854,0.00254,0.00117,-0.47867,0.18938,3.27716
0.48,0,0,0,0,0,0,0,0,145.288330,0,0.00208,0.00347,0.00109,0.00243,0.00133,0.00792,0.00213,0.00093,-0.20533,0.18988,3.27662
0.49,0,0,0,0,0,0,0,0,130.850098,0,0.00180,0.00636,0.00093,0.00186,0.00126,0.00264,0.00174,0.00064,0.10493,0.19090,3.27692
0.50,0,0,0,0,0,0,0,0,121.873779,0,0.00241,0.00329,0.00094,0.00186,0.00122,0.00343,0.00219,0.00056,0.38734,0.19190,3.27621
0.51,0,0,0,0,0,0,0,0,117.949501,0,0.00262,0.00385,0.00114,0.00172,0.00101,0.00392,0.00199,0.00051,0.65878,0.19191,3.27810
0.52,0,0,0,0,0,0,0,0,117.805435,0,0.00223,0.00481,0.00143,0.00172,0.00124,0.00323,0.00141,0.00057,0.91670,0.19199,3.27749
0.53,0,0,0,0,0,0,0,0,118.803131,0,0.00226,0.00367,0.00130,0.00172,0.00164,0.00471,0.00149,0.00065,1.12100,0.19174,3.27650
0.54,0,0,0,0,0,0,0,0,117.524422,0,0.00188,0.00374,0.00115,0.00146,0.00183,0.00353,0.00137,0.00070,1.28976,0.19221,3.27669
0.55,0,0,0,0,0,0,0,0,125.998466,0,0.00170,0.00274,0.00125,0.00092,0.00265,0.00400,0.00148,0.00093,1.41246,0.19308,3.27707
0.56,0,0,0,0,0,1,0,0,139.842010,0,0.00155,0.00397,0.00124,0.00161,0.00200,0.00343,0.00369,0.00327,1.47434,0.19311,3.27719
0.57,0,0,0,0,0,0,0,0,153.343552,0,0.00213,0.00502,0.00115,0.00194,0.00059,0.00075,0.00800,0.00365,1.48199,0.19267,3.27662
0.58,0,0,0,0,0,0,0,0,166.911499,0,0.00255,0.00371,0.00111,0.00121,0.00056,0.00071,0.00933,0.00248,1.42488,0.19363,3.27754
0.59,0,0,0,0,0,0,0,0,176.416077,0,0.00176,0.00235,0.00100,0.00101,0.00056,0.00067,0.01076,0.00315,1.32219,0.19478,3.27644
0.60,0,0,0,0,0,0,0,0,174.866196,0,0.00255,0.00340,0.00081,0.00102,0.00057,0.00067,0.01164,0.00279,1.17028,0.19382,3.27720
0.61,0,0,0,0,0,0,0,0,174.500702,0,0.00241,0.00346,0.00123,0.00096,0.00077,0.00078,0.00960,0.00283,0.95576,0.19422,3.27745
0.62,0,0,0,0,0,0,0,0,164.415268,0,0.00102,-0.00420,0.00166,0.00081,0.00093,0.00098,0.01542,0.00533,0.72238,0.19397,3.27708
0.63,0,0,0,0,0,0,0,0,174.055420,0,0.00127,-0.00048,0.00165,0.00059,0.00073,0.00087,0.02083,0.00706,0.43453,0.19468,3.27650
0.64,0,0,0,0,0,0,0,0,169.863373,0,0.00142,0.00358,0.00153,0.00054,0.00066,0.00064,0.02016,0.00649,0.15689,0.19467,3.27674
0.65,0,0,0,0,0,0,0,0,175.759933,0,0.00113,0.00358,0.00117,0.00063,0.00086,0.00087,0.02040,0.00366,-0.15297,0.19562,3.27744
0.66,0,0,0,0,0,0,0,0,170.982361,0,0.00089,0.00465,0.00076,0.00076,0.00087,0.00096,0.01165,0.00083,-0.43936,0.19555,3.27706
0.67,0,0,0,0,1,0,0,0,165.036331,0,0.00089,0.00328,0.00074,0.00065,0.00082,0.00076,0.00580,0.00066,-0.71707,0.19410,3.27722
0.68,0,0,0,0,0,0,0,0,163.175278,0,0.00109,0.00296,0.00112,0.00053,0.00095,0.00086,0.00592,0.00146,-0.97509,0.19334,3.27765
0.69,0,0,0,0,0,0,0,0,160.593292,0,0.00113,0.00360,0.00123,0.00084,0.00079,0.00089,0.00252,0.00142,-1.16653,0.19277,3.27678
0.70,0,0,0,0,0,0,0,0,148.438629,0,0.00108,0.00187,0.00087,0.00113,0.00073,0.00088,0.00125,0.00057,-1.33286,0.19343,3.27730
0.71,0,0,0,0,0,0,0,0,139.537476,0,0.00126,0.00417,0.00083,0.00140,0.00092,0.00091,0.00147,0.00061,-1.43704,0.19337,3.27725
0.72,0,0,0,0,0,0,0,0,140.731995,0,0.00159,0.00243,0.00099,0.00143,0.00076,0.00086,0.00140,0.00068,-1.47782,0.19332,3.27749
0.73,0,0,0,0,0,0,0,0,131.838242,0,0.00142,0.00279,0.00108,0.00150,0.00069,0.00095,0.00143,0.00069,-1.46263,0.19413,3.27698
0.74,0,0,0,0,0,0,0,0,130.159088,0,0.00111,0.00252,0.00104,0.00136,0.00129,0.00118,0.00147,0.00075,-1.39287,0.19472,3.27645
0.75,0,0,0,0,0,0,0,0,122.909042,0,0.00106,0.00272,0.00095,0.00099,0.00161,0.00307,0.00181,0.00099,-1.25685,0.19452,3.27713
0.76,0,0,0,0,0,0,0,0,123.268097,0,0.00117,0.00421,0.00086,0.00083,0.00135,0.00609,0.00223,0.00112,-1.07844,0.19451,3.27750
0.77,0,0,0,0,0,0,0,0,125.811386,0,0.00128,0.00372,0.00077,0.00064,0.00116,0.00496,0.00185,0.00084,-0.84904,0.19292,3.27669
0.78,0,0,0,0,0,0,0,0,129.448471,0,0.00152,0.00370,0.00067,0.00063,0.00110,0.00333,0.00143,0.00055,-0.59573,0.19193,3.27655
0.79,0,0,0,0,0,0,0,0,140.351852,0,0.00136,0.00287,0.00057,0.00060,0.00090,0.00252,0.00156,0.00058,-0.30826,0.19154,3.27713
0.80,0,0,0,0,0,0,0,0,138.330704,0,0.00170,0.00316,0.00068,0.00109,0.00065,0.00089,0.00344,0.00262,-0.02286,0.19254,3.27679
0.81,0,0,0,0,0,1,0,0,149.414886,0,0.00417,0.00063,0.00142,0.00205,0.00063,0.00075,0.00804,0.00345,0.28358,0.19297,3.27744
0.82,0,0,0,0,0,0,0,0,165.875870,0,0.00594,-0.01354,0.00374,0.00212,0.00066,0.00068,0.01214,0.00267,0.55801,0.19205,3.27728
0.83,0,0,0,0,0,0,0,0,171.526062,0,0.00367,-0.00025,0.00503,0.00139,0.00062,0.00068,0.01545,0.00500,0.81123,0.19120,3.27699
0.84,0,0,0,0,0,0,0,0,175.291565,0,0.00158,0.00443,0.00436,0.00088,0.00060,0.00074,0.02066,0.00729,1.05157,0.19161,3.27705
0.85,0,0,0,0,0,0,0,0,168.690659,0,0.00157,0.00391,0.00312,0.00065,0.00059,0.00080,0.02716,0.00696,1.23553,0.19237,3.27673
0.86,0,0,0,0,0,0,0,0,175.369049,0,0.00146,0.00473,0.00161,0.00059,0.00068,0.00087,0.02345,0.00745,1.36821,0.19286,3.27756
0.87,0,0,0,0,0,0,0,0,178.340134,0,0.00149,0.00315,0.00092,0.00058,0.00081,0.00079,0.01272,0.00531,1.45656,0.19465,3.27675
0.88,0,0,0,0,0,0,0,0,171.442596,0,0.00119,0.00373,0.00084,0.00077,0.00078,0.00073,0.00580,0.00141,1.48735,0.19442,3.27699
0.89,0,0,0,0,1,0,0,0,162.513489,0,0.00143,0.00193,0.00104,0.00084,0.00062,0.00076,0.00201,0.00055,1.45939,0.19364,3.27747
0.90,0,0,0,0,0,0,0,0,153.587540,0,0.00215,0.00291,0.00112,0.00073,0.00066,0.00081,0.00121,0.00054,1.37114,0.19273,3.27719
0.91,0,0,0,0,0,0,0,0,139.135635,0,0.00197,0.00193,0.00138,0.00070,0.00085,0.00088,0.00165,0.00056,1.23392,0.19128,3.27688
0.92,0,0,0,0,0,0,0,0,135.381760,0,0.00169,0.00351,0.00223,0.00077,0.00080,0.00105,0.00238,0.00061,1.05192,0.19073,3.27723
0.93,0,0,0,0,0,0,0,0,135.882172,0,0.00176,-0.01870,0.00232,0.00097,0.00096,0.00147,0.00232,0.00145,0.80971,0.19185,3.27715
0.94,0,0,0,0,0,0,0,0,134.392014,0,0.00232,0.00478,0.00191,0.00107,0.00114,0.00162,0.00189,0.00155,0.55849,0.19249,3.27752
0.95,0,0,0,0,0,0,0,0,132.899796,0,0.00236,0.00214,0.00181,0.00102,0.00086,0.00129,0.00170,0.00109,0.25681,0.19216,3.27735
0.96,0,0,0,0,0,0,0,0,131.359421,0,0.00169,0.00298,0.00143,0.00085,0.00062,0.00092,0.00145,0.00115,-0.02337,0.19129,3.27667
0.97,0,0,0,0,0,0,0,0,131.456863,0,0.00143,0.00291,0.00108,0.00079,0.00062,0.00073,0.00088,0.00101,-0.33083,0.19239,3.27675
0.98,0,0,0,0,0,0,0,0,130.486938,0,0.00127,0.00375,0.00094,0.00091,0.00065,0.00069,0.00071,0.00089,-0.60796,0.19378,3.27711
0.99,0,0,0,0,0,0,0,0,131.566177,0,0.00136,0.00458,0.00086,0.00093,0.00066,0.00074,0.00083,0.00072,-0.86759,0.19386,3.27749
1.00,0,0,0,0,0,0,0,0,124.109726,0,0.00112,0.00428,0.00078,0.00084,0.00069,0.00072,0.00101,0.00057,-1.09851,0.19444,3.27786
1.01,0,0,0,0,0,0,0,0,122.337204,0,0.00118,0.00307,0.00068,0.00074,0.00105,0.00093,0.00114,0.00048,-1.26851,0.19480,3.27774
1.02,0,0,0,0,0,0,0,0,124.092209,0,0.00126,0.00158,0.00062,0.00061,0.00145,0.00113,0.00131,0.00059,-1.40095,0.19443,3.27709
1.03,0,0,0,0,0,0,0,0,133.992874,0,0.00112,0.00422,0.00056,0.00104,0.00103,0.00090,0.00518,0.00399,-1.47184,0.19404,3.27631
1.04,0,0,0,0,0,1,0,0,138.216370,0,0.00199,0.00262,0.00068,0.00183,0.00061,0.00073,0.00741,0.00441,-1.47736,0.19452,3.27707
1.05,0,0,0,0,0,0,0,0,156.731750,0,0.00374,0.00093,0.00238,0.00203,0.00062,0.00071,0.00931,0.00218,-1.42344,0.19444,3.27742
1.06,0,0,0,0,0,0,0,0,177.320160,0,0.00386,0.00578,0.00555,0.00171,0.00068,0.00068,0.02167,0.00688,-1.31899,0.19270,3.27734
1.07,0,0,0,0,0,0,0,0,168.138153,0,0.00230,0.00325,0.00685,0.00121,0.00080,0.00067,0.02894,0.01394,-1.15258,0.19186,3.27752
1.08,0,0,0,0,0,0,0,0,173.919495,0,0.00147,0.00353,0.00422,0.00084,0.00081,0.00086,0.02866,0.01461,-0.94767,0.19340,3.27736
1.09,0,0,0,0,0,0,0,0,171.734985,0,0.00119,0.00325,0.00182,0.00107,0.00084,0.00105,0.02152,0.00785,-0.69402,0.19415,3.27766
1.10,0,0,0,0,1,0,0,0,163.623932,0,0.00253,0.00241,0.00127,0.00146,0.00102,0.00105,0.00779,0.00221,-0.42986,0.19340,3.27711
1.11,0,0,0,0,0,0,0,0,159.609802,0,0.00361,0.00291,0.00091,0.00151,0.00123,0.00283,0.00248,0.00087,-0.12581,0.19375,3.27760
1.12,0,0,0,0,0,0,0,0,149.246902,0,0.00255,0.00270,0.00095,0.00164,0.00150,0.00518,0.00207,0.00072,0.15714,0.19453,3.27712
1.13,0,0,0,0,0,0,0,0,145.639053,0,0.00166,0.00281,0.00112,0.00178,0.00164,0.00411,0.00183,0.00068,0.46069,0.19526,3.27738
1.14,0,0,0,0,0,0,0,0,138.106323,0,0.00183,0.00337,0.00104,0.00157,0.00147,0.00323,0.00149,0.00065,0.72307,0.19583,3.27722
1.15,0,0,0,0,0,0,0,0,132.261322,0,0.00199,0.00449,0.00082,0.00162,0.00154,0.00418,0.00182,0.00071,0.95505,0.19689,3.27658
1.16,0,0,0,0,0,0,0,0,128.645004,0,0.00217,0.00247,0.00100,0.00199,0.00150,0.00268,0.00183,0.00071,1.16972,0.19745,3.27703
1.17,0,0,0,0,0,0,0,0,123.780617,0,0.00249,0.00509,0.00118,0.00179,0.00130,0.00308,0.00136,0.00057,1.32424,0.19647,3.27736
1.18,0,0,0,0,0,0,0,0,123.035210,0,0.00222,0.00378,0.00117,0.00142,0.00127,0.00528,0.00113,0.00054,1.42792,0.19555,3.27716
1.19,0,0,0,0,0,0,0,0,116.042755,0,0.00189,0.00209,0.00139,0.00129,0.00119,0.00312,0.00090,0.00056,1.48141,0.19510,3.27706
1.20,0,0,0,0,0,0,0,0,117.168732,0,0.00199,0.00462,0.00130,0.00164,0.00119,0.00085,0.00085,0.00057,1.47559,0.19400,3.27734
1.21,0,0,0,0,0,0,0,0,120.568993,0,0.00191,0.00408,0.00087,0.00171,0.00088,0.00086,0.00082,0.00079,1.41131,0.19451,3.27780
1.22,0,0,0,0,0,0,0,0,129.964432,0,0.00138,0.00528,0.00074,0.00136,0.00059,0.00077,0.00704,0.00589,1.29922,0.19491,3.27687
1.23,0,0,0,0,0,1,0,0,144.242813,0,0.00131,0.00987,0.00075,0.00133,0.00057,0.00069,0.01246,0.00615,1.12205,0.19418,3.27687
1.24,0,0,0,0,0,0,0,0,160.077911,0,0.00222,0.00504,0.00080,0.00103,0.00052,0.00070,0.01022,0.00152,0.91399,0.19401,3.27783
1.25,0,0,0,0,0,0,0,0,172.739212,0,0.00294,0.00949,0.00167,0.00160,0.00108,0.00215,0.00967,0.00233,0.65188,0.19409,3.27694
1.26,0,0,0,0,0,0,0,0,169.328720,0,0.00218,0.00324,0.00177,0.00161,0.00117,0.00234,0.01626,0.00379,0.38408,0.19509,3.27698
1.27,0,0,0,0,0,0,0,0,157.952591,0,0.00087,0.00460,0.00106,0.00067,0.00073,0.00105,0.01661,0.00414,0.08176,0.19478,3.27711
1.28,0,0,0,0,0,0,0,0,171.120392,0,0.00070,0.00199,0.00124,0.00065,0.00068,0.00093,0.01258,0.00417,-0.20522,0.19559,3.27677
1.29,0,0,0,0,0,0,0,0,174.665894,0,0.00112,0.00328,0.00168,0.00079,0.00071,0.00081,0.01607,0.00683,-0.50493,0.19585,3.27696
1.30,0,0,0,0,0,0,0,0,169.999435,0,0.00147,0.00365,0.00164,0.00075,0.00084,0.00086,0.02258,0.01195,-0.78265,0.19534,3.27732
1.31,0,0,0,0,0,0,0,0,173.047394,0,0.00134,0.00358,0.00101,0.00056,0.00090,0.00098,0.01850,0.00901,-1.00731,0.19401,3.27690
1.32,0,0,0,0,0,0,0,0,162.496506,0,0.00157,0.00378,0.00088,0.00052,0.00108,0.00104,0.01100,0.00253,-1.21232,0.19262,3.27757
1.33,0,0,0,0,0,0,0,0,162.454971,0,0.00156,0.00384,0.00093,0.00061,0.00111,0.00096,0.00705,0.00119,-1.35676,0.19190,3.27713
1.34,0,0,0,0,1,0,0,0,169.407608,0,0.00115,0.00251,0.00091,0.00111,0.00094,0.00085,0.00216,0.00060,-1.45037,0.19160,3.27756
1.35,0,0,0,0,0,0,0,0,165.373352,0,0.00263,0.00263,0.00110,0.00166,0.00075,0.00083,0.00158,0.00070,-1.48148,0.19234,3.27709
1.36,0,0,0,0,0,0,0,0,159.680222,0,0.00322,0.00383,0.00101,0.00184,0.00065,0.00084,0.00141,0.00069,-1.45477,0.19329,3.27683
1.37,0,0,0,0,0,0,0,0,148.524902,0,0.00248,0.00361,0.00073,0.00210,0.00069,0.00086,0.00115,0.00065,-1.36334,0.19399,3.27741
1.38,0,0,0,0,0,0,0,0,142.883453,0,0.00229,0.00328,0.00076,0.00276,0.00109,0.00106,0.00139,0.00078,-1.22425,0.19354,3.27724
1.39,0,0,0,0,0,0,0,0,139.777115,0,0.00175,0.00070,0.00083,0.00268,0.00115,0.00106,0.00174,0.00142,-1.02936,0.18435,3.27749
1.40,0,0,0,0,0,0,0,0,154.992004,0,0.00111,0.00413,0.00080,0.00187,0.00090,0.00414,0.00209,0.00209,-0.79954,0.19631,3.27767
1.41,0,0,0,0,0,0,0,0,135.883530,0,0.00083,0.00056,0.00075,0.00130,0.00086,0.00595,0.00184,0.00152,-0.53107,0.19900,3.27666
1.42,0,0,0,0,0,0,0,0,131.554977,0,0.00121,0.00310,0.00087,0.00095,0.00120,0.00274,0.00165,0.00071,-0.25674,0.19509,3.27746
1.43,0,0,0,0,0,0,0,0,132.483017,0,0.00113,0.00386,0.00075,0.00081,0.00122,0.00099,0.00165,0.00059,0.05248,0.19268,3.27715
1.44,0,0,0,0,0,0,0,0,131.055313,0,0.00089,0.00410,0.00056,0.00067,0.00101,0.00098,0.00123,0.00051,0.33513,0.19207,3.27707
1.45,0,0,0,0,0,0,0,0,131.268951,0,0.00102,0.00299,0.00063,0.00065,0.00101,0.00107,0.00121,0.00051,0.62930,0.19248,3.27686
1.46,0,0,0,0,0,0,0,0,136.039795,0,0.00127,0.00438,0.00065,0.00084,0.00083,0.00104,0.00429,0.00260,0.87266,0.19262,3.27690
1.47,0,0,0,0,0,1,0,0,135.300491,0,0.00364,0.00757,0.00143,0.00147,0.00069,0.00077,0.00867,0.00401,1.08664,0.19201,3.27759
1.48,0,0,0,0,0,0,0,0,159.272339,0,0.00459,0.00467,0.00238,0.00165,0.00055,0.00063,0.01069,0.00465,1.26270,0.19225,3.27759
1.49,0,0,0,0,0,0,0,0,174.390869,0,0.00324,0.01487,0.00267,0.00109,0.00056,0.00064,0.01337,0.00474,1.39642,0.19364,3.27659
1.50,0,0,0,0,0,0,0,0,176.167740,0,0.00196,0.00355,0.00217,0.00071,0.00057,0.00069,0.01542,0.00382,1.46788,0.19457,3.27687
1.51,0,0,0,0,0,0,0,0,164.900909,0,0.00095,0.00349,0.00129,0.00060,0.00061,0.00074,0.01801,0.00482,1.48502,0.19476,3.27751
1.52,0,0,0,0,0,0,0,0,174.982254,0,0.00146,0.00363,0.00103,0.00059,0.00071,0.00077,0.01515,0.00614,1.44111,0.19444,3.27649
1.53,0,0,0,0,0,0,0,0,161.332230,0,0.00152,0.00355,0.00102,0.00053,0.00074,0.00083,0.00588,0.00380,1.34831,0.19398,3.27736
1.54,0,0,0,0,0,0,0,0,164.140579,0,0.00103,0.00435,0.00098,0.00054,0.00062,0.00081,0.00405,0.00107,1.20118,0.19371,3.27638
1.55,0,0,0,0,1,0,0,0,169.056900,0,0.00122,0.00297,0.00092,0.00070,0.00075,0.00098,0.00535,0.00056,0.99319,0.19487,3.27715
1.56,0,0,0,0,0,0,0,0,166.440903,0,0.00138,0.00221,0.00109,0.00082,0.00091,0.00139,0.00323,0.00066,0.76521,0.19610,3.27662
1.57,0,0,0,0,0,0,0,0,163.661942,0,0.00094,0.00411,0.00110,0.00075,0.00082,0.00132,0.00183,0.00068,0.48445,0.19676,3.27677
1.58,0,0,0,0,0,0,0,0,157.899002,0,0.00093,0.00401,0.00099,0.00070,0.00079,0.00092,0.00164,0.00063,0.20865,0.19686,3.27659
1.59,0,0,0,0,0,0,0,0,154.031860,0,0.00105,0.00187,0.00114,0.00076,0.00077,0.00076,0.00168,0.00057,-0.10015,0.19576,3.27742
1.60,0,0,0,0,0,0,0,0,147.568207,0,0.00119,0.00423,0.00119,0.00083,0.00088,0.00076,0.00166,0.00050,-0.38751,0.19503,3.27690
1.61,0,0,0,0,0,0,0,0,142.738663,0,0.00143,0.00316,0.00107,0.00101,0.00096,0.00076,0.00098,0.00053,-0.67199,0.19376,3.27772
1.62,0,0,0,0,0,0,0,0,146.896606,0,0.00139,0.00398,0.00106,0.00123,0.00077,0.00070,0.00092,0.00057,-0.93334,0.19319,3.27744
1.63,0,0,0,0,0,0,0,0,138.697998,0,0.00138,0.00545,0.00094,0.00112,0.00068,0.00070,0.00101,0.00056,-1.13511,0.19340,3.27630
1.64,0,0,0,0,0,0,0,0,138.937897,0,0.00117,0.00449,0.00077,0.00125,0.00069,0.00072,0.00102,0.00060,-1.30833,0.19426,3.27730
1.65,0,0,0,0,0,0,0,0,147.285172,0,0.00133,0.00401,0.00084,0.00152,0.00061,0.00079,0.00110,0.00076,-1.42498,0.19488,3.27729
1.66,0,0,0,0,0,0,0,0,136.813507,0,0.00132,0.00440,0.00103,0.00140,0.00080,0.00088,0.00119,0.00082,-1.47612,0.19494,3.27756
1.67,0,0,0,0,0,0,0,0,132.806198,0,0.00100,0.00273,0.00117,0.00123,0.00138,0.00162,0.00149,0.00117,-1.47091,0.19527,3.27721
1.68,0,0,0,0,0,0,0,0,130.003067,0,0.00100,0.00459,0.00120,0.00103,0.00152,0.00286,0.00150,0.00121,-1.40710,0.19406,3.27637
1.69,0,0,0,0,0,0,0,0,126.332947,0,0.00120,0.00269,0.00096,0.00077,0.00129,0.00388,0.00119,0.00085,-1.28439,0.19313,3.27732
1.70,0,0,0,0,0,0,0,0,127.337830,0,0.00138,0.00375,0.00081,0.00072,0.00138,0.00484,0.00125,0.00079,-1.10965,0.19275,3.27767
1.71,0,0,0,0,0,0,0,0,126.505386,0,0.00131,0.00386,0.00100,0.00069,0.00131,0.00664,0.00174,0.00074,-0.89340,0.19235,3.27764
1.72,0,0,0,0,0,0,0,0,121.997177,0,0.00116,0.00287,0.00133,0.00067,0.00101,0.00579,0.00148,0.00059,-0.64343,0.19236,3.27693
1.73,0,0,0,0,0,0,0,0,119.036751,0,0.00088,0.00382,0.00115,0.00074,0.00119,0.00444,0.00118,0.00059,-0.35642,0.19107,3.27682
1.74,0,0,0,0,0,0,0,0,123.649971,0,0.00112,0.00410,0.00095,0.00090,0.00127,0.00689,0.00182,0.00076,-0.07322,0.19120,3.27752
1.75,0,0,0,0,0,0,0,0,126.086014,0,0.00130,0.00328,0.00106,0.00088,0.00119,0.00858,0.00177,0.00087,0.23199,0.19033,3.27755
1.76,0,0,0,0,0,0,0,0,128.109650,0,0.00116,0.00366,0.00082,0.00104,0.00100,0.00582,0.00120,0.00127,0.51003,0.18919,3.27780
1.77,0,0,0,0,0,0,0,0,137.903488,0,0.00184,0.00333,0.00062,0.00214,0.00061,0.00181,0.00594,0.00203,0.77199,0.18909,3.27791
1.78,0,0,0,0,0,1,0,0,144.341415,0,0.00361,-0.00228,0.00076,0.00234,0.00055,0.00075,0.01037,0.00310,1.01287,0.18980,3.27696
1.79,0,0,0,0,0,0,0,0,165.485535,0,0.00516,0.00327,0.00093,0.00167,0.00052,0.00070,0.00830,0.00291,1.20233,0.19112,3.27695
1.80,0,0,0,0,0,0,0,0,177.736618,0,0.00495,-0.00235,0.00115,0.00146,0.00054,0.00062,0.01143,0.00205,1.35020,0.19250,3.27713
1.81,0,0,0,0,0,0,0,0,168.695496,0,0.00399,0.00212,0.00149,0.00114,0.00056,0.00061,0.01319,0.00266,1.45062,0.19395,3.27733
1.82,0,0,0,0,0,0,0,0,163.723709,0,0.00236,0.00322,0.00262,0.00087,0.00058,0.00061,0.01323,0.00608,1.48560,0.19481,3.27727
1.83,0,0,0,0,0,0,0,0,173.855240,0,0.00144,0.00554,0.00340,0.00077,0.00064,0.00066,0.02354,0.00880,1.46635,0.19478,3.27813
1.84,0,0,0,0,0,0,0,0,164.588013,0,0.00130,0.00371,0.00222,0.00062,0.00062,0.00069,0.02284,0.00782,1.39500,0.19524,3.27740
1.85,0,0,0,0,0,0,0,0,179.580078,0,0.00135,0.00453,0.00114,0.00055,0.00064,0.00075,0.01584,0.00480,1.26146,0.19511,3.27747
1.86,0,0,0,0,0,0,0,0,176.401932,0,0.00186,0.00382,0.00112,0.00088,0.00098,0.00133,0.01348,0.00251,1.08713,0.19487,3.27679
1.87,0,0,0,0,0,0,0,0,166.233490,0,0.00202,-0.00916,0.00108,0.00105,0.00110,0.00156,0.01086,0.00242,0.85244,0.19547,3.27700
1.88,0,0,0,0,0,0,0,0,171.134888,0,0.00160,0.00163,0.00092,0.00075,0.00087,0.00107,0.01143,0.00174,0.62731,0.19582,3.27694
1.89,0,0,0,0,1,0,0,0,175.517303,0,0.00107,0.00399,0.00087,0.00062,0.00083,0.00080,0.00835,0.00071,0.33459,0.19569,3.27690
1.90,0,0,0,0,0,0,0,0,170.806778,0,0.00080,0.00473,0.00102,0.00062,0.00077,0.00076,0.00386,0.00053,0.06118,0.19542,3.27627
1.91,0,0,0,0,0,0,0,0,171.294220,0,0.00094,0.00273,0.00110,0.00070,0.00081,0.00075,0.00195,0.00048,-0.25609,0.19601,3.27678
1.92,0,0,0,0,0,0,0,0,166.088745,0,0.00124,0.00390,0.00098,0.00085,0.00079,0.00070,0.00136,0.00055,-0.53885,0.19545,3.27829
1.93,0,0,0,0,0,0,0,0,154.046631,0,0.00141,0.00388,0.00088,0.00102,0.00072,0.00075,0.00137,0.00058,-0.80847,0.19628,3.27755
1.94,0,0,0,0,0,0,0,0,142.181870,0,0.00116,0.00314,0.00079,0.00121,0.00072,0.00080,0.00108,0.00053,-1.04814,0.19695,3.27727
1.95,0,0,0,0,0,0,0,0,139.394897,0,0.00118,0.00419,0.00084,0.00127,0.00074,0.00075,0.00096,0.00052,-1.22849,0.19758,3.27757
1.96,0,0,0,0,0,0,0,0,139.493759,0,0.00138,0.00418,0.00080,0.00154,0.00075,0.00074,0.00103,0.00052,-1.37267,0.19679,3.27684
1.97,0,0,0,0,0,0,0,0,133.784637,0,0.00138,0.00401,0.00075,0.00193,0.00063,0.00073,0.00135,0.00063,-1.46027,0.19558,3.27744
1.98,0,0,0,0,0,0,0,0,142.011383,0,0.00151,0.00322,0.00086,0.00228,0.00116,0.00441,0.00167,0.00125,-1.48073,0.19522,3.27772
1.99,0,0,0,0,0,0,0,0,140.843918,0,0.00141,0.00398,0.00090,0.00193,0.00151,0.00927,0.00155,0.00227,-1.43856,0.19502,3.27712
2.00,0,0,0,0,0,0,0,0,134.913788,0,0.00103,0.00320,0.00088,0.00142,0.00122,0.00854,0.00141,0.00230,-1.34292,0.19527,3.27621
2.01,0,0,0,0,0,0,0,0,131.737808,0,0.00092,0.00219,0.00088,0.00130,0.00144,0.00574,0.00150,0.00143,-1.18408,0.19462,3.27728
2.02,0,0,0,0,0,0,0,0,127.455147,0,0.00124,0.00439,0.00100,0.00103,0.00169,0.00533,0.00154,0.00115,-0.97891,0.19415,3.27715
2.03,0,0,0,0,0,0,0,0,128.301544,0,0.00206,0.00337,0.00118,0.00096,0.00141,0.00776,0.00169,0.00105,-0.74063,0.19400,3.27782
2.04,0,0,0,0,0,0,0,0,128.565796,0,0.00206,0.00252,0.00129,0.00096,0.00122,0.00836,0.00174,0.00074,-0.47403,0.19296,3.27716
2.05,0,0,0,0,0,0,0,0,128.987457,0,0.00122,0.00341,0.00096,0.00076,0.00119,0.00544,0.00127,0.00066,-0.17953,0.19189,3.27668
2.06,0,0,0,0,0,0,0,0,135.550339,0,0.00197,0.00396,0.00065,0.00142,0.00090,0.00233,0.00203,0.00161,0.10403,0.19184,3.27656
2.07,0,0,0,0,0,1,0,0,151.993500,0,0.00564,-0.01352,0.00070,0.00218,0.00058,0.00070,0.00571,0.00179,0.41218,0.19079,3.27646
2.08,0,0,0,0,0,0,0,0,167.742905,0,0.00846,-0.00023,0.00109,0.00184,0.00059,0.00068,0.01023,0.00197,0.67553,0.19031,3.27701
2.09,0,0,0,0,0,0,0,0,174.374008,0,0.00745,0.00078,0.00215,0.00176,0.00057,0.00070,0.00904,0.00237,0.91531,0.19004,3.27744
2.10,0,0,0,0,0,0,0,0,167.706696,0,0.00533,0.00583,0.00313,0.00179,0.00059,0.00071,0.00811,0.00299,1.14050,0.19019,3.27796
2.11,0,0,0,0,0,0,0,0,159.280045,0,0.00300,0.00348,0.00356,0.00124,0.00059,0.00076,0.01697,0.00392,1.29996,0.19110,3.27748
2.12,0,0,0,0,0,0,0,0,165.258636,0,0.00149,0.00275,0.00280,0.00077,0.00059,0.00067,0.01948,0.00445,1.41373,0.19180,3.27723
2.13,0,0,0,0,0,0,0,0,176.517410,0,0.00121,0.00324,0.00179,0.00059,0.00062,0.00063,0.01792,0.00838,1.47510,0.19165,3.27754
2.14,0,0,0,0,0,0,0,0,176.135513,0,0.00145,0.00386,0.00142,0.00060,0.00062,0.00084,0.02050,0.00914,1.47948,0.19277,3.27659
2.15,0,0,0,0,0,0,0,0,176.173950,0,0.00223,0.00440,0.00109,0.00059,0.00074,0.00102,0.01708,0.00488,1.42811,0.19418,3.27650
2.16,0,0,0,0,0,0,0,0,172.796326,0,0.00188,0.00500,0.00087,0.00059,0.00092,0.00097,0.00957,0.00159,1.32388,0.19381,3.27715
2.17,0,0,0,0,1,0,0,0,167.678192,0,0.00101,0.00244,0.00089,0.00061,0.00093,0.00080,0.00711,0.00058,1.15336,0.19255,3.27730
2.18,0,0,0,0,0,0,0,0,169.467209,0,0.00098,0.00463,0.00119,0.00089,0.00127,0.00119,0.00660,0.00106,0.95500,0.19229,3.27696
2.19,0,0,0,0,0,0,0,0,170.540848,0,0.00110,0.00085,0.00126,0.00097,0.00121,0.00125,0.00458,0.00115,0.69835,0.19186,3.27775
2.20,0,0,0,0,0,0,0,0,165.613846,0,0.00115,0.00315,0.00098,0.00072,0.00069,0.00073,0.00303,0.00061,0.43522,0.19280,3.27744
2.21,0,0,0,0,0,0,0,0,151.938339,0,0.00162,0.00475,0.00083,0.00082,0.00062,0.00066,0.00175,0.00049,0.12911,0.19214,3.27713
2.22,0,0,0,0,0,0,0,0,143.298843,0,0.00226,0.00267,0.00103,0.00080,0.00058,0.00070,0.00171,0.00055,-0.15192,0.19201,3.27757
2.23,0,0,0,0,0,0,0,0,138.919968,0,0.00167,0.00505,0.00115,0.00075,0.00060,0.00068,0.00134,0.00055,-0.45731,0.19258,3.27707
2.24,0,0,0,0,0,0,0,0,132.971725,0,0.00108,0.00167,0.00110,0.00129,0.00074,0.00083,0.00119,0.00054,-0.74156,0.19395,3.27706
2.25,0,0,0,0,0,0,0,0,129.746460,0,0.00125,0.00285,0.00089,0.00156,0.00085,0.00087,0.00101,0.00055,-0.97272,0.19490,3.27744
2.26,0,0,0,0,0,0,0,0,133.975372,0,0.00132,0.00312,0.00080,0.00153,0.00124,0.00095,0.00104,0.00052,-1.18487,0.19544,3.27684
2.27,0,0,0,0,0,0,0,0,136.889954,0,0.00142,0.00349,0.00101,0.00228,0.00153,0.00114,0.00137,0.00056,-1.33514,0.19574,3.27734
2.28,0,0,0,0,0,0,0,0,156.845230,0,0.00155,0.00363,0.00098,0.00241,0.00163,0.00348,0.00151,0.00074,-1.43627,0.19589,3.27715
2.29,0,0,0,0,0,0,0,0,137.029816,0,0.00170,0.00314,0.00093,0.00162,0.00176,0.00846,0.00180,0.00139,-1.47968,0.19678,3.27664
2.30,0,0,0,0,0,0,0,0,126.108337,0,0.00154,0.00443,0.00101,0.00102,0.00178,0.00985,0.00197,0.00180,-1.46329,0.19665,3.27684
2.31,0,0,0,0,0,0,0,0,127.526154,0,0.00123,0.00356,0.00144,0.00067,0.00182,0.00826,0.00173,0.00171,-1.38421,0.19571,3.27728
2.32,0,0,0,0,0,0,0,0,141.549698,0,0.00151,0.00353,0.00146,0.00070,0.00162,0.00972,0.00181,0.00131,-1.25372,0.19517,3.27817
2.33,0,0,0,0,0,0,0,0,150.980255,0,0.00169,0.00347,0.00134,0.00077,0.00134,0.01010,0.00165,0.00085,-1.06597,0.19441,3.27780
2.34,0,0,0,0,0,0,0,0,162.640533,0,0.00133,0.00300,0.00119,0.00078,0.00099,0.00638,0.00107,0.00077,-0.84302,0.19308,3.27721
2.35,0,0,0,0,0,1,0,0,158.506836,0,0.00325,0.00767,0.00073,0.00154,0.00067,0.00238,0.00219,0.00158,-0.57859,0.19249,3.27667
2.36,0,0,0,0,0,0,0,0,173.633377,0,0.00755,-0.00432,0.00158,0.00284,0.00062,0.00069,0.00546,0.00221,-0.30565,0.19097,3.27707
