"Time","60 Right DS","59 Left DS","58 FLr Sw of","57 FLr Sw on","56 FLl Sw of","54 HLr Sw of","55 FLl Sw on","53 HLr Sw on","52 HLl Sw of","51 HLl Sw on","v6 L Mos","v4 R Mos","67 xCoM","37 CoMy (cm)","v5 L COP","v3 R COP","35 FRy (cm)","33 FLy (cm)","30 HRy (cm)","28 HLy (cm)"
0.00,1,1,0,0,0,0,0,0,0,0,,,,,,,,,,
0.01,1,1,0,0,0,0,0,0,0,0,,,,,,,,,,
0.02,1,1,0,0,0,0,0,0,0,0,,,,,,,,,,
0.03,1,1,0,0,0,0,0,0,0,0,-5.062282,-5.062282,5.061230,0.932254,0.000000,0.000000,4.296498,5.900440,3.868784,6.808165
0.04,1,1,0,0,0,0,0,0,0,0,-5.201450,-5.201450,5.201661,1.648696,0.000000,0.000000,4.327481,5.916884,3.885846,6.742429
0.05,1,1,0,0,0,0,0,0,0,0,-5.158390,-5.158390,5.157470,1.909784,0.000000,0.000000,4.412529,5.936099,3.867044,6.734456
0.06,1,1,0,0,0,0,0,0,0,0,-5.166518,-5.166518,5.164844,2.292499,0.000000,0.000000,4.446057,5.945082,3.860184,6.689267
0.07,1,1,0,0,0,0,0,0,0,0,-5.291834,-5.291834,5.292455,2.579060,0.000000,0.000000,4.503513,5.933597,3.878529,6.615554
0.08,1,1,0,0,0,0,0,0,0,0,-5.316019,-5.316019,5.316652,3.117161,0.000000,0.000000,4.573090,5.921445,3.914579,6.674047
0.09,1,1,1,0,0,0,0,0,0,0,-5.333699,-5.333699,5.333162,3.821774,0.000000,0.000000,4.674003,5.916533,3.877877,6.787479
0.10,1,1,0,0,0,0,0,0,0,0,-5.450023,-1.217760,5.449202,4.617891,0.000000,4.232263,4.629134,5.913283,3.874223,6.866619
0.11,1,1,0,0,0,0,0,0,0,0,-5.626472,-1.408136,5.627598,4.919108,0.000000,4.218336,4.580212,5.893055,3.856164,6.862245
0.12,1,1,0,0,0,0,0,0,1,0,-5.588009,-1.374841,5.589037,4.317585,0.000000,4.213168,4.578024,5.910149,3.845467,6.773077
0.13,1,1,0,0,0,0,0,0,0,0,-5.481604,-1.236880,5.480909,3.336143,0.000000,4.244724,4.634102,5.904846,3.858595,6.792599
0.14,1,1,0,0,0,0,1,0,0,0,-5.524155,-1.268441,5.524010,2.999033,0.000000,4.255713,4.648125,5.904046,3.884123,6.790816
0.15,1,1,0,0,0,0,0,0,0,0,-5.569464,-1.311882,5.569316,3.797286,0.000000,4.257581,4.602182,5.929510,3.910117,6.771278
0.16,1,1,0,0,0,0,0,0,0,0,-5.714183,-1.443632,5.713149,5.345110,0.000000,4.270551,4.609136,6.159551,3.931485,6.794197
0.17,1,1,0,0,0,0,0,0,0,0,-5.944363,-1.666876,5.945652,6.448095,0.000000,4.277487,4.622260,6.291508,3.931680,6.776480
0.18,1,1,0,0,0,0,0,0,0,0,-5.998466,-1.734565,5.999703,6.345551,0.000000,4.263902,4.619687,6.421574,3.902125,6.761906
0.19,1,1,0,0,0,0,0,1,0,0,-5.930072,-1.678021,5.930602,4.935683,0.000000,4.252052,4.604875,6.428256,3.886513,6.744956
0.20,0,1,0,0,0,0,0,0,0,0,-5.849100,-5.849100,5.850067,3.353340,0.000000,0.000000,4.585776,6.447722,3.918639,6.776395
0.21,0,1,0,0,0,0,0,0,0,0,-5.806947,-5.806947,5.805806,2.349489,0.000000,0.000000,4.610939,6.432565,3.941806,6.761335
0.22,0,1,0,0,0,0,0,0,0,0,-5.848558,-5.848558,5.848150,2.165110,0.000000,0.000000,4.629425,6.473781,3.816898,6.763207
0.23,0,1,0,0,0,0,0,0,0,0,-5.905367,-5.905367,5.905798,2.083072,0.000000,0.000000,4.645091,6.512462,3.835627,6.766420
0.24,0,1,0,0,0,0,0,0,0,0,-5.904739,-5.904739,5.905415,1.670231,0.000000,0.000000,4.622446,6.543452,3.965400,6.765065
0.25,0,1,0,0,0,0,0,0,0,0,-5.842371,-5.842371,5.843016,1.120258,0.000000,0.000000,4.601908,6.567572,4.176916,6.791210
0.26,0,1,0,0,0,0,0,0,0,0,-5.828187,-5.828187,5.829078,0.452596,0.000000,0.000000,4.615570,6.557464,4.187532,6.811507
0.27,0,1,0,0,0,0,0,0,0,0,-5.858590,-5.858590,5.860212,0.041843,0.000000,0.000000,4.619136,6.566403,4.220369,6.819008
0.28,0,1,0,0,0,0,0,0,0,0,-5.754192,-5.754192,5.753884,-0.530126,0.000000,0.000000,4.606402,6.567374,4.211258,6.822781
0.29,0,1,0,0,0,0,0,0,0,0,-5.745704,-5.745704,5.745985,-0.500817,0.000000,0.000000,4.613636,6.576063,4.163467,6.824443
0.30,0,1,0,0,0,0,0,0,0,0,-5.771937,-5.771937,5.771608,-0.435024,0.000000,0.000000,4.589496,6.570411,4.140461,6.814990
0.31,0,1,0,0,0,0,0,0,0,0,-5.830580,-5.830580,5.830743,-0.320224,0.000000,0.000000,4.591473,6.567315,4.101363,6.786792
0.32,0,1,0,0,0,0,0,0,0,0,7.598739,-5.754960,5.754647,-0.941783,13.353699,0.000000,4.599524,6.565615,4.041549,6.784486
0.33,0,1,0,0,0,0,0,0,0,0,5.633337,-5.658454,5.658316,-1.653591,11.291791,0.000000,4.637727,4.522346,3.994437,6.772140
0.34,0,1,0,0,1,0,0,0,0,0,7.579258,-5.650592,5.651885,-2.032674,13.229851,0.000000,4.648426,6.526546,3.967554,6.774178
0.35,0,1,0,0,0,1,0,0,0,0,7.618532,-5.621804,5.621474,-1.615851,13.240336,0.000000,4.628996,6.446822,4.035144,6.795424
0.36,0,1,0,0,0,0,0,0,0,0,7.533801,-5.655197,5.654422,-0.831298,13.188997,0.000000,4.656067,6.405856,4.026456,6.784144
0.37,0,1,0,1,0,0,0,0,0,0,7.432306,-5.765553,5.766382,-0.198462,13.197859,0.000000,4.689617,6.405631,4.023105,6.791277
0.38,0,1,0,0,0,0,0,0,0,0,7.492966,-5.744480,5.744797,-0.573153,13.237447,0.000000,4.627592,6.450216,4.026002,6.786467
0.39,0,1,0,0,0,0,0,0,0,0,7.569181,-5.638165,5.639839,-1.597860,13.207346,0.000000,4.635975,6.451858,4.027715,6.755658
0.40,0,1,0,0,0,0,0,0,0,0,7.730990,-5.496655,5.497349,-2.601619,13.227646,0.000000,4.524808,6.446365,4.048065,6.782089
0.41,0,1,0,0,0,0,0,0,0,0,7.771739,-5.497066,5.496719,-2.869355,13.268806,0.000000,4.541097,6.455438,4.083092,6.812743
0.42,0,1,0,0,0,0,0,0,0,0,7.796631,-5.510723,5.511085,-2.991754,13.307354,0.000000,4.449001,6.467482,4.042119,6.839617
0.43,0,1,0,0,0,0,0,0,0,0,7.890285,-5.463801,5.464204,-3.442123,13.354086,0.000000,4.462255,6.469467,4.067955,6.884622
0.44,0,1,0,0,0,0,0,0,0,0,8.071482,-5.315373,5.315267,-4.338038,13.386855,0.000000,4.474197,6.458524,4.086573,6.929339
0.45,0,1,0,0,0,0,0,0,0,0,8.150993,-5.217084,5.216325,-4.882330,13.368077,0.000000,4.384083,6.401027,4.068577,6.966515
0.46,0,1,0,0,0,0,0,0,0,1,8.135017,-5.196247,5.195970,-4.666042,13.331264,0.000000,4.333820,6.385922,4.070666,6.943976
0.47,0,0,0,0,0,0,0,0,0,0,-5.204396,-5.204396,5.203795,-3.800163,0.000000,0.000000,4.283284,6.329437,4.061360,6.895765
0.48,0,0,0,0,0,0,0,0,0,0,-5.242112,-5.242112,5.240900,-2.793783,0.000000,0.000000,4.247640,6.333670,4.083285,6.961963
0.49,0,0,0,0,0,0,0,0,0,0,-5.250327,-5.250327,5.248710,-2.091629,0.000000,0.000000,4.211381,6.317318,4.104328,6.980915
0.50,0,0,0,0,0,0,0,0,0,0,-5.250625,-5.250625,5.247896,-1.657231,0.000000,0.000000,4.193389,6.317406,4.104664,6.871665
0.51,0,0,0,0,0,0,0,0,0,0,-5.236761,-5.236761,5.236408,-1.206603,0.000000,0.000000,4.143320,6.304621,4.097808,6.819509
0.52,0,0,0,0,0,0,0,0,0,0,-5.272545,-5.272545,5.272285,-0.739378,0.000000,0.000000,4.115091,6.318280,4.093239,6.799406
0.53,0,0,0,0,0,0,0,0,0,0,-5.330813,-5.330813,5.331527,-0.244319,0.000000,0.000000,4.138148,6.278931,4.106036,6.758262
0.54,0,0,0,0,0,0,0,0,0,0,-5.301926,-5.301926,5.302702,-0.068000,0.000000,0.000000,4.057975,6.288847,4.108923,6.719175
0.55,0,0,1,0,0,0,0,0,0,0,-5.322128,-5.322128,5.322176,0.499806,0.000000,0.000000,4.052344,6.277080,4.136903,6.794048
0.56,1,0,0,0,0,0,0,0,0,0,-5.353102,-1.280987,5.352877,1.031777,0.000000,4.072116,4.025458,6.303641,4.100960,6.876591
0.57,1,0,0,0,0,0,0,0,0,0,-5.474032,-1.368605,5.474423,1.739373,0.000000,4.105427,4.112316,6.341957,4.104115,6.999051
0.58,1,0,0,0,0,0,0,0,0,0,-5.469005,-1.365375,5.468589,1.447412,0.000000,4.103631,4.136111,6.336801,4.095236,6.981217
0.59,1,0,0,0,0,0,0,0,1,0,-5.405788,-1.301373,5.406309,0.969466,0.000000,4.104416,4.133657,6.379083,4.093750,6.945873
0.60,1,0,0,0,0,0,0,0,0,0,-5.353590,-1.261865,5.353375,0.305546,0.000000,4.091725,4.106078,6.429068,4.077749,6.799653
0.61,1,0,0,0,0,0,0,0,0,0,-5.407504,-1.324711,5.408320,-0.233499,0.000000,4.082793,4.094631,6.398570,4.076843,6.801516
0.62,1,0,0,0,0,0,1,0,0,0,-5.356042,-1.290799,5.356721,-0.757576,0.000000,4.065244,4.079287,6.403327,4.044171,6.793929
0.63,1,0,0,0,0,0,0,0,0,0,-5.199335,-1.128071,5.197683,-0.890481,0.000000,4.071264,4.110488,6.394300,4.032322,6.833964
0.64,1,0,0,0,0,0,0,0,0,0,-5.339722,-1.265487,5.340455,-0.079936,0.000000,4.074235,4.085918,6.348653,4.063349,6.829543
0.65,1,0,0,0,0,0,0,0,0,0,-5.460727,-1.378810,5.461750,0.853429,0.000000,4.081916,4.090302,6.193160,4.073507,6.812044
0.66,1,0,0,0,0,0,0,0,0,0,-5.472996,-1.377993,5.474230,1.408235,0.000000,4.095003,4.098137,5.952661,4.107547,6.788384
0.67,1,0,0,0,0,0,0,0,0,0,-5.421851,-1.330676,5.421421,1.380066,0.000000,4.091175,4.084047,5.829910,4.101499,6.819806
0.68,1,0,0,0,0,0,0,1,0,0,-5.450522,-1.356318,5.449969,1.370341,0.000000,4.094204,4.087640,5.707923,4.091330,6.803794
0.69,0,0,0,0,0,0,0,0,0,0,-5.533943,-5.533943,5.534812,1.448856,0.000000,0.000000,4.088726,5.706777,4.133037,6.822343
0.70,0,0,0,0,0,0,0,0,0,0,-5.485293,-5.485293,5.484203,1.221181,0.000000,0.000000,4.085209,5.736242,3.992646,6.814044
0.71,0,0,0,0,0,0,0,0,0,0,-5.466139,-5.466139,5.466514,0.766627,0.000000,0.000000,4.123587,5.718177,3.848756,6.847690
0.72,0,0,0,0,0,0,0,0,0,0,-5.469250,-5.469250,5.469629,-0.072293,0.000000,0.000000,4.135579,5.688608,3.859659,6.837625
0.73,0,0,0,0,0,0,0,0,0,0,-5.404134,-5.404134,5.405243,-1.065470,0.000000,0.000000,4.124155,5.664682,3.943676,6.847148
0.74,0,0,0,0,0,0,0,0,0,0,-5.283775,-5.283775,5.284428,-2.291573,0.000000,0.000000,4.134614,5.579512,3.983877,6.847652
0.75,0,0,0,0,0,0,0,0,0,0,-5.231865,-5.231865,5.231302,-3.415887,0.000000,0.000000,4.118613,5.542828,3.917189,6.856873
0.76,0,0,0,0,0,0,0,0,0,0,-5.096677,-5.096677,5.094751,-4.079309,0.000000,0.000000,4.132305,5.440889,4.121005,6.856711
0.77,0,1,0,0,1,0,0,0,0,0,7.187306,-5.034542,5.032898,-4.004877,12.221848,0.000000,4.144043,5.365372,4.013371,6.856541
0.78,0,1,0,0,0,0,0,0,0,0,7.029353,-5.118649,5.118390,-3.324376,12.148002,0.000000,4.165281,5.321371,3.940354,6.823996
0.79,0,1,0,0,0,0,0,0,0,0,7.045033,-5.120485,5.120494,-2.537155,12.165519,0.000000,4.166027,5.329966,3.948013,6.837126
0.80,0,1,0,0,0,0,0,0,0,0,7.042852,-5.105459,5.105632,-1.813300,12.148311,0.000000,4.165592,5.306591,3.641142,6.843072
0.81,0,1,0,0,0,1,0,0,0,0,6.990274,-5.149685,5.150145,-1.313689,12.139959,0.000000,4.152523,5.297513,3.649047,6.843531
0.82,0,1,0,0,0,0,0,0,0,0,6.952422,-5.159634,5.160031,-1.131210,12.112056,0.000000,4.178823,5.260983,3.639575,6.851325
0.83,0,1,0,1,0,0,0,0,0,0,6.990135,-5.132946,5.134014,-1.407985,12.123081,0.000000,4.167459,5.263223,3.683625,6.858776
0.84,0,1,0,0,0,0,0,0,0,0,7.026330,-5.078716,5.080451,-2.632836,12.105046,0.000000,4.109442,5.249118,3.721989,6.855945
0.85,0,1,0,0,0,0,0,0,0,0,7.163138,-4.950091,4.951351,-4.252420,12.113229,0.000000,3.929450,5.270905,3.736363,6.842658
0.86,0,1,0,0,0,0,0,0,0,0,7.398368,-4.731650,4.732169,-5.788579,12.130017,0.000000,3.668619,5.281846,3.758262,6.848728
0.87,0,1,0,0,0,0,0,0,0,0,7.487656,-4.629128,4.628927,-6.299304,12.116784,0.000000,3.624026,5.260939,3.858208,6.855334
0.88,0,1,0,0,0,0,0,0,0,0,7.471109,-4.653626,4.653145,-5.979217,12.124736,0.000000,3.673497,5.241147,3.807631,6.884034
0.89,0,1,0,0,0,0,0,0,0,0,7.522877,-4.626464,4.626499,-5.277072,12.149341,0.000000,3.606369,5.241040,3.667291,6.909182
0.90,0,1,0,0,0,0,0,0,0,0,7.567020,-4.605354,4.606111,-4.593592,12.172375,0.000000,3.534815,5.241513,3.677917,6.930277
0.91,0,1,0,0,0,0,0,0,0,0,7.643445,-4.593660,4.594096,-3.885525,12.237104,0.000000,3.470070,5.239973,3.696027,6.997753
0.92,0,1,0,0,0,0,0,0,0,0,7.625582,-4.608918,4.609451,-2.960070,12.234501,0.000000,3.468677,5.237078,3.740957,6.997865
0.93,0,1,0,0,0,0,0,0,0,0,7.649946,-4.642056,4.642750,-2.329781,12.292002,0.000000,3.487806,5.253095,3.695385,7.040411
0.94,0,1,0,0,0,0,0,0,0,1,7.555129,-4.679699,4.682471,-2.253483,12.234828,0.000000,3.560285,5.243837,3.695742,6.991309
0.95,0,0,0,0,0,0,0,0,0,0,-4.557772,-4.557772,4.558440,-2.857249,0.000000,0.000000,3.578144,5.251176,3.668724,6.919600
0.96,0,0,0,0,0,0,0,0,0,0,-4.454383,-4.454383,4.455362,-3.110258,0.000000,0.000000,3.638283,5.253718,3.720396,6.861008
0.97,0,0,0,0,0,0,0,0,0,0,-4.445740,-4.445740,4.444286,-2.518811,0.000000,0.000000,3.680915,5.229555,3.696380,6.710513
0.98,0,0,0,0,0,0,0,0,0,0,-4.573881,-4.573881,4.573807,-0.839703,0.000000,0.000000,3.697163,5.212555,3.665185,6.522769
0.99,0,0,0,0,0,0,0,0,0,0,-4.673986,-4.673986,4.673607,0.889845,0.000000,0.000000,3.734346,5.205495,3.679274,6.422394
1.00,0,0,0,0,0,0,0,0,0,0,-4.784935,-4.784935,4.785353,2.036639,0.000000,0.000000,3.842965,5.196987,3.660715,6.282160
1.01,0,0,0,0,0,0,0,0,0,0,-4.794955,-4.794955,4.794994,2.290962,0.000000,0.000000,3.935158,5.211049,3.667226,6.269176
1.02,0,0,1,0,0,0,0,0,0,0,-4.771006,-4.771006,4.770502,2.388516,0.000000,0.000000,3.981566,5.192970,3.692589,6.369499
1.03,1,0,0,0,0,0,0,0,0,0,-4.816418,-0.939339,4.815975,2.663691,0.000000,3.877079,4.043531,5.205969,3.715330,6.413055
1.04,1,0,0,0,0,0,0,0,1,0,-4.927673,-1.030995,4.928031,3.736092,0.000000,3.896679,4.080223,5.175573,3.714296,6.333897
1.05,1,0,0,0,0,0,0,0,0,0,-4.984294,-1.071313,4.982756,4.557182,0.000000,3.912980,4.089717,5.154940,3.732958,6.232913
1.06,1,0,0,0,0,0,0,0,0,0,-5.192031,-1.245000,5.193518,4.929356,0.000000,3.947031,4.112513,5.115849,3.738486,6.204973
1.07,1,0,0,0,0,0,1,0,0,0,-5.132684,-1.182535,5.132272,3.710221,0.000000,3.950149,4.118662,5.104001,3.782091,6.219927
1.08,1,0,0,0,0,0,0,0,0,0,-4.930824,-0.954122,4.927861,3.087343,0.000000,3.976702,4.118202,5.201990,3.835167,6.217017
1.09,1,0,0,0,0,0,0,0,0,0,-4.974946,-0.968554,4.972288,3.530045,0.000000,4.006391,4.132510,5.355429,3.906740,6.204531
1.10,1,0,0,0,0,0,0,0,0,0,-5.351347,-1.349998,5.352850,5.578599,0.000000,4.001349,4.148091,5.678267,3.859555,6.231279
1.11,1,0,0,0,0,0,0,0,0,0,-5.477643,-1.473108,5.477727,6.721868,0.000000,4.004535,4.161012,5.824741,3.851788,6.199320
1.12,1,0,0,0,0,0,0,0,0,0,-5.457552,-1.491901,5.456555,6.555387,0.000000,3.965651,4.170670,5.933464,3.760058,6.224901
1.13,1,0,0,0,0,0,0,1,0,0,-5.464255,-1.533940,5.465006,5.139645,0.000000,3.930315,4.179703,6.000262,3.693115,6.215894
1.14,0,0,0,0,0,0,0,0,0,0,-5.395022,-2.440611,5.394898,3.847110,0.000000,2.954411,4.156561,6.089867,3.679147,6.211206
1.15,0,0,0,0,0,0,0,0,0,0,-5.372557,-5.372557,5.371773,2.918769,0.000000,0.000000,4.136414,6.215746,3.697081,6.208136
1.16,0,0,0,0,0,0,0,0,0,0,-5.433998,-5.433998,5.435180,2.667553,0.000000,0.000000,4.151740,6.312349,3.605485,6.206465
1.17,0,0,0,0,0,0,0,0,0,0,-5.401075,-5.401075,5.399719,2.912878,0.000000,0.000000,4.169994,6.419975,3.683979,6.245416
1.18,0,0,0,0,0,0,0,0,0,0,-5.509933,-5.509933,5.508972,3.570746,0.000000,0.000000,4.172965,6.464649,3.797163,6.244777
1.19,0,0,0,0,0,0,0,0,0,0,-5.641000,-5.641000,5.641228,4.013083,0.000000,0.000000,4.184916,6.488532,3.857088,6.288499
1.20,0,0,0,0,0,0,0,0,0,0,-5.606631,-5.606631,5.604929,3.957060,0.000000,0.000000,4.182738,6.455745,3.889544,6.296578
1.21,0,0,0,0,0,0,0,0,0,0,-5.634580,-5.634580,5.634950,3.481365,0.000000,0.000000,4.198969,6.420567,3.894225,6.285305
1.22,0,0,0,0,0,0,0,0,0,0,-5.656238,-5.656238,5.657128,2.736804,0.000000,0.000000,4.209391,6.405168,3.936321,6.293266
1.23,0,1,0,0,1,0,0,0,0,0,6.979008,-5.611046,5.610987,1.959187,12.590055,0.000000,4.230486,6.325095,3.857039,6.264658
1.24,0,1,0,0,0,0,0,0,0,0,7.031018,-5.566911,5.566613,1.639634,12.597928,0.000000,4.222527,6.310790,3.873982,6.288401
1.25,0,1,0,0,0,0,0,0,0,0,6.980973,-5.601365,5.600795,1.816999,12.582337,0.000000,4.226117,6.311701,3.820321,6.269436
1.26,0,1,0,0,0,0,0,0,0,0,6.873407,-5.726900,5.727221,2.210300,12.600307,0.000000,4.214217,6.330868,3.830506,6.267970
1.27,0,1,0,1,0,1,0,0,0,0,6.891105,-5.719742,5.719806,2.027415,12.610847,0.000000,4.255475,6.346260,3.748146,6.264758
1.28,0,1,0,0,0,0,0,0,0,0,6.968745,-5.653906,5.653404,0.989901,12.622651,0.000000,4.206081,6.347876,3.734784,6.275219
1.29,0,1,0,0,0,0,0,0,0,0,6.977748,-5.623989,5.624237,-0.545936,12.601737,0.000000,4.240166,6.314605,3.778210,6.286274
1.30,0,1,0,0,0,0,0,0,0,0,7.144815,-5.449382,5.448525,-2.048804,12.594198,0.000000,4.259342,6.293672,3.835855,6.297665
1.31,0,1,0,0,0,0,0,0,0,0,7.273605,-5.369453,5.369034,-2.804396,12.643059,0.000000,4.416341,6.328093,3.848808,6.314738
1.32,0,1,0,0,0,0,0,0,0,0,7.213874,-5.389380,5.389071,-2.810682,12.603254,0.000000,4.543357,6.299019,3.918729,6.303362
1.33,0,1,0,0,0,0,0,0,0,0,7.276956,-5.379165,5.379451,-2.755506,12.656120,0.000000,4.578459,6.314378,3.846392,6.343669
1.34,0,1,0,0,0,0,0,0,0,1,7.258685,-5.382965,5.384187,-3.025711,12.641649,0.000000,4.559606,6.285813,3.855990,6.357857
1.35,0,0,0,0,0,0,0,0,0,0,-5.214378,-5.214378,5.214337,-3.640540,0.000000,0.000000,4.567729,6.243850,3.795292,6.344395
1.36,0,0,0,0,0,0,0,0,0,0,-5.166767,-5.166767,5.167208,-3.215208,0.000000,0.000000,4.525397,6.243880,3.742066,6.403545
1.37,0,0,0,0,0,0,0,0,0,0,-5.263270,-5.263270,5.263656,-2.038636,0.000000,0.000000,4.580324,6.254820,3.749207,6.646898
1.38,0,0,0,0,0,0,0,0,0,0,-5.400107,-5.400107,5.401929,-0.426385,0.000000,0.000000,4.671481,6.253994,3.773475,6.736818
1.39,0,0,0,0,0,0,0,0,0,0,-5.415240,-5.415240,5.414778,0.500846,0.000000,0.000000,4.690475,6.277449,3.760271,6.743042
1.40,0,0,0,0,0,0,0,0,0,0,-5.412083,-5.412083,5.412161,0.917102,0.000000,0.000000,4.678362,6.266051,3.778468,6.751718
1.41,0,0,0,0,0,0,0,0,0,0,-5.456792,-5.456792,5.456616,1.120955,0.000000,0.000000,4.695410,6.259377,3.779452,6.756733
1.42,0,0,0,0,0,0,0,0,0,0,-5.459331,-5.459331,5.458271,1.407670,0.000000,0.000000,4.693730,6.277453,3.833772,6.830680
1.43,0,0,0,0,0,0,0,0,0,0,-5.503551,-5.503551,5.503223,1.535534,0.000000,0.000000,4.694380,6.265284,3.808109,6.925884
1.44,0,0,1,0,0,0,0,0,0,0,-5.536850,-5.536850,5.536392,1.474347,0.000000,0.000000,4.626795,6.280374,3.814467,6.948807
1.45,1,0,0,0,0,0,0,0,1,0,-5.496387,-1.279967,5.496940,1.411184,0.000000,4.216420,4.613328,6.261396,3.832491,6.923456
1.46,1,0,0,0,0,0,0,0,0,0,-5.501606,-1.286276,5.500949,1.616573,0.000000,4.215329,4.620977,6.264292,3.799325,6.819531
1.47,1,0,0,0,0,0,0,0,0,0,-5.610060,-1.388824,5.610171,1.704115,0.000000,4.221237,4.643908,6.300080,3.783582,6.789374
1.48,1,0,0,0,0,0,1,0,0,0,-5.606233,-1.387788,5.605998,1.886383,0.000000,4.218446,4.672364,6.288593,3.763330,6.804091
1.49,1,0,0,0,0,0,0,0,0,0,-5.548008,-1.334303,5.547223,2.434445,0.000000,4.213705,4.647062,6.352583,3.775123,6.801760
1.50,1,0,0,0,0,0,0,0,0,0,-5.696151,-1.447296,5.694791,3.590234,0.000000,4.248856,4.683043,6.388588,3.818668,6.785416
1.51,1,0,0,0,0,0,0,0,0,0,-5.934005,-1.681059,5.934651,4.403920,0.000000,4.252945,4.654314,6.405900,3.851350,6.777403
1.52,1,0,0,0,0,0,0,0,0,0,-5.868830,-1.607447,5.868150,4.258573,0.000000,4.261383,4.650383,6.362140,3.877162,6.772174
1.53,1,0,0,0,0,0,0,0,0,0,-5.795727,-1.528576,5.794921,3.544888,0.000000,4.267151,4.656887,6.348204,3.877394,6.768963
1.54,1,0,0,0,0,0,0,0,0,0,-5.863695,-1.589344,5.863267,3.284200,0.000000,4.274351,4.654351,6.326988,3.893794,6.768736
1.55,1,0,0,0,0,0,0,1,0,0,-5.911498,-1.628444,5.911151,3.379353,0.000000,4.283053,4.670452,6.390002,3.898237,6.788013
1.56,0,0,0,0,0,0,0,0,0,0,-5.983994,-5.983994,5.984525,3.322667,0.000000,0.000000,4.672109,6.472254,3.926250,6.803660
1.57,0,0,0,0,0,0,0,0,0,0,-5.961275,-5.961275,5.961417,2.814551,0.000000,0.000000,4.649775,6.574622,3.884628,6.829840
1.58,0,0,0,0,0,0,0,0,0,0,-5.913558,-5.913558,5.913035,2.211720,0.000000,0.000000,4.633259,6.623450,3.854338,6.819886
1.59,0,0,0,0,0,0,0,0,0,0,-5.953741,-5.953741,5.954400,1.734862,0.000000,0.000000,4.650819,6.589969,4.014415,6.834787
1.60,0,0,0,0,0,0,0,0,0,0,-5.941825,-5.941825,5.942349,1.372259,0.000000,0.000000,4.646601,6.588107,4.077758,6.837319
1.61,0,0,0,0,0,0,0,0,0,0,-5.923515,-5.923515,5.923362,1.151292,0.000000,0.000000,4.628698,6.553187,4.111611,6.843304
1.62,0,1,0,0,1,0,0,0,0,0,7.399360,-5.936831,5.937145,1.218490,13.336191,0.000000,4.646086,6.498871,4.282715,6.835423
1.63,0,1,0,0,0,0,0,0,0,0,7.323015,-5.979787,5.980325,1.355389,13.302802,0.000000,4.666623,6.501140,4.276328,6.801166
1.64,0,1,0,0,0,0,0,0,0,0,7.297082,-6.025344,6.026461,1.365685,13.322426,0.000000,4.660411,6.518545,4.262482,6.804705
1.65,0,1,0,0,0,0,0,0,0,0,7.365520,-5.975590,5.975631,0.775850,13.341111,0.000000,4.681046,6.544178,4.128642,6.795838
1.66,0,1,0,0,0,0,0,0,0,0,7.422453,-5.925418,5.925284,0.094434,13.347871,0.000000,4.683810,6.534789,4.110753,6.810718
1.67,0,1,0,0,0,1,0,0,0,0,7.435008,-5.888014,5.887882,-0.333609,13.323022,0.000000,4.697062,6.510598,4.143055,6.810117
1.68,0,1,0,1,0,0,0,0,0,0,7.401381,-5.892066,5.892045,-0.393790,13.293447,0.000000,4.717535,6.484809,4.116050,6.805925
1.69,0,1,0,0,0,0,0,0,0,0,7.355277,-5.956319,5.957669,-1.074016,13.311596,0.000000,4.679603,6.489291,4.134728,6.823718
1.70,0,1,0,0,0,0,0,0,0,0,7.452404,-5.837119,5.838656,-2.622554,13.289522,0.000000,4.624833,6.477769,4.180606,6.813782
1.71,0,1,0,0,0,0,0,0,0,0,7.724058,-5.553040,5.552400,-4.467373,13.277098,0.000000,4.540210,6.480223,4.194864,6.796728
1.72,0,1,0,0,0,0,0,0,0,0,7.735994,-5.484648,5.485359,-5.371841,13.220641,0.000000,4.574410,6.446067,4.245283,6.771188
1.73,0,1,0,0,0,0,0,0,0,0,7.741851,-5.516940,5.517251,-5.099870,13.258792,0.000000,4.543056,6.462568,4.216213,6.796116
1.74,0,1,0,0,0,0,0,0,0,0,7.848866,-5.458354,5.457764,-4.418066,13.307220,0.000000,4.571132,6.467321,4.189046,6.838933
1.75,0,1,0,0,0,0,0,0,0,1,4.574102,-5.511337,5.512228,-3.799166,10.085440,0.000000,4.519574,6.475703,4.179764,6.903906
1.76,0,0,0,0,0,0,0,0,0,0,-5.462429,-5.462429,5.462988,-3.737526,0.000000,0.000000,4.451566,6.487610,4.146163,6.885614
1.77,0,0,0,0,0,0,0,0,0,0,-5.388868,-5.388868,5.388892,-3.519635,0.000000,0.000000,4.455641,6.467077,4.206983,6.977416
1.78,0,0,0,0,0,0,0,0,0,0,-5.366775,-5.366775,5.366322,-3.360870,0.000000,0.000000,4.461948,6.456416,4.196343,7.016004
1.79,0,0,0,0,0,0,0,0,0,0,-5.397702,-5.397702,5.398132,-2.662629,0.000000,0.000000,4.498753,6.458772,4.208650,6.983469
1.80,0,0,0,0,0,0,0,0,0,0,-5.392489,-5.392489,5.391917,-1.884807,0.000000,0.000000,4.585682,6.464421,4.197280,6.978790
1.81,0,0,0,0,0,0,0,0,0,0,-5.448143,-5.448143,5.448164,-0.832928,0.000000,0.000000,4.550957,6.489177,4.208089,6.986240
1.82,0,0,0,0,0,0,0,0,0,0,-5.497625,-5.497625,5.496755,-0.082041,0.000000,0.000000,4.610234,6.474239,4.212106,7.026968
1.83,0,0,1,0,0,0,0,0,0,0,-5.525334,-4.435953,5.525680,0.597794,0.000000,1.089382,4.617037,6.472801,4.247056,7.076352
1.84,1,0,0,0,0,0,0,0,0,0,-5.544951,-1.093242,5.544984,0.916683,0.000000,4.451710,4.661050,6.472355,4.245637,7.072248
1.85,1,0,0,0,0,0,0,0,0,0,-5.593728,-1.149135,5.594303,1.091160,0.000000,4.444593,4.643554,6.481099,4.245178,7.028467
1.86,1,0,0,0,0,0,0,0,1,0,-5.590128,-1.152081,5.589960,0.799161,0.000000,4.438048,4.649030,6.493470,4.226899,6.936061
1.87,1,0,0,0,0,0,1,0,0,0,-5.561655,-1.113579,5.563100,0.477862,0.000000,4.448075,4.699265,6.534183,4.206579,6.868334
1.88,1,0,0,0,0,0,0,0,0,0,-5.480970,-1.046393,5.480412,0.951102,0.000000,4.434577,4.681349,6.524002,4.186863,6.924728
1.89,1,0,0,0,0,0,0,0,0,0,-5.614171,-1.199303,5.613460,2.561819,0.000000,4.414868,4.653392,6.520641,4.179285,6.953538
1.90,1,0,0,0,0,0,0,0,0,0,-5.930148,-1.505187,5.932676,4.709907,0.000000,4.424961,4.663882,6.522613,4.212006,6.983219
1.91,1,0,0,0,0,0,0,0,0,0,-5.984844,-1.552503,5.984961,5.708055,0.000000,4.432341,4.670625,6.537458,4.193690,7.015685
1.92,1,0,0,0,0,0,0,0,0,0,-6.006376,-1.554634,6.006602,5.466655,0.000000,4.451742,4.669816,6.402496,4.232894,7.008612
1.93,1,0,0,0,0,0,0,0,0,0,-5.980883,-1.516450,5.980728,4.108404,0.000000,4.464433,4.658456,6.433660,4.274648,6.999086
1.94,1,0,0,0,0,0,0,1,0,0,-5.924293,-1.482289,5.924298,2.741269,0.000000,4.442004,4.652428,6.474026,4.221453,6.993380
1.95,0,0,0,0,0,0,0,0,0,0,-5.875448,-5.875448,5.874945,1.594453,0.000000,0.000000,4.694208,6.523554,4.198605,6.941887
1.96,0,0,0,0,0,0,0,0,0,0,-5.842393,-5.842393,5.841581,0.866245,0.000000,0.000000,4.709681,6.559732,4.069199,6.941137
1.97,0,0,0,0,0,0,0,0,0,0,-5.854871,-5.854871,5.855012,0.687409,0.000000,0.000000,4.702388,6.588142,3.976285,6.952229
1.98,0,0,0,0,0,0,0,0,0,0,-5.851172,-5.851172,5.850449,0.715034,0.000000,0.000000,4.670223,6.603693,4.276890,6.971674
1.99,0,0,0,0,0,0,0,0,0,0,-5.899209,-5.899209,5.900149,0.783898,0.000000,0.000000,4.669805,6.607152,4.391749,7.002914
2.00,0,0,0,0,0,0,0,0,0,0,-5.896390,-5.896390,5.896677,0.331090,0.000000,0.000000,4.669617,6.609824,4.278903,6.993495
2.01,0,0,0,0,0,0,0,0,0,0,-5.819203,-5.819203,5.819407,-0.179791,0.000000,0.000000,4.675520,6.603259,4.290434,7.037115
2.02,0,0,0,0,0,0,0,0,0,0,-5.774181,-5.774181,5.774368,-0.359286,0.000000,0.000000,4.671097,6.585439,4.236742,7.031462
2.03,0,0,0,0,0,0,0,0,0,0,-5.843660,-5.843660,5.844207,0.092686,0.000000,0.000000,4.692504,6.599846,4.207035,7.024978
2.04,0,0,0,0,0,0,0,0,0,0,-5.931530,-5.931530,5.933382,0.393107,0.000000,0.000000,4.698998,6.526737,4.180493,7.040328
2.05,0,0,0,0,1,0,0,0,0,0,-5.875305,-5.875305,5.875573,-0.253118,0.000000,0.000000,4.685447,6.453966,4.098767,7.000774
2.06,0,1,0,0,0,1,0,0,0,0,7.687973,-5.749893,5.749625,-1.202627,13.437866,0.000000,4.710631,6.428217,4.052797,7.011311
2.07,0,1,0,1,0,0,0,0,0,0,7.763454,-5.655530,5.654099,-1.665194,13.418984,0.000000,4.726639,6.405213,4.052936,7.014320
2.08,0,1,0,0,0,0,0,0,0,0,7.624531,-5.749016,5.748576,-1.544637,13.373547,0.000000,4.701247,6.414615,4.046739,6.958900
2.09,0,1,0,0,0,0,0,0,0,0,7.565600,-5.786127,5.786905,-1.882047,13.351727,0.000000,4.651165,6.428119,4.047990,6.922598
2.10,0,1,0,0,0,0,0,0,0,0,7.791158,-5.608739,5.608914,-2.898013,13.399898,0.000000,4.586950,6.465064,4.120027,6.933997
2.11,0,1,0,0,0,0,0,0,0,0,7.945146,-5.452734,5.451801,-3.792497,13.397881,0.000000,4.607742,6.450128,4.161810,6.947417
2.12,0,1,0,0,0,0,0,0,0,0,7.935402,-5.493399,5.493256,-4.055769,13.428801,0.000000,4.609162,6.449616,4.167232,6.979800
2.13,0,1,0,0,0,0,0,0,0,0,7.969180,-5.495898,5.496882,-4.112759,13.465078,0.000000,4.636567,6.461746,4.155145,7.004928
2.14,0,1,0,0,0,0,0,0,0,0,8.122959,-5.366003,5.365864,-4.621446,13.488962,0.000000,4.529337,6.474543,4.122305,7.015092
2.15,0,1,0,0,0,0,0,0,0,1,8.252296,-5.259296,5.259010,-4.873786,13.511593,0.000000,4.503503,6.442134,4.123087,7.070978
2.16,0,0,0,0,0,0,0,0,0,0,-5.218158,-5.218158,5.216620,-3.898084,0.000000,0.000000,4.499839,6.404816,4.111508,7.073749
2.17,0,0,0,0,0,0,0,0,0,0,-5.350047,-5.350047,5.349190,-1.731404,0.000000,0.000000,4.497261,6.384586,4.125478,7.115136
2.18,0,0,0,0,0,0,0,0,0,0,-5.575067,-5.575067,5.575265,0.259478,0.000000,0.000000,4.564559,6.380248,4.137146,7.011069
2.19,0,0,0,0,0,0,0,0,0,0,-5.602686,-5.602686,5.603179,1.024385,0.000000,0.000000,4.593593,6.394044,4.156759,6.973931
2.20,0,0,0,0,0,0,0,0,0,0,-5.498599,-5.498599,5.498134,0.763395,0.000000,0.000000,4.624498,6.388615,4.177559,6.988483
2.21,0,0,0,0,0,0,0,0,0,0,-5.497707,-5.497707,5.497572,0.689563,0.000000,0.000000,4.711046,6.409053,4.179785,6.993532
2.22,0,0,0,0,0,0,0,0,0,0,-5.563752,-5.563752,5.563949,1.257232,0.000000,0.000000,4.783715,6.440802,4.162602,7.085793
2.23,0,0,0,0,0,0,0,0,0,0,-5.654268,-5.654268,5.654279,2.376755,0.000000,0.000000,4.866564,6.408722,4.184925,7.019264
2.24,0,0,0,0,0,0,0,0,0,0,-5.732114,-5.732114,5.731721,3.314112,0.000000,0.000000,4.941536,6.417053,4.180992,6.952121
2.25,0,0,0,0,0,0,0,0,1,0,-5.805838,-5.805838,5.805836,4.472527,0.000000,0.000000,5.052971,6.380637,4.159316,6.991370
2.26,0,0,0,0,0,0,0,0,0,0,-5.887113,-5.887113,5.885618,5.589897,0.000000,0.000000,5.091879,6.349426,4.144144,6.956166
2.27,0,0,1,0,0,0,0,0,0,0,-6.111331,-6.111331,6.111529,6.158761,0.000000,0.000000,5.102872,6.362081,4.105804,7.019646
2.28,1,0,0,0,0,0,0,0,0,0,-6.148430,-1.541610,6.148289,5.124732,0.000000,4.606820,5.093033,6.375062,4.121485,7.043935
2.29,1,0,0,0,0,0,0,0,0,0,-5.929770,-1.359901,5.929028,3.004495,0.000000,4.569870,5.075058,6.387516,4.063850,7.051477
2.30,1,0,0,0,0,0,1,0,0,0,-5.793582,-1.210861,5.791543,1.346429,0.000000,4.582721,5.085340,6.399291,4.080892,7.074618
2.31,1,0,0,0,0,0,0,0,0,0,-5.849920,-1.253415,5.849375,1.494013,0.000000,4.596505,5.092611,6.416759,4.108593,7.071658
2.32,1,0,0,0,0,0,0,0,0,0,-6.005185,-1.422404,6.005143,3.129467,0.000000,4.582781,5.072666,6.526678,4.091862,7.081186
2.33,1,0,0,0,0,0,0,0,0,0,-6.192822,-1.619402,6.193173,4.731502,0.000000,4.573420,5.024676,6.666954,4.126010,7.100272
2.34,1,0,0,0,0,0,0,0,0,0,-6.293270,-1.724332,6.293906,5.165458,0.000000,4.568937,4.989681,6.689423,4.151648,7.072974
2.35,1,0,0,0,0,0,0,0,0,0,-6.239849,-1.671493,6.239534,4.484590,0.000000,4.568355,5.016912,6.749519,4.118540,7.093716
2.36,1,0,0,0,0,0,0,0,0,0,-6.187393,-1.615690,6.186621,3.563186,0.000000,4.571703,5.048317,6.819840,4.094335,7.081775
2.37,1,0,0,0,0,0,0,1,0,0,-6.215227,-1.628655,6.215257,3.333297,0.000000,4.586572,5.059545,6.879110,4.112579,7.073005
2.38,0,0,0,0,0,0,0,0,0,0,-6.296475,-6.296475,6.296399,3.697078,0.000000,0.000000,5.085931,6.944289,4.095577,7.068032
2.39,0,0,0,0,0,0,0,0,0,0,-6.389586,-6.389586,6.390031,3.901318,0.000000,0.000000,5.103689,6.981950,4.110334,7.077084
2.40,0,0,0,0,0,0,0,0,0,0,-6.420625,-6.420625,6.421300,3.365412,0.000000,0.000000,5.111743,6.984160,4.038475,7.085742
2.41,0,0,0,0,0,0,0,0,0,0,-6.311194,-6.311194,6.311566,2.182959,0.000000,0.000000,5.118978,6.975495,4.127967,7.081627
2.42,0,0,0,0,0,0,0,0,0,0,-6.271245,-6.271245,6.272031,1.098661,0.000000,0.000000,5.099144,6.969729,4.269683,7.071497
2.43,0,0,0,0,0,0,0,0,0,0,-6.245083,-6.245083,6.244509,0.501473,0.000000,0.000000,5.107003,6.990280,4.278254,7.088001
2.44,0,0,0,0,0,0,0,0,0,0,-6.263697,-6.263697,6.264482,0.363249,0.000000,0.000000,5.109999,6.942602,4.247357,7.101091
2.45,0,0,0,0,1,0,0,0,0,0,-6.276815,-6.276815,6.276212,0.610723,0.000000,0.000000,5.117427,6.927360,4.398955,7.104778
2.46,0,1,0,0,0,0,0,0,0,0,7.751407,-6.276541,6.276064,0.638426,14.027947,0.000000,5.127367,6.913229,4.444584,7.114087
2.47,0,1,0,0,0,0,0,0,0,0,7.647011,-6.335545,6.335976,0.762376,13.982556,0.000000,5.125596,6.877159,4.515946,7.105161
2.48,0,1,0,0,0,0,0,0,0,0,7.723923,-6.265251,6.264165,0.339959,13.989175,0.000000,5.142782,6.877123,4.595946,7.112817
2.49,0,1,0,0,0,0,0,0,0,0,7.688740,-6.277457,6.277568,0.123113,13.966197,0.000000,5.141665,6.841011,4.580669,7.125243
2.50,0,1,0,0,0,0,0,0,0,0,7.711230,-6.254081,6.253756,-0.401609,13.965311,0.000000,5.130215,6.844627,4.606940,7.121237
2.51,0,1,0,0,0,1,0,0,0,0,7.717667,-6.222530,6.222377,-0.715468,13.940197,0.000000,5.136125,6.847914,4.594312,7.091229
2.52,0,1,0,0,0,0,0,0,0,0,7.733034,-6.184301,6.183378,-1.569493,13.917336,0.000000,5.138138,6.822118,4.626918,7.093586
2.53,0,1,0,0,0,0,0,0,0,0,7.796888,-6.126596,6.126866,-2.008795,13.923484,0.000000,5.154158,6.816892,4.616384,7.106358
2.54,0,1,0,0,0,0,0,0,0,0,7.879995,-6.010331,6.009248,-2.127026,13.890326,0.000000,5.169396,6.816104,4.590528,7.073368
2.55,0,1,0,1,0,0,0,0,0,0,7.746430,-6.147567,6.148960,-1.574242,13.893997,0.000000,5.158492,6.807564,4.604591,7.085817
2.56,0,1,0,0,0,0,0,0,0,0,7.740070,-6.174849,6.175920,-1.863988,13.914919,0.000000,5.198924,6.810230,4.609316,7.104607
2.57,0,1,0,0,0,0,0,0,0,0,7.897875,-6.017800,6.018014,-2.673610,13.915674,0.000000,5.105189,6.829470,4.674697,7.084859
2.58,0,1,0,0,0,0,0,0,0,0,8.086913,-5.844042,5.843281,-3.952158,13.930955,0.000000,4.986626,6.824736,4.694414,7.105462
2.59,0,1,0,0,0,0,0,0,0,0,8.066900,-5.887397,5.889141,-4.543782,13.954296,0.000000,4.909837,6.840165,4.643730,7.113867
2.60,0,1,0,0,0,0,0,0,0,0,8.141873,-5.789334,5.790553,-5.270430,13.931206,0.000000,4.845031,6.828502,4.680752,7.099537
2.61,0,1,0,0,0,0,0,0,0,0,8.312739,-5.653180,5.653209,-5.746217,13.965919,0.000000,4.657731,6.821235,4.637391,7.144675
2.62,0,1,0,0,0,0,0,0,0,1,5.019464,-5.547705,5.547829,-5.922269,10.567169,0.000000,4.565282,6.807288,4.629681,7.206838
2.63,0,0,0,0,0,0,0,0,0,0,-5.579081,-5.579081,5.578807,-5.147460,0.000000,0.000000,4.441273,6.794808,4.644470,7.174815
2.64,0,0,0,0,0,0,0,0,0,0,-5.622935,-5.622935,5.623126,-4.225715,0.000000,0.000000,4.344322,6.784772,4.639076,7.157955
2.65,0,0,0,0,0,0,0,0,0,0,-5.579069,-5.579069,5.577952,-3.529929,0.000000,0.000000,4.261090,6.819962,4.647836,7.164302
2.66,0,0,1,0,0,0,0,0,0,0,-5.561479,-5.561479,5.559914,-3.398686,0.000000,0.000000,4.172362,6.848568,4.642298,7.055733
2.67,1,0,0,0,0,0,0,0,0,0,-5.545504,-1.149226,5.545961,-3.440714,0.000000,4.396277,4.182123,6.846133,4.650315,6.987317
2.68,1,0,0,0,0,0,0,0,0,0,-5.461671,-1.075807,5.461286,-3.543529,0.000000,4.385864,5.619738,6.864584,4.661217,6.944283
2.69,1,0,0,0,0,0,0,0,0,0,-5.443757,-1.104999,5.444155,-3.571750,0.000000,4.338758,4.063653,6.836376,4.659816,6.941475
2.70,1,0,0,0,0,0,0,0,1,0,-5.429682,-1.074039,5.430002,-3.506840,0.000000,4.355642,4.044710,6.834882,4.678226,7.010351
2.71,1,0,0,0,0,0,0,0,0,0,-5.361103,-0.997852,5.360134,-3.444585,0.000000,4.363251,4.035730,6.847226,4.711092,7.099692
2.72,1,0,0,0,0,0,0,0,0,0,-5.346412,-1.000228,5.345008,-3.362274,0.000000,4.346183,4.005033,6.823167,4.686765,7.026379
2.73,1,0,0,0,0,0,0,0,0,0,-5.346368,-1.003908,5.346972,-3.424412,0.000000,4.342459,4.008129,6.810610,4.674290,7.086192
2.74,1,0,0,0,0,0,1,0,0,0,-5.270956,-0.931032,5.270899,-3.446991,0.000000,4.339924,3.987382,6.806844,4.691619,6.980415
2.75,1,0,0,0,0,0,0,0,0,0,-5.217356,-0.882633,5.217536,-2.771180,0.000000,4.334723,3.972482,6.795140,4.700890,6.977893
2.76,1,0,0,0,0,0,0,0,0,0,-5.268995,-0.930446,5.267958,-1.059898,0.000000,4.338549,3.982175,6.786191,4.695332,6.982465
2.77,1,0,0,0,0,0,0,0,0,0,-5.508317,-1.159480,5.508542,0.985330,0.000000,4.348837,3.998609,6.571466,4.699411,6.991292
2.78,1,0,0,0,0,0,0,0,0,0,-5.617146,-1.263184,5.616514,1.900525,0.000000,4.353962,4.016453,6.286016,4.693185,6.997453
2.79,1,0,0,0,0,0,0,0,0,0,-5.526443,-1.173501,5.526923,1.625778,0.000000,4.352942,4.019471,6.040033,4.686779,6.968268
2.80,1,0,0,0,0,0,0,0,0,0,-5.445245,-1.097933,5.444403,0.759310,0.000000,4.347313,3.991926,5.915097,4.712728,6.920483
2.81,1,0,0,0,0,0,0,0,0,0,-5.494838,-1.159211,5.496515,0.429156,0.000000,4.335627,3.997436,5.791198,4.681293,6.918683
2.82,1,0,0,0,0,0,0,0,0,0,-5.484550,-1.157687,5.486200,0.371831,0.000000,4.326863,4.002097,5.817620,4.647388,6.926257
2.83,1,0,0,0,0,0,0,1,0,0,-5.510849,-1.173337,5.511326,0.341027,0.000000,4.337512,4.027163,5.796193,4.654733,6.932285
2.84,0,0,0,0,0,0,0,0,0,0,-5.489977,-5.489977,5.490515,-0.035935,0.000000,0.000000,4.035532,5.793124,4.634659,6.947830
2.85,0,0,0,0,0,0,0,0,0,0,-5.434397,-5.434397,5.434867,-0.619005,0.000000,0.000000,4.050368,5.748317,4.533851,6.944949
2.86,0,0,0,0,0,0,0,0,0,0,-5.406959,-5.406959,5.408141,-1.064660,0.000000,0.000000,4.038646,5.718325,4.304722,6.967217
2.87,0,0,0,0,1,0,0,0,0,0,-5.341391,-5.341391,5.340886,-1.136423,0.000000,0.000000,4.030654,5.723409,4.345042,6.975771
2.88,0,1,0,0,0,0,0,0,0,0,7.320387,-5.414997,5.416315,-0.813124,12.735385,0.000000,4.031803,5.741637,4.269707,6.993453
2.89,0,1,0,0,0,0,0,0,0,0,7.313441,-5.443005,5.444354,-0.350983,12.756446,0.000000,4.013393,5.749003,4.244103,7.008127
2.90,0,1,0,0,0,0,0,0,0,0,7.321603,-5.394694,5.395244,-0.078877,12.716297,0.000000,4.016814,5.724453,4.206105,6.992134
2.91,0,1,0,0,0,0,0,0,0,0,7.234295,-5.455488,5.455524,0.021640,12.689783,0.000000,4.013031,5.702968,4.140474,6.987086
2.92,0,1,0,0,0,0,0,0,0,0,7.223459,-5.446135,5.445988,-0.342511,12.669595,0.000000,4.034631,5.725630,3.927020,6.943904
2.93,0,1,0,0,0,1,0,0,0,0,7.299482,-5.353938,5.353215,-0.877149,12.653419,0.000000,4.060831,5.709045,3.794263,6.942405
2.94,0,1,0,1,0,0,0,0,0,0,7.329114,-5.343596,5.343738,-1.585724,12.672710,0.000000,4.078848,5.716424,3.582075,6.954420
2.95,0,1,0,0,0,0,0,0,0,0,7.365304,-5.286083,5.286575,-2.539492,12.651386,0.000000,4.010050,5.699668,3.597931,6.952396
2.96,0,1,0,0,0,0,0,0,0,0,7.411134,-5.199429,5.200290,-3.746287,12.610563,0.000000,3.918460,5.685126,3.676758,6.925779
2.97,0,1,0,0,0,0,0,0,0,0,7.626964,-5.030103,5.030115,-4.668482,12.657066,0.000000,3.752519,5.683486,3.754508,6.973435
2.98,0,1,0,0,0,0,0,0,0,0,7.693615,-4.932113,4.931329,-4.503631,12.625728,0.000000,3.751914,5.671213,3.739541,6.954148
2.99,0,1,0,0,0,0,0,0,0,0,7.546434,-5.085352,5.086101,-3.367362,12.631786,0.000000,3.882528,5.680553,3.749955,6.950893
3.00,0,1,0,0,0,0,0,0,0,0,7.547052,-5.127737,5.128268,-2.181820,12.674789,0.000000,3.921989,5.681990,3.810903,6.993163
3.01,0,1,0,0,0,0,0,0,0,0,7.566601,-5.090889,5.090863,-1.611916,12.657491,0.000000,3.938736,5.670233,3.716923,6.985859
3.02,0,1,0,0,0,0,0,0,0,0,7.583952,-5.110900,5.111780,-1.694925,12.694852,0.000000,3.965219,5.676233,3.755839,7.018584
3.03,0,1,0,0,0,0,0,0,0,0,7.681952,-5.051115,5.050774,-2.327839,12.733067,0.000000,3.983341,5.681004,3.739257,7.051085
3.04,0,1,0,0,0,0,0,0,0,0,7.825424,-4.940285,4.939342,-3.109151,12.765709,0.000000,4.017812,5.704896,3.739820,7.059757
3.05,0,1,0,0,0,0,0,0,0,0,7.914390,-4.866576,4.866073,-3.475926,12.780966,0.000000,4.087041,5.704748,3.731849,7.076925
3.06,0,1,0,0,0,0,0,0,0,1,7.902108,-4.864446,4.864595,-3.052829,12.766554,0.000000,4.091178,5.699850,3.722465,7.067852
3.07,0,0,0,0,0,0,0,0,0,0,-4.921767,-4.921767,4.921618,-2.029562,0.000000,0.000000,4.123194,5.708403,3.691656,7.023015
3.08,0,0,0,0,0,0,0,0,0,0,-4.966162,-4.966162,4.965791,-1.029592,0.000000,0.000000,4.145722,5.688664,3.705969,6.979112
3.09,0,0,0,0,0,0,0,0,0,0,-4.994537,-4.994537,4.995272,-0.295229,0.000000,0.000000,4.252108,5.688433,3.694057,6.896370
3.10,0,0,0,0,0,0,0,0,0,0,-5.019794,-5.019794,5.019629,0.139398,0.000000,0.000000,4.363446,5.687309,3.708903,6.750090
3.11,0,0,0,0,0,0,0,0,0,0,-5.010679,-5.010679,5.010167,0.785845,0.000000,0.000000,4.485254,5.683565,3.691457,6.659146
3.12,0,0,0,0,0,0,0,0,0,0,-5.068542,-5.068542,5.067719,1.859711,0.000000,0.000000,4.546597,5.679576,3.648727,6.647524
3.13,0,0,0,0,0,0,0,0,0,0,-5.232116,-5.232116,5.232490,3.237192,0.000000,0.000000,4.610852,5.687462,3.667075,6.700906
3.14,0,0,0,0,0,0,0,0,0,0,-5.336557,-5.336557,5.335878,4.417477,0.000000,0.000000,4.673106,5.631067,3.708063,6.745267
3.15,0,0,0,0,0,0,0,0,0,0,-5.386882,-5.386882,5.387159,6.422232,0.000000,0.000000,4.778744,5.648890,3.736070,6.740756
3.16,0,0,0,0,0,0,0,0,1,0,-5.584761,-5.584761,5.584796,7.875126,0.000000,0.000000,4.825948,5.636656,3.814510,6.693972
3.17,0,0,1,0,0,0,0,0,0,0,-6.018384,-4.948433,6.024666,8.839242,0.000000,1.069950,4.888209,5.625038,3.917503,6.578413
3.18,1,0,0,0,0,0,1,0,0,0,-5.750486,-1.396543,5.750343,7.213030,0.000000,4.353942,4.911062,5.600668,3.800317,6.559269
3.19,1,0,0,0,0,0,0,0,0,0,-5.636594,-1.305233,5.636370,5.853997,0.000000,4.331361,4.932971,5.615603,3.730456,6.571542
3.20,1,0,0,0,0,0,0,0,0,0,-5.723768,-1.361958,5.721977,5.107573,0.000000,4.361810,4.895827,5.704204,3.833935,6.586632
3.21,1,0,0,0,0,0,0,0,0,0,-5.867719,-1.479396,5.869110,5.968105,0.000000,4.388322,4.917956,6.112304,3.917153,6.575569
3.22,1,0,0,0,0,0,0,0,0,0,-6.032527,-1.662428,6.034884,6.164274,0.000000,4.370100,4.918338,6.419775,3.818967,6.575542
3.23,1,0,0,0,0,0,0,0,0,0,-5.959739,-1.621683,5.959551,5.467410,0.000000,4.338056,4.953460,6.458594,3.722351,6.579886
3.24,1,0,0,0,0,0,0,1,0,0,-5.910094,-1.587425,5.909081,4.546830,0.000000,4.322669,4.937660,6.549214,3.693081,6.594485
3.25,0,0,0,0,0,0,0,0,0,0,-5.974298,-5.974298,5.974099,3.750007,0.000000,0.000000,4.964058,6.578323,3.695648,6.574774
3.26,0,0,0,0,0,0,0,0,0,0,-6.011462,-6.011462,6.012285,3.092136,0.000000,0.000000,4.945078,6.559271,3.648150,6.605759
3.27,0,0,0,0,0,0,0,0,0,0,-5.912303,-5.912303,5.911829,2.203201,0.000000,0.000000,4.951028,6.580980,3.617767,6.611763
3.28,0,0,0,0,0,0,0,0,0,0,-5.914694,-5.914694,5.914706,1.675058,0.000000,0.000000,4.963613,6.616033,3.702503,6.628532
3.29,0,0,0,0,0,0,0,0,0,0,-5.914210,-5.914210,5.913524,1.491116,0.000000,0.000000,4.960089,6.551862,3.841022,6.636746
3.30,0,0,0,0,0,0,0,0,0,0,-5.962956,-5.962956,5.962371,1.637856,0.000000,0.000000,4.957596,6.542443,3.883696,6.643398
3.31,0,0,0,0,0,0,0,0,0,0,-6.006642,-6.006642,6.006653,1.321877,0.000000,0.000000,4.948288,6.503306,3.963708,6.653948
3.32,0,0,0,0,0,0,0,0,0,0,-5.954492,-5.954492,5.954720,0.659223,0.000000,0.000000,4.967255,6.472410,4.022925,6.662869
3.33,0,0,0,0,0,0,0,0,0,0,-5.853376,-5.853376,5.852693,-0.307355,0.000000,0.000000,4.998781,6.420880,4.198962,6.655741
3.34,0,0,0,0,0,0,0,0,0,0,-5.850134,-5.850134,5.850259,-0.806962,0.000000,0.000000,5.029768,6.373549,4.267809,6.612866
3.35,0,0,0,0,0,0,0,0,0,0,-5.821358,-5.821358,5.821168,-1.049565,0.000000,0.000000,5.023594,6.292250,4.254941,6.618832
3.36,0,0,0,0,0,0,0,0,0,0,-5.843868,-5.843868,5.845151,-1.020892,0.000000,0.000000,5.052341,6.211302,4.265242,6.591206
3.37,0,0,0,0,0,0,0,0,0,0,-5.831401,-5.831401,5.832105,-1.708242,0.000000,0.000000,5.062191,6.142869,4.319537,6.589010
3.38,0,0,0,0,0,0,0,0,0,0,-5.740278,-5.740278,5.742077,-2.239617,0.000000,0.000000,5.093336,5.988529,4.197047,6.607833
3.39,0,0,0,0,0,0,0,0,0,0,-5.572991,-5.572991,5.571898,-2.362531,0.000000,0.000000,5.062013,5.875404,4.187247,6.623164
3.40,0,1,0,0,1,0,0,0,0,0,-2.683114,-5.733630,5.734165,-1.714763,3.050516,0.000000,5.027083,5.796252,4.176354,6.601255
3.41,0,1,0,0,0,0,0,0,0,0,6.514445,-5.836189,5.837999,-1.293117,12.350634,0.000000,4.946487,5.715837,4.118279,6.634256
3.42,0,1,0,0,0,1,0,0,0,0,6.710867,-5.644599,5.644984,-1.457165,12.355467,0.000000,4.864095,5.746224,4.219167,6.608934
3.43,0,1,0,1,0,0,0,0,0,0,6.697026,-5.641712,5.641888,-1.924061,12.338737,0.000000,4.841742,5.728971,4.232304,6.609527
3.44,0,1,0,0,0,0,0,0,0,0,6.686492,-5.683597,5.684178,-3.011703,12.370089,0.000000,4.841909,5.738418,4.279425,6.632654
3.45,0,1,0,0,0,0,0,0,0,0,6.918674,-5.481803,5.482461,-4.934079,12.400477,0.000000,4.713827,5.757032,4.219862,6.644728
3.46,0,1,0,0,0,0,0,0,0,0,7.211402,-5.222819,5.223333,-6.872105,12.434222,0.000000,4.497542,5.773614,4.238450,6.661364
3.47,0,1,0,0,0,0,0,0,0,0,7.449413,-5.035810,5.034118,-7.372539,12.485222,0.000000,4.314380,5.755029,4.282369,6.731247
3.48,0,1,0,0,0,0,0,0,0,0,7.376543,-5.166278,5.165832,-5.753044,12.542821,0.000000,4.262400,5.758162,4.304195,6.786451
3.49,0,1,0,0,0,0,0,0,0,0,7.266333,-5.303241,5.303078,-4.040392,12.569574,0.000000,4.135435,5.766787,4.261732,6.801066
3.50,0,1,0,0,0,0,0,0,0,0,7.279852,-5.319557,5.320321,-3.312506,12.599409,0.000000,4.061982,5.768959,4.269619,6.831670
3.51,0,1,0,0,0,0,0,0,0,0,7.408639,-5.148183,5.147939,-3.977713,12.556822,0.000000,3.961401,5.768859,4.292863,6.790051
3.52,0,1,0,0,0,0,0,0,0,0,7.358192,-5.036273,5.035323,-4.419868,12.394465,0.000000,3.866951,5.749257,4.291752,6.644733
3.53,0,1,0,0,0,0,0,0,0,1,7.325290,-5.044431,5.043863,-4.239770,12.369721,0.000000,3.833199,5.747087,4.295113,6.622446
3.54,0,0,0,0,0,0,0,0,0,0,-5.079517,-5.079517,5.079353,-3.568171,0.000000,0.000000,3.825043,5.734591,4.303814,6.692029
3.55,0,0,0,0,0,0,0,0,0,0,-5.076816,-5.076816,5.077087,-3.218598,0.000000,0.000000,3.794895,5.716207,4.270309,6.879473
3.56,0,0,0,0,0,0,0,0,0,0,-5.014727,-5.014727,5.014887,-3.361288,0.000000,0.000000,3.794989,5.722814,4.282413,6.937083
3.57,0,0,0,0,0,0,0,0,0,0,-4.941274,-4.941274,4.941224,-3.659385,0.000000,0.000000,3.804549,5.723996,4.294725,6.832860
3.58,0,0,0,0,0,0,0,0,0,0,-4.904238,-4.904238,4.904607,-3.712930,0.000000,0.000000,3.772865,5.730732,4.322608,6.749407
3.59,0,0,0,0,0,0,0,0,0,0,-4.885197,-4.885197,4.885127,-3.307847,0.000000,0.000000,3.803347,5.717479,4.316586,6.744199
3.60,0,0,0,0,0,0,0,0,0,0,-4.905387,-4.905387,4.905629,-2.639384,0.000000,0.000000,3.836027,5.733946,4.320164,6.716209
3.61,0,0,0,0,0,0,0,0,0,0,-4.922538,-4.922538,4.922654,-1.893339,0.000000,0.000000,3.876045,5.734744,4.317338,6.756917
3.62,0,0,0,0,0,0,0,0,0,0,-4.926767,-4.926767,4.926057,-1.211448,0.000000,0.000000,3.917772,5.737343,4.349407,6.749143
3.63,0,0,1,0,0,0,0,0,0,0,-4.960346,-4.960346,4.959889,-0.598905,0.000000,0.000000,3.953818,5.723168,4.346834,6.713070
3.64,1,0,0,0,0,0,0,0,0,0,-5.001807,-0.827081,5.002029,-0.394906,0.000000,4.174726,3.978564,5.712512,4.376881,6.709948
3.65,1,0,0,0,0,0,0,0,0,0,-4.997274,-0.821786,4.997637,-0.488746,0.000000,4.175488,4.007749,5.721370,4.327828,6.729442
3.66,1,0,0,0,0,0,0,0,0,0,-4.891843,-0.702723,4.890997,-0.475393,0.000000,4.189120,3.996332,5.720787,4.382561,6.759043
3.67,1,0,0,0,0,0,0,0,0,0,-4.929479,-0.739011,4.928312,0.176442,0.000000,4.190468,4.021407,5.741755,4.364562,6.684025
3.68,1,0,0,0,0,0,0,0,1,0,-5.099963,-0.927862,5.099635,0.777783,0.000000,4.172100,4.022912,5.724700,4.309827,6.595703
3.69,1,0,0,0,0,0,1,0,0,0,-5.089842,-0.919866,5.090377,0.474304,0.000000,4.169976,4.046015,5.703414,4.294792,6.500399
3.70,1,0,0,0,0,0,0,0,0,0,-4.910489,-0.739396,4.909034,0.380825,0.000000,4.171092,4.079680,5.701500,4.283286,6.384530
3.71,1,0,0,0,0,0,0,0,0,0,-4.901230,-0.748188,4.898682,1.725815,0.000000,4.153042,4.049396,5.764317,4.256716,6.416203
3.72,1,0,0,0,0,0,0,0,0,0,-5.339940,-1.183092,5.341024,4.892909,0.000000,4.156847,4.051885,5.903654,4.261746,6.410351
3.73,1,0,0,0,0,0,0,0,0,0,-5.603064,-1.435638,5.603571,7.250678,0.000000,4.167426,4.083398,5.988771,4.253345,6.428126
3.74,1,0,0,0,0,0,0,0,0,0,-5.608566,-1.451686,5.608050,7.838171,0.000000,4.156880,4.089346,6.097895,4.222959,6.416464
3.75,1,0,0,0,0,0,0,0,0,0,-5.582868,-1.428574,5.582962,6.948255,0.000000,4.154294,4.082982,6.104930,4.215284,6.421223
3.76,1,0,0,0,0,0,0,0,0,0,-5.628012,-1.461023,5.628664,5.931000,0.000000,4.166989,4.084890,6.118067,4.254897,6.439522
3.77,1,0,0,0,0,0,0,1,0,0,-5.680749,-1.520954,5.681298,5.032180,0.000000,4.159795,4.093105,6.265337,4.221892,6.419718
3.78,0,0,0,0,0,0,0,0,0,0,-5.602535,-5.602535,5.601835,4.074997,0.000000,0.000000,4.118563,6.405685,4.154446,6.458425
3.79,0,0,0,0,0,0,0,0,0,0,-5.596766,-5.596766,5.596397,3.599031,0.000000,0.000000,4.134729,6.410588,4.056436,6.419365
3.80,0,0,0,0,0,0,0,0,0,0,-5.676957,-5.676957,5.676780,3.497487,0.000000,0.000000,4.132146,6.440638,4.103089,6.416040
3.81,0,0,0,0,0,0,0,0,0,0,-5.735850,-5.735850,5.736229,3.711993,0.000000,0.000000,4.134468,6.342588,4.153562,6.403695
3.82,0,0,0,0,0,0,0,0,0,0,-5.756239,-5.756239,5.756403,3.814982,0.000000,0.000000,4.170445,6.307151,4.146371,6.426999
3.83,0,0,0,0,1,0,0,0,0,0,-5.793576,-5.793576,5.794609,3.841125,0.000000,0.000000,4.147087,6.301579,4.099299,6.438610
3.84,0,1,0,0,0,0,0,0,0,0,6.899592,-5.860068,5.860893,3.590707,12.759660,0.000000,4.131080,6.304247,4.203004,6.456597
3.85,0,1,0,0,0,0,0,0,0,0,6.925257,-5.852815,5.852931,2.799719,12.778071,0.000000,4.161292,6.285866,4.157810,6.493170
3.86,0,1,0,0,0,0,0,0,0,0,6.987882,-5.765378,5.764928,1.691191,12.753261,0.000000,4.148501,6.288312,4.092788,6.464946
3.87,0,1,0,0,0,0,0,0,0,0,7.025297,-5.727163,5.726976,1.288362,12.752460,0.000000,4.146821,6.286834,3.975058,6.465951
3.88,0,1,0,1,0,1,0,0,0,0,7.029293,-5.754622,5.754173,1.341711,12.783916,0.000000,4.155250,6.314860,3.805088,6.470275
3.89,0,1,0,0,0,0,0,0,0,0,6.830168,-5.917370,5.918214,0.952884,12.747539,0.000000,4.125725,6.322984,3.833682,6.425529
3.90,0,1,0,0,0,0,0,0,0,0,6.980265,-5.766521,5.767124,-0.985625,12.746786,0.000000,4.201728,6.315149,3.865885,6.433465
3.91,0,1,0,0,0,0,0,0,0,0,7.296852,-5.453282,5.451842,-3.454996,12.750134,0.000000,4.296681,6.310159,3.928323,6.440902
3.92,0,1,0,0,0,0,0,0,0,0,7.408435,-5.340798,5.340066,-4.639156,12.749232,0.000000,4.490446,6.308427,3.959704,6.441104
3.93,0,1,0,0,0,0,0,0,0,0,7.390156,-5.354229,5.352792,-4.057978,12.744385,0.000000,4.493330,6.299470,3.995618,6.444777
3.94,0,1,0,0,0,0,0,0,0,0,7.242186,-5.511030,5.511433,-2.646897,12.753216,0.000000,4.523307,6.298668,4.003208,6.455360
3.95,0,1,0,0,0,0,0,0,0,0,7.250502,-5.503534,5.504283,-2.141388,12.754037,0.000000,4.517408,6.286143,3.938052,6.466791
3.96,0,1,0,0,0,0,0,0,0,0,7.305819,-5.435713,5.437025,-2.323500,12.741532,0.000000,4.506690,6.272361,3.922141,6.467321
3.97,0,1,0,0,0,0,0,0,0,0,7.404244,-5.338843,5.338599,-3.041401,12.743087,0.000000,4.493587,6.257431,3.914020,6.486015
3.98,0,1,0,0,0,0,0,0,0,1,4.299226,-5.331693,5.333385,-3.202198,9.630919,0.000000,4.449107,6.254030,3.870624,6.519716
3.99,0,0,0,0,0,0,0,0,0,0,-5.271677,-5.271677,5.271407,-2.860188,0.000000,0.000000,4.463723,6.273266,3.891938,6.483348
4.00,0,0,0,0,0,0,0,0,0,0,-5.308321,-5.308321,5.308219,-1.882263,0.000000,0.000000,4.411014,6.287510,3.834199,6.612309
4.01,0,0,0,0,0,0,0,0,0,0,-5.400102,-5.400102,5.400247,-0.892978,0.000000,0.000000,4.387999,6.283774,3.830300,6.798006
4.02,0,0,0,0,0,0,0,0,0,0,-5.410507,-5.410507,5.410035,-0.161631,0.000000,0.000000,4.393780,6.290614,3.809997,6.816153
4.03,0,0,0,0,0,0,0,0,0,0,-5.423301,-5.423301,5.424039,0.290355,0.000000,0.000000,4.394215,6.269059,3.831304,6.773827
4.04,0,0,0,0,0,0,0,0,0,0,-5.445467,-5.445467,5.446127,0.795239,0.000000,0.000000,4.422468,6.255828,3.848751,6.787655
4.05,0,0,0,0,0,0,0,0,0,0,-5.505088,-5.505088,5.504641,1.648126,0.000000,0.000000,4.444591,6.261358,3.828073,6.919393
4.06,0,0,0,0,0,0,0,0,0,0,-5.573580,-5.573580,5.572599,2.627789,0.000000,0.000000,4.505551,6.277335,3.839148,6.994395
4.07,0,0,0,0,0,0,0,0,0,0,-5.671166,-5.671166,5.671535,3.546862,0.000000,0.000000,4.621100,6.258273,3.829466,6.968336
4.08,0,0,1,0,0,0,0,0,1,0,-5.767889,-5.767889,5.768572,4.152262,0.000000,0.000000,4.712116,6.242139,3.832694,6.939250
4.09,1,0,0,0,0,0,0,0,0,0,-5.784905,-1.527906,5.785089,4.160607,0.000000,4.256999,4.681754,6.285435,3.837596,6.841801
4.10,1,0,0,0,0,0,1,0,0,0,-5.838149,-1.583164,5.838991,3.775236,0.000000,4.254985,4.673356,6.259710,3.835356,6.838951
4.11,1,0,0,0,0,0,0,0,0,0,-5.793134,-1.519072,5.793210,3.281278,0.000000,4.274063,4.661142,6.293385,3.889094,6.870537
4.12,1,0,0,0,0,0,0,0,0,0,-5.794344,-1.489945,5.794650,3.491353,0.000000,4.304399,4.690564,6.399788,3.919855,6.896040
4.13,1,0,0,0,0,0,0,0,0,0,-5.916083,-1.601718,5.916050,4.211575,0.000000,4.314365,4.720975,6.536701,3.914699,6.938429
4.14,1,0,0,0,0,0,0,0,0,0,-6.086226,-1.790323,6.088093,5.061582,0.000000,4.295903,4.691615,6.497217,3.899679,6.918397
4.15,1,0,0,0,0,0,0,1,0,0,-6.101911,-1.810444,6.101507,4.745597,0.000000,4.291467,4.706519,6.515144,3.870408,6.896750
4.16,0,0,0,0,0,0,0,0,0,0,-6.085738,-6.085738,6.086547,3.351417,0.000000,0.000000,4.705781,6.472706,3.936302,6.873468
4.17,0,0,0,0,0,0,0,0,0,0,-5.919744,-5.919744,5.919521,1.780750,0.000000,0.000000,4.713528,6.529570,3.860636,6.888022
4.18,0,0,0,0,0,0,0,0,0,0,-5.851310,-5.851310,5.850385,1.431485,0.000000,0.000000,4.730499,6.579078,3.893624,6.894575
4.19,0,0,0,0,0,0,0,0,0,0,-6.034914,-6.034914,6.035237,2.349333,0.000000,0.000000,4.692240,6.612300,4.037613,6.892436
4.20,0,0,0,0,0,0,0,0,0,0,-6.184332,-6.184332,6.185153,3.143772,0.000000,0.000000,4.707749,6.630150,4.232931,6.912398
4.21,0,0,0,0,0,0,0,0,0,0,-6.177973,-6.177973,6.179183,2.670189,0.000000,0.000000,4.715786,6.627400,4.315375,6.949235
4.22,0,0,0,0,0,0,0,0,0,0,-6.047164,-6.047164,6.048314,1.023744,0.000000,0.000000,4.718587,6.591785,4.567432,6.984971
4.23,0,0,0,0,0,0,0,0,0,0,-5.903208,-5.903208,5.902804,-0.324148,0.000000,0.000000,4.700847,6.551055,4.464132,6.977766
4.24,0,0,0,0,0,1,0,0,0,0,-5.927053,-5.927053,5.927708,-0.502985,0.000000,0.000000,4.700406,6.499336,4.524620,6.991758
4.25,0,0,0,0,0,0,0,0,0,0,-5.993667,-5.993667,5.993432,0.145543,0.000000,0.000000,4.716819,6.396242,4.323506,7.002853
4.26,0,0,0,0,1,0,0,0,0,0,-2.799244,-6.049918,6.048934,0.708960,3.250674,0.000000,4.717234,6.260591,4.345520,6.957367
4.27,0,1,0,0,0,0,0,0,0,0,7.110814,-6.046366,6.046913,0.548899,13.157180,0.000000,4.722648,6.212257,4.310034,6.944665
4.28,0,1,0,0,0,0,0,0,0,0,7.168989,-6.002189,6.002546,-0.014981,13.171178,0.000000,4.719877,6.186328,4.181964,6.984820
4.29,0,1,0,0,0,0,0,0,0,0,7.209186,-5.926952,5.926388,-0.342840,13.136138,0.000000,4.730058,6.184683,4.150858,6.951565
4.30,0,1,0,1,0,0,0,0,0,0,7.169212,-5.964954,5.965046,-0.163809,13.134166,0.000000,4.724002,6.186193,4.171436,6.949353
4.31,0,1,0,0,0,0,0,0,0,0,7.081418,-6.062263,6.063934,-0.660178,13.143682,0.000000,4.702425,6.197178,4.172701,6.947092
4.32,0,1,0,0,0,0,0,0,0,0,7.227737,-5.958647,5.960291,-2.610817,13.186384,0.000000,4.674763,6.232736,4.131946,6.955704
4.33,0,1,0,0,0,0,0,0,0,0,7.557085,-5.605825,5.605430,-5.397605,13.162910,0.000000,4.607298,6.232264,4.184076,6.929414
4.34,0,1,0,0,0,0,0,0,0,0,7.822714,-5.355215,5.353703,-6.749766,13.177930,0.000000,4.609357,6.230674,4.265774,6.947128
4.35,0,1,0,0,0,0,0,0,0,0,7.755577,-5.453861,5.453116,-5.824047,13.209437,0.000000,4.575733,6.252075,4.268977,6.958149
4.36,0,1,0,0,0,0,0,0,0,0,7.616374,-5.613006,5.612691,-3.929703,13.229380,0.000000,4.478453,6.278885,4.265428,6.950783
4.37,0,1,0,0,0,0,0,0,0,0,7.649965,-5.632654,5.632862,-3.026054,13.282619,0.000000,4.344989,6.283888,4.272823,7.001108
4.38,0,1,0,0,0,0,0,0,0,0,7.789891,-5.521700,5.521675,-3.478725,13.311591,0.000000,4.283103,6.250721,4.242734,7.062318
4.39,0,1,0,0,0,0,0,0,0,0,7.942264,-5.402849,5.402369,-4.414690,13.345113,0.000000,4.187880,6.254337,4.243434,7.090677
4.40,0,1,0,0,0,0,0,0,0,0,7.993902,-5.330205,5.329794,-4.852044,13.324107,0.000000,4.120410,6.208036,4.217903,7.115268
4.41,0,1,0,0,0,0,0,0,0,0,8.088056,-5.297612,5.298142,-4.598842,13.385668,0.000000,4.056858,6.206841,4.237053,7.180033
4.42,0,1,0,0,0,0,0,0,0,0,8.053144,-5.312881,5.313573,-4.144584,13.366024,0.000000,4.024045,6.208070,4.271774,7.159514
4.43,0,1,0,0,0,0,0,0,0,1,8.012823,-5.301376,5.301766,-3.743472,13.314199,0.000000,4.010915,6.177986,4.272879,7.136075
4.44,0,0,0,0,0,0,0,0,0,0,4.804267,-5.215845,5.215327,-3.770265,10.020111,0.000000,4.008808,6.175235,4.274164,7.112909
4.45,0,0,0,0,0,0,0,0,0,0,-5.244208,-5.244208,5.245036,-3.897224,0.000000,0.000000,3.998924,6.189376,4.257381,7.173387
4.46,0,0,0,0,0,0,0,0,0,0,-5.137211,-5.137211,5.137086,-4.167622,0.000000,0.000000,3.956559,6.197084,4.238099,7.048120
4.47,0,0,0,0,0,0,0,0,0,0,-5.047431,-5.047431,5.046268,-4.026154,0.000000,0.000000,3.946068,6.217627,4.242325,7.016976
4.48,0,0,0,0,0,0,0,0,0,0,-5.088804,-5.088804,5.087753,-3.152212,0.000000,0.000000,3.934552,6.199381,4.254934,6.943905
4.49,0,0,1,0,0,0,0,0,0,0,-5.131880,-5.131880,5.131201,-1.808838,0.000000,0.000000,3.947110,6.220992,4.260468,6.868935
4.50,1,0,0,0,0,0,0,0,0,0,-5.257145,-1.146627,5.256924,-0.653785,0.000000,4.110518,3.969981,6.228772,4.250489,6.867545
4.51,1,0,0,0,0,0,0,0,0,0,-5.277126,-1.147695,5.277706,-0.748950,0.000000,4.129431,3.975340,6.228535,4.281928,6.890182
4.52,1,0,0,0,0,0,0,0,0,0,-5.118586,-0.966347,5.117343,-1.598310,0.000000,4.152239,4.003344,6.243397,4.306185,6.955802
4.53,1,0,0,0,0,0,0,0,0,0,-5.021639,-0.865321,5.021070,-2.452181,0.000000,4.156318,4.029474,6.234755,4.308066,6.900927
4.54,1,0,0,0,0,0,0,0,1,0,-5.045584,-0.881722,5.045699,-2.950915,0.000000,4.163862,4.038697,6.224024,4.297506,6.772291
4.55,1,0,0,0,0,0,1,0,0,0,-5.024051,-0.855987,5.024687,-2.609812,0.000000,4.168064,4.035032,6.243256,4.300946,6.576663
4.56,1,0,0,0,0,0,0,0,0,0,-4.913074,-0.743773,4.911717,-1.177662,0.000000,4.169301,4.076782,6.223578,4.279351,6.519919
4.57,1,0,0,0,0,0,0,0,0,0,-5.162419,-1.016371,5.162613,1.852084,0.000000,4.146049,3.985461,6.208168,4.295592,6.522323
4.58,1,0,0,0,0,0,0,0,0,0,-5.531494,-1.375239,5.533361,4.814648,0.000000,4.156255,4.037582,6.180040,4.277541,6.542763
4.59,1,0,0,0,0,0,0,0,0,0,-5.634351,-1.472738,5.634322,6.054125,0.000000,4.161613,4.086940,6.126042,4.239726,6.552654
4.60,1,0,0,0,0,0,0,0,0,0,-5.580621,-1.428780,5.580879,5.203691,0.000000,4.151840,4.088918,6.109149,4.227676,6.535868
4.61,1,0,0,0,0,0,0,0,0,0,-5.464860,-1.314512,5.464064,3.778616,0.000000,4.150348,4.074104,6.107344,4.225727,6.533214
4.62,1,0,0,0,0,0,0,0,0,0,-5.480474,-1.303968,5.479521,3.078891,0.000000,4.176505,4.092700,6.153861,4.258827,6.546193
4.63,1,0,0,0,0,0,0,1,0,0,-5.566647,-1.390698,5.566994,3.106055,0.000000,4.175948,4.083912,6.208647,4.261769,6.547095
4.64,0,0,0,0,0,0,0,0,0,0,-5.584508,-5.584508,5.584009,3.244133,0.000000,0.000000,4.101659,6.265284,4.282587,6.538915
4.65,0,0,0,0,0,0,0,0,0,0,-5.630812,-5.630812,5.630887,3.426706,0.000000,0.000000,4.115847,6.250498,4.117649,6.534449
4.66,0,0,0,0,0,0,0,0,0,0,-5.667853,-5.667853,5.668228,3.360351,0.000000,0.000000,4.107917,6.193430,4.043159,6.524624
4.67,0,0,0,0,0,0,0,0,0,0,-5.719561,-5.719561,5.720440,3.009807,0.000000,0.000000,4.131341,6.107511,4.227448,6.531617
4.68,0,0,0,0,0,0,0,0,0,0,-5.684719,-5.684719,5.684968,2.024584,0.000000,0.000000,4.123931,6.054995,4.193923,6.555940
4.69,0,0,0,0,1,0,0,0,0,0,-5.581918,-5.581918,5.581478,1.049720,0.000000,0.000000,4.134082,6.054869,4.175233,6.597255
4.70,0,1,0,0,0,0,0,0,0,0,7.080402,-5.554835,5.554621,0.565526,12.635238,0.000000,4.116830,6.008227,4.084413,6.626160
4.71,0,1,0,0,0,0,0,0,0,0,6.970195,-5.631980,5.632921,0.523347,12.602175,0.000000,4.110461,5.967873,4.002554,6.634643
4.72,0,1,0,0,0,0,0,0,0,0,6.951355,-5.646728,5.647994,0.436597,12.598083,0.000000,4.102106,6.008483,3.854822,6.589839
4.73,0,1,0,1,0,1,0,0,0,0,7.051758,-5.547222,5.546628,0.011975,12.598981,0.000000,4.130333,6.010747,3.771004,6.588260
4.74,0,1,0,0,0,0,0,0,0,0,7.024260,-5.575392,5.577184,-0.592770,12.599652,0.000000,4.112526,6.008744,3.742616,6.591037
4.75,0,1,0,0,0,0,0,0,0,0,7.012459,-5.577254,5.579022,-1.649287,12.589713,0.000000,4.142311,6.017909,3.766124,6.571293
4.76,0,1,0,0,0,0,0,0,0,0,7.237785,-5.368603,5.368393,-2.974978,12.606387,0.000000,4.194803,6.023011,3.817415,6.582479
4.77,0,1,0,0,0,0,0,0,0,0,7.382009,-5.238334,5.237506,-4.067048,12.620343,0.000000,4.309984,6.048870,3.840309,6.571323
4.78,0,1,0,0,0,0,0,0,0,0,7.412907,-5.229263,5.228813,-4.045240,12.642170,0.000000,4.282980,6.069895,3.867585,6.572486
4.79,0,1,0,0,0,0,0,0,0,0,7.434700,-5.230731,5.229592,-3.095424,12.665432,0.000000,4.236497,6.074952,3.904739,6.589988
4.80,0,1,0,0,0,0,0,0,0,0,7.329654,-5.331828,5.331258,-2.115480,12.661482,0.000000,4.198054,6.076138,3.907064,6.584839
4.81,0,1,0,0,0,0,0,0,0,0,7.309649,-5.357944,5.359077,-2.342548,12.667593,0.000000,4.140510,6.059479,3.924694,6.608423
4.82,0,1,0,0,0,0,0,0,0,0,7.459074,-5.185670,5.185315,-3.472890,12.644745,0.000000,4.057617,6.032949,3.904690,6.612103
4.83,0,1,0,0,0,0,0,0,0,0,7.632604,-4.987835,4.987109,-4.678050,12.620439,0.000000,4.003138,6.015842,3.871705,6.604574
4.84,0,1,0,0,0,0,0,0,0,0,7.634734,-4.986578,4.986310,-4.624003,12.621311,0.000000,3.973859,6.003121,3.842031,6.617623
4.85,0,1,0,0,0,0,0,0,0,1,7.622933,-5.016623,5.015800,-4.029168,12.639556,0.000000,3.960524,6.007924,3.843089,6.631206
4.86,0,0,0,0,0,0,0,0,0,0,-5.070444,-5.070444,5.070783,-3.216565,0.000000,0.000000,3.962079,6.041098,3.832273,6.671993
4.87,0,0,0,0,0,0,0,0,0,0,-4.957452,-4.957452,4.956143,-2.940791,0.000000,0.000000,3.963337,6.033140,3.823664,6.589623
4.88,0,0,0,0,0,0,0,0,0,0,-4.979430,-4.979430,4.978503,-2.369302,0.000000,0.000000,3.990590,6.023819,3.827097,6.692719
4.89,0,0,1,0,0,0,0,0,0,0,-5.046503,-5.046503,5.047037,-1.945051,0.000000,0.000000,4.040156,6.020621,3.800594,6.837012
4.90,1,0,0,0,0,0,0,0,0,0,-5.009619,-1.043440,5.009397,-1.504363,0.000000,3.966179,4.127044,6.021232,3.811292,6.822071
4.91,1,0,0,0,0,0,0,0,0,0,-4.984755,-1.014033,4.984664,-1.279903,0.000000,3.970722,4.109699,6.029958,3.819548,6.807494
4.92,1,0,0,0,0,0,0,0,0,0,-5.033246,-1.056750,5.034590,-0.655471,0.000000,3.976496,4.130844,6.041603,3.823147,6.865240
4.93,1,0,0,0,0,0,0,0,0,0,-5.060900,-1.076375,5.061120,0.160988,0.000000,3.984526,4.132597,6.010793,3.835901,6.876625
4.94,1,0,0,0,0,0,0,0,1,0,-5.143888,-1.161045,5.145108,1.310389,0.000000,3.982843,4.141727,6.008821,3.823552,6.699605
4.95,1,0,0,0,0,0,0,0,0,0,-5.208060,-1.231024,5.208639,1.658043,0.000000,3.977036,4.140860,6.032510,3.812967,6.599499
4.96,1,0,0,0,0,0,1,0,0,0,-5.253037,-1.262193,5.255427,2.289114,0.000000,3.990844,4.175570,6.024105,3.802186,6.656072
4.97,1,0,0,0,0,0,0,0,0,0,-5.150997,-1.163960,5.147964,2.836289,0.000000,3.987037,4.180758,6.042928,3.798156,6.642624
4.98,1,0,0,0,0,0,0,0,0,0,-5.423024,-1.443808,5.423902,4.253408,0.000000,3.979216,4.147960,6.144428,3.788146,6.668725
4.99,1,0,0,0,0,0,0,0,0,0,-5.566254,-1.583999,5.566182,4.794113,0.000000,3.982255,4.176150,6.166602,3.786246,6.666707
5.00,1,0,0,0,0,0,0,0,0,0,-5.479176,-1.482160,5.477654,4.413963,0.000000,3.997016,4.156925,6.115338,3.837378,6.658435
5.01,1,0,0,0,0,0,0,0,0,0,-5.457747,-1.442675,5.457368,3.446227,0.000000,4.015072,4.166697,5.996363,3.871786,6.647516
5.02,1,0,0,0,0,0,0,0,0,0,-5.433524,-1.424483,5.432883,3.183889,0.000000,4.009041,4.155473,6.047612,3.862952,6.658628
5.03,1,0,0,0,0,0,0,1,0,0,-5.551528,-1.537389,5.550595,3.932878,0.000000,4.014140,4.181755,6.055424,3.846483,6.667093
5.04,0,0,0,0,0,0,0,0,0,0,-5.707543,-5.707543,5.707388,4.267932,0.000000,0.000000,4.147584,5.995824,3.827761,6.667319
5.05,0,0,0,0,0,0,0,0,0,0,-5.701718,-5.701718,5.702354,3.606082,0.000000,0.000000,4.168492,5.923401,3.741981,6.691974
5.06,0,0,0,0,0,0,0,0,0,0,-5.555904,-5.555904,5.554993,1.895662,0.000000,0.000000,4.164878,5.882758,3.721744,6.693783
5.07,0,0,0,0,0,0,0,0,0,0,-5.472241,-5.472241,5.471548,0.280775,0.000000,0.000000,4.189933,5.861074,3.830971,6.714206
5.08,0,0,0,0,0,0,0,0,0,0,-5.445619,-5.445619,5.445182,-0.754464,0.000000,0.000000,4.200344,5.856606,3.866657,6.709767
5.09,0,0,0,0,0,0,0,0,0,0,-5.396529,-5.396529,5.395500,-1.105851,0.000000,0.000000,4.200275,5.847134,3.931330,6.749635
5.10,0,0,0,0,0,0,0,0,0,0,-5.377493,-5.377493,5.375890,-1.086477,0.000000,0.000000,4.192563,5.874896,3.915499,6.721296
5.11,0,0,0,0,1,0,0,0,0,0,-5.422387,-5.422387,5.422109,-1.038164,0.000000,0.000000,4.182635,5.829735,3.858930,6.745752
5.12,0,1,0,0,0,0,0,0,0,0,7.088701,-5.398229,5.397122,-1.297086,12.486930,0.000000,4.176855,5.788655,3.728244,6.698954
5.13,0,1,0,0,0,0,0,0,0,0,7.154629,-5.314071,5.314005,-1.705433,12.468699,0.000000,4.189955,5.763434,3.610430,6.705717
5.14,0,1,0,0,0,0,0,0,0,0,7.202654,-5.272304,5.272314,-1.529483,12.474957,0.000000,4.201655,5.772972,3.553472,6.702976
5.15,0,1,0,1,0,1,0,0,0,0,7.167643,-5.324037,5.322730,-0.996314,12.491679,0.000000,4.231975,5.790074,4.076210,6.700586
5.16,0,1,0,0,0,0,0,0,0,0,7.035509,-5.468420,5.469396,-1.428634,12.503929,0.000000,4.182198,5.814134,4.134917,6.688945
5.17,0,1,0,0,0,0,0,0,0,0,7.209785,-5.278397,5.279601,-3.344383,12.488182,0.000000,4.115223,5.796489,3.726244,6.690402
5.18,0,1,0,0,0,0,0,0,0,0,7.650138,-4.874797,4.873375,-5.497991,12.524935,0.000000,4.059321,5.806755,3.739912,6.717548
5.19,0,1,0,0,0,0,0,0,0,0,7.642769,-4.879163,4.878841,-5.949734,12.521933,0.000000,4.003598,5.826357,3.749617,6.696206
5.20,0,1,0,0,0,0,0,0,0,0,7.550336,-4.987286,4.987547,-5.098712,12.537622,0.000000,4.020281,5.818999,3.738051,6.719661
5.21,0,1,0,0,0,0,0,0,0,0,7.595131,-4.975540,4.975932,-4.194168,12.570671,0.000000,4.048965,5.830163,3.801558,6.740967
5.22,0,1,0,0,0,0,0,0,0,0,7.668780,-4.915350,4.916247,-4.102763,12.584131,0.000000,4.069831,5.805549,3.723034,6.778129
5.23,0,1,0,0,0,0,0,0,0,0,7.783881,-4.820541,4.820823,-3.970497,12.604423,0.000000,4.019869,5.786999,3.702162,6.818461
5.24,0,1,0,0,0,0,0,0,0,1,7.728475,-4.844780,4.845347,-3.149212,12.573255,0.000000,4.015447,5.800456,3.691622,6.772990
5.25,0,0,0,0,0,0,0,0,0,0,-4.941735,-4.941735,4.942687,-1.880311,0.000000,0.000000,3.999720,5.787751,3.693749,6.726943
5.26,0,0,0,0,0,0,0,0,0,0,-4.970028,-4.970028,4.970107,-0.901305,0.000000,0.000000,3.993984,5.774111,3.710972,6.773038
5.27,0,0,0,0,0,0,0,0,0,0,-4.992719,-4.992719,4.993697,-0.428957,0.000000,0.000000,4.027883,5.763644,3.693114,6.841544
5.28,0,0,0,0,0,0,0,0,0,0,-4.969795,-4.969795,4.970067,-0.376925,0.000000,0.000000,4.099133,5.787221,3.675570,6.827340
5.29,0,0,0,0,0,0,0,0,0,0,-4.951313,-4.951313,4.951353,-0.099813,0.000000,0.000000,4.161916,5.797741,3.709273,6.706917
5.30,0,0,0,0,0,0,0,0,0,0,-5.011048,-5.011048,5.012006,0.507532,0.000000,0.000000,4.243300,5.784262,3.724944,6.641110
5.31,0,0,0,0,0,0,0,0,0,0,-5.079245,-5.079245,5.080516,1.517830,0.000000,0.000000,4.328799,5.779215,3.726873,6.598951
5.32,0,0,0,0,0,0,0,0,1,0,-5.152932,-5.152932,5.154226,2.660111,0.000000,0.000000,4.430164,5.780627,3.719395,6.625901
5.33,0,0,0,0,0,0,0,0,0,0,-5.238304,-5.238304,5.237534,3.805462,0.000000,0.000000,4.491724,5.773405,3.709864,6.600613
5.34,0,0,1,0,0,0,0,0,0,0,-5.354291,-5.354291,5.353699,4.412916,0.000000,0.000000,4.477884,5.768731,3.709091,6.628913
5.35,1,0,0,0,0,0,0,0,0,0,-5.428883,-1.317140,5.429522,4.236520,0.000000,4.111742,4.552684,5.776245,3.669982,6.598508
5.36,1,0,0,0,0,0,0,0,0,0,-5.344288,-1.220466,5.343419,3.300312,0.000000,4.123823,4.555344,5.766590,3.695572,6.615440
5.37,1,0,0,0,0,0,0,0,0,0,-5.290899,-1.177755,5.290904,2.296596,0.000000,4.113144,4.552152,5.780442,3.689768,6.584533
5.38,1,0,0,0,0,0,0,0,0,0,-5.301761,-1.193338,5.300694,1.423176,0.000000,4.108424,4.548624,5.770536,3.663443,6.599114
5.39,1,0,0,0,0,0,0,0,0,0,-5.297478,-1.200980,5.297511,0.658530,0.000000,4.096498,4.527651,5.786463,3.665235,6.591613
5.40,1,0,0,0,0,0,1,0,0,0,-5.204006,-1.120972,5.203266,0.216760,0.000000,4.083034,4.519479,5.796163,3.648104,6.623293
5.41,1,0,0,0,0,0,0,0,0,0,-5.200251,-1.095310,5.199694,0.772694,0.000000,4.104941,4.541907,5.809279,3.668219,6.608506
5.42,1,0,0,0,0,0,0,0,0,0,-5.367910,-1.237049,5.367851,1.939276,0.000000,4.130861,4.590655,5.873530,3.674769,6.610676
5.43,1,0,0,0,0,0,0,0,0,0,-5.522811,-1.424368,5.524474,2.940738,0.000000,4.098443,4.514078,6.036056,3.668959,6.614377
5.44,1,0,0,0,0,0,0,0,0,0,-5.458104,-1.346865,5.458782,2.921677,0.000000,4.111239,4.514578,6.171995,3.713221,6.633984
5.45,1,0,0,0,0,0,0,0,0,0,-5.451674,-1.340257,5.452215,2.677048,0.000000,4.111418,4.522914,6.208823,3.692757,6.652125
5.46,1,0,0,0,0,0,0,0,0,0,-5.509290,-1.386989,5.510753,2.462379,0.000000,4.122300,4.557242,6.247328,3.688397,6.637467
5.47,1,0,0,0,0,0,0,0,0,0,-5.536667,-1.425225,5.536941,2.804820,0.000000,4.111442,4.552473,6.338890,3.670571,6.673313
5.48,1,0,0,0,0,0,0,0,0,0,-5.551987,-1.444444,5.551303,3.089050,0.000000,4.107543,4.498521,6.442353,3.715805,6.669982
5.49,1,0,0,0,0,0,0,0,0,0,-5.652779,-1.507042,5.653344,3.840762,0.000000,4.145736,4.559840,6.478021,3.749093,6.666626
5.50,1,0,0,0,0,0,0,0,0,0,-5.718493,-1.542272,5.718483,4.384036,0.000000,4.176221,4.558397,6.507163,3.802372,6.693717
5.51,1,0,0,0,0,0,0,0,0,0,-5.829140,-1.684033,5.830041,4.662959,0.000000,4.145107,4.542801,6.491401,3.742431,6.691383
5.52,1,0,0,0,0,0,0,1,0,0,-5.852172,-1.722422,5.853783,4.036461,0.000000,4.129749,4.532298,6.490468,3.734743,6.692091
5.53,0,0,0,0,0,0,0,0,0,0,-5.753378,-5.753378,5.752421,3.037158,0.000000,0.000000,4.550812,6.550177,3.769974,6.702148
5.54,0,0,0,0,0,0,0,0,0,0,-5.736323,-5.736323,5.735978,2.109537,0.000000,0.000000,4.570440,6.464506,3.817402,6.683125
5.55,0,0,0,0,0,0,0,0,0,0,-5.752532,-5.752532,5.751696,1.831505,0.000000,0.000000,4.565218,6.417171,3.735920,6.689457
5.56,0,1,0,0,1,0,0,0,0,0,7.350047,-5.756300,5.754457,2.115063,13.106347,0.000000,4.569504,6.438046,3.803070,6.665865
5.57,0,1,0,0,0,0,0,0,0,0,7.269374,-5.845230,5.845397,2.877690,13.114604,0.000000,4.587200,6.434137,3.909929,6.680112
5.58,0,1,0,0,0,0,0,0,0,0,7.188960,-5.939993,5.940113,3.418640,13.128953,0.000000,4.601216,6.442859,4.222041,6.685485
5.59,0,1,0,0,0,0,0,0,0,0,7.093724,-6.017377,6.018351,3.398404,13.111101,0.000000,4.614825,6.445764,4.064978,6.665197
5.60,0,1,0,0,0,0,0,0,0,0,7.197453,-5.928642,5.927711,2.466120,13.126095,0.000000,4.609498,6.429000,4.182855,6.696612
5.61,0,1,0,0,0,0,0,0,0,0,7.215097,-5.892286,5.892011,1.267832,13.107384,0.000000,4.616913,6.437030,4.205653,6.669362
5.62,0,1,0,0,0,0,0,0,0,0,7.239762,-5.836673,5.836433,0.054727,13.076435,0.000000,4.625781,6.408915,4.189091,6.665371
5.63,0,1,0,0,0,1,0,0,0,0,7.282731,-5.775683,5.775308,-0.546200,13.058414,0.000000,4.628364,6.380119,4.248776,6.677942
5.64,0,1,0,1,0,0,0,0,0,0,7.326299,-5.749772,5.748570,-0.796028,13.076071,0.000000,4.647352,6.409271,4.252997,6.668823
5.65,0,1,0,0,0,0,0,0,0,0,7.253958,-5.801095,5.801290,-1.237034,13.055053,0.000000,4.669014,6.383527,4.210185,6.671121
5.66,0,1,0,0,0,0,0,0,0,0,7.328645,-5.743546,5.743879,-2.575707,13.072191,0.000000,4.661179,6.363672,4.211360,6.707846
5.67,0,1,0,0,0,0,0,0,0,0,7.610991,-5.495040,5.494908,-4.363730,13.106032,0.000000,4.510817,6.367018,4.264362,6.739596
5.68,0,1,0,0,0,0,0,0,0,0,7.832336,-5.335851,5.335777,-5.368802,13.168187,0.000000,4.425247,6.371676,4.258877,6.796937
5.69,0,1,0,0,0,0,0,0,0,1,7.850808,-5.390221,5.389991,-5.199958,13.241029,0.000000,4.530599,6.369062,4.279720,6.874448
5.70,0,0,0,0,0,0,0,0,0,0,-5.410525,-5.410525,5.410909,-4.405384,0.000000,0.000000,4.470750,6.371034,4.250535,6.766271
5.71,0,0,0,0,0,0,0,0,0,0,-5.357273,-5.357273,5.356586,-3.840296,0.000000,0.000000,4.424922,6.372364,4.240053,6.666270
5.72,0,0,0,0,0,0,0,0,0,0,-5.320744,-5.320744,5.319062,-3.368119,0.000000,0.000000,4.421711,6.398759,4.259122,6.664358
5.73,0,0,0,0,0,0,0,0,0,0,-5.333007,-5.333007,5.332522,-2.690248,0.000000,0.000000,4.430602,6.387009,4.245584,6.727345
5.74,0,0,0,0,0,0,0,0,0,0,-5.389924,-5.389924,5.390176,-1.550179,0.000000,0.000000,4.440691,6.415182,4.251632,6.693638
5.75,0,0,0,0,0,0,0,0,0,0,-5.433443,-5.433443,5.433267,-0.419722,0.000000,0.000000,4.446107,6.405884,4.247624,6.715268
5.76,0,0,0,0,0,0,0,0,0,0,-5.533023,-5.533023,5.533958,0.598198,0.000000,0.000000,4.475291,6.369082,4.287386,6.772079
5.77,0,0,1,0,0,0,0,0,0,0,-5.544001,-4.467476,5.544125,1.123575,0.000000,1.076525,4.481890,6.373603,4.259492,6.766583
5.78,1,0,0,0,0,0,0,0,0,0,-5.551020,-1.159411,5.550135,1.375201,0.000000,4.391608,4.542793,6.361565,4.239695,6.836163
5.79,1,0,0,0,0,0,0,0,0,0,-5.586868,-1.187492,5.587971,1.460645,0.000000,4.399375,4.540035,6.352505,4.257211,6.934721
5.80,1,0,0,0,0,0,0,0,0,0,-5.603249,-1.181160,5.604478,1.510367,0.000000,4.422088,4.541819,6.385953,4.305707,7.054817
5.81,1,0,0,0,0,0,0,0,0,0,-5.621047,-1.195324,5.621398,1.712426,0.000000,4.425723,4.566318,6.379923,4.283345,7.061298
5.82,1,0,0,0,0,0,0,0,1,0,-5.627593,-1.191494,5.626968,2.039656,0.000000,4.436099,4.600581,6.429238,4.271281,6.973381
5.83,1,0,0,0,0,0,0,0,0,0,-5.725645,-1.294147,5.725595,2.248676,0.000000,4.431498,4.583302,6.428496,4.279234,6.929677
5.84,1,0,0,0,0,0,1,0,0,0,-5.764110,-1.326906,5.764848,2.207483,0.000000,4.437204,4.616595,6.442974,4.268275,6.941549
5.85,1,0,0,0,0,0,0,0,0,0,-5.649834,-1.211863,5.649160,2.197595,0.000000,4.437970,4.610962,6.465504,4.259988,6.959937
5.86,1,0,0,0,0,0,0,0,0,0,-5.759265,-1.320215,5.758980,2.705730,0.000000,4.439051,4.616804,6.552290,4.259977,6.997747
5.87,1,0,0,0,0,0,0,0,0,0,-5.914689,-1.479085,5.915906,3.343744,0.000000,4.435605,4.619793,6.671947,4.255477,7.013899
5.88,1,0,0,0,0,0,0,0,0,0,-5.901279,-1.476501,5.901666,3.599540,0.000000,4.424778,4.602328,6.566606,4.258739,6.972698
5.89,1,0,0,0,0,0,0,0,0,0,-5.926669,-1.495276,5.927479,3.239486,0.000000,4.431393,4.602571,6.489488,4.260849,6.923675
5.90,1,0,0,0,0,0,0,0,0,0,-5.925503,-1.488700,5.926100,2.474320,0.000000,4.436803,4.615958,6.417703,4.274255,6.899891
5.91,1,0,0,0,0,0,0,0,0,0,-5.869607,-1.433075,5.869144,1.731984,0.000000,4.436532,4.633473,6.376181,4.238407,6.904662
5.92,1,0,0,0,0,0,0,0,0,0,-5.855558,-1.417504,5.855296,1.488672,0.000000,4.438055,4.605383,6.337558,4.267628,6.937504
5.93,1,0,0,0,0,0,0,1,0,0,-5.883527,-1.445080,5.882797,1.652783,0.000000,4.438446,4.619101,6.370648,4.255666,6.939648
5.94,0,0,0,0,0,0,0,0,0,0,-6.002520,-6.002520,6.002977,1.805159,0.000000,0.000000,4.613231,6.335084,4.258597,6.971366
5.95,0,0,0,0,0,0,0,0,0,0,-5.960140,-5.960140,5.960207,0.995118,0.000000,0.000000,4.613462,6.306745,4.215528,6.971875
5.96,0,0,0,0,0,0,0,0,0,0,-5.833310,-5.833310,5.833213,-0.158143,0.000000,0.000000,4.605312,6.265127,4.135814,6.987269
5.97,0,0,0,0,0,0,0,0,0,0,-5.757320,-5.757320,5.756912,-1.432844,0.000000,0.000000,4.616000,6.196688,4.128470,7.013352
5.98,0,0,0,0,0,0,0,0,0,0,-5.741360,-5.741360,5.741489,-2.046422,0.000000,0.000000,4.612091,6.145833,4.208388,7.011274
5.99,0,0,0,0,0,0,0,0,0,0,-5.664664,-5.664664,5.663976,-2.452703,0.000000,0.000000,4.638044,6.083931,4.238919,7.013524
6.00,0,0,0,0,0,0,0,0,0,0,-5.654341,-5.654341,5.654834,-2.369227,0.000000,0.000000,4.627900,6.021577,4.337172,6.985517
6.01,0,0,0,0,1,0,0,0,0,0,-5.648284,-5.648284,5.647522,-2.210460,0.000000,0.000000,4.644972,5.937262,4.486376,6.966780
6.02,0,0,0,0,0,0,0,0,0,0,-2.498248,-5.658573,5.658107,-1.865418,3.160325,0.000000,4.657678,5.876620,4.344815,6.983198
6.03,0,1,0,0,0,0,0,0,0,0,7.151237,-5.627266,5.626710,-1.698523,12.778503,0.000000,4.659123,5.812254,4.252479,6.965665
6.04,0,1,0,0,0,0,0,0,0,0,7.112596,-5.625576,5.624581,-1.687736,12.738172,0.000000,4.670398,5.788979,4.211084,6.948052
6.05,0,1,0,0,0,0,0,0,0,0,7.161943,-5.617471,5.617299,-2.050814,12.779413,0.000000,4.648202,5.788726,4.053879,6.989763
6.06,0,1,0,0,0,1,0,0,0,0,7.229784,-5.529643,5.529300,-2.349712,12.759427,0.000000,4.652130,5.797691,4.133165,6.959461
6.07,0,1,0,0,0,0,0,0,0,0,7.286281,-5.473096,5.473045,-2.694201,12.759377,0.000000,4.660489,5.799574,4.146003,6.959449
6.08,0,1,0,1,0,0,0,0,0,0,7.223040,-5.535697,5.537489,-2.887628,12.758737,0.000000,4.663312,5.815190,4.167128,6.942864
6.09,0,1,0,0,0,0,0,0,0,0,7.357415,-5.418884,5.418847,-3.641996,12.776299,0.000000,4.574640,5.844362,4.177728,6.932069
6.10,0,1,0,0,0,0,0,0,0,0,7.456728,-5.288843,5.288676,-4.746261,12.745571,0.000000,4.441203,5.797691,4.170730,6.946488
6.11,0,1,0,0,0,0,0,0,0,0,7.600538,-5.196571,5.197078,-5.934600,12.797109,0.000000,4.177856,5.800458,4.267852,6.996264
6.12,0,1,0,0,0,0,0,0,0,0,7.791992,-5.037820,5.036887,-6.553788,12.829812,0.000000,4.103641,5.784918,4.261563,7.046010
6.13,0,1,0,0,0,0,0,0,0,0,7.847634,-4.995313,4.994400,-6.276139,12.842947,0.000000,4.123786,5.787932,4.262242,7.055696
6.14,0,1,0,0,0,0,0,0,0,0,7.831099,-5.003116,5.001529,-5.082922,12.834215,0.000000,4.198824,5.776118,4.231208,7.058277
6.15,0,1,0,0,0,0,0,0,0,0,7.784308,-5.067236,5.066931,-3.317990,12.851544,0.000000,4.113402,5.781662,4.222647,7.070247
6.16,0,1,0,0,0,0,0,0,0,0,7.674307,-5.177956,5.178074,-1.757876,12.852263,0.000000,4.066908,5.785808,4.236087,7.067729
6.17,0,1,0,0,0,0,0,0,0,0,7.623880,-5.207953,5.208716,-1.049866,12.831833,0.000000,4.062218,5.780796,4.227593,7.049934
6.18,0,1,0,0,0,0,0,0,0,1,4.482721,-5.170581,5.171499,-1.023188,9.653302,0.000000,4.061924,5.752577,4.184546,7.044859
6.19,0,0,0,0,0,0,0,0,0,0,-5.130727,-5.130727,5.131053,-1.331003,0.000000,0.000000,4.051817,5.749484,4.209684,7.104117
6.20,0,0,0,0,0,0,0,0,0,0,-5.105069,-5.105069,5.105404,-1.367723,0.000000,0.000000,4.049234,5.764693,4.217643,7.137077
6.21,0,0,0,0,0,0,0,0,0,0,-5.100535,-5.100535,5.101285,-0.999896,0.000000,0.000000,4.046747,5.780520,4.198771,6.997657
6.22,0,0,0,0,0,0,0,0,0,0,-5.166916,-5.166916,5.168621,-0.495743,0.000000,0.000000,4.042001,5.785668,4.227087,6.842288
6.23,0,0,0,0,0,0,0,0,0,0,-5.179369,-5.179369,5.179797,-0.121704,0.000000,0.000000,4.041912,5.784857,4.240256,6.809750
6.24,0,0,0,0,0,0,0,0,0,0,-5.166128,-5.166128,5.166736,0.150895,0.000000,0.000000,4.060050,5.782237,4.245940,6.816073
6.25,0,0,0,0,0,0,0,0,0,0,-5.166637,-5.166637,5.166213,0.692567,0.000000,0.000000,4.063233,5.757140,4.264377,6.815708
6.26,0,0,0,0,0,0,0,0,0,0,-5.253901,-5.253901,5.253660,1.616014,0.000000,0.000000,4.123757,5.765760,4.240059,6.810436
6.27,0,0,0,0,0,0,0,0,0,0,-5.360743,-5.360743,5.360960,2.759147,0.000000,0.000000,4.173490,5.750319,4.225565,6.786689
6.28,0,0,0,0,0,0,0,0,0,0,-5.423216,-5.423216,5.423047,3.571784,0.000000,0.000000,4.185359,5.736741,4.210108,6.757878
6.29,0,0,0,0,0,0,0,0,1,0,-5.501813,-5.501813,5.501713,3.833520,0.000000,0.000000,4.256809,5.769910,4.239554,6.623447
6.30,0,0,0,0,0,0,0,0,0,0,-5.511537,-5.511537,5.511298,3.842747,0.000000,0.000000,4.365913,5.762791,4.214869,6.666056
6.31,0,0,1,0,0,0,0,0,0,0,-5.510715,-4.444058,5.510459,3.228330,0.000000,1.066657,4.423036,5.772060,4.232739,6.652053
6.32,1,0,0,0,0,0,1,0,0,0,-5.578895,-1.226826,5.578399,1.931209,0.000000,4.352068,4.463616,5.759086,4.239440,6.671610
6.33,1,0,0,0,0,0,0,0,0,0,-5.369517,-1.004622,5.369560,0.728765,0.000000,4.364895,4.491906,5.694224,4.227567,6.663836
6.34,1,0,0,0,0,0,0,0,0,0,-5.227406,-0.858637,5.225436,0.738670,0.000000,4.368768,4.564749,5.894817,4.183868,6.677430
6.35,1,0,0,0,0,0,0,0,0,0,-5.609900,-1.264736,5.611624,2.554024,0.000000,4.345163,4.501063,6.015143,4.167667,6.680267
6.36,1,0,0,0,0,0,0,0,0,0,-5.716409,-1.371245,5.715784,3.939335,0.000000,4.345163,4.519336,6.102531,4.168790,6.697311
6.37,1,0,0,0,0,0,0,0,0,0,-5.760427,-1.408598,5.761438,4.119976,0.000000,4.351829,4.516709,6.177766,4.183424,6.715091
6.38,1,0,0,0,0,0,0,1,0,0,-5.651641,-1.282552,5.651386,2.580976,0.000000,4.369089,4.539133,6.222151,4.200126,6.738118
6.39,0,0,0,0,0,0,0,0,0,0,-5.579650,-5.579650,5.579600,1.165291,0.000000,0.000000,4.535655,6.215792,4.178702,6.748580
6.40,0,0,0,0,0,0,0,0,0,0,-5.542601,-5.542601,5.542608,0.269048,0.000000,0.000000,4.495461,6.246901,4.083795,6.741371
6.41,0,0,0,0,0,0,0,0,0,0,-5.518688,-5.518688,5.518399,-0.092760,0.000000,0.000000,4.533309,6.261209,3.900857,6.727728
6.42,0,0,0,0,0,0,0,0,0,0,-5.564189,-5.564189,5.564822,0.003590,0.000000,0.000000,4.533574,6.212134,4.009777,6.721974
6.43,0,0,0,0,0,0,0,0,0,0,-5.516273,-5.516273,5.515604,0.091162,0.000000,0.000000,4.521413,6.241959,4.081693,6.726973
6.44,0,0,0,0,0,0,0,0,0,0,-5.568154,-5.568154,5.568242,0.131662,0.000000,0.000000,4.508958,6.206715,4.120740,6.725055
6.45,0,0,0,0,0,0,0,0,0,0,-5.590343,-5.590343,5.590805,-0.322203,0.000000,0.000000,4.505281,6.196445,4.044109,6.712759
6.46,0,0,0,0,0,0,0,0,0,0,-5.448314,-5.448314,5.446893,-1.130328,0.000000,0.000000,4.504341,6.143212,3.978334,6.706520
6.47,0,0,0,0,0,0,0,0,0,0,-5.392802,-5.392802,5.392453,-1.713118,0.000000,0.000000,4.505971,6.112751,3.981700,6.702540
6.48,0,0,0,0,0,0,0,0,0,0,-5.419827,-5.419827,5.420748,-1.848811,0.000000,0.000000,4.503729,6.089609,3.811159,6.698429
6.49,0,0,0,0,0,0,0,0,0,0,-5.406260,-5.406260,5.406167,-1.674904,0.000000,0.000000,4.547366,6.062416,3.838144,6.700831
6.50,0,0,0,0,0,0,0,0,0,0,-5.388862,-5.388862,5.388223,-1.543810,0.000000,0.000000,4.582074,6.021803,3.803899,6.692982
6.51,0,0,0,0,0,0,0,0,0,0,-5.373089,-5.373089,5.373491,-1.418524,0.000000,0.000000,4.597654,5.966073,3.795288,6.717746
6.52,0,0,0,0,0,0,0,0,0,0,-5.386142,-5.386142,5.386559,-1.352900,0.000000,0.000000,4.616378,5.951442,3.788751,6.729871
6.53,0,0,0,0,0,0,0,0,0,0,-5.375696,-5.375696,5.377387,-1.431677,0.000000,0.000000,4.574375,5.918464,3.786028,6.722827
6.54,0,0,0,0,0,0,0,0,0,0,-5.327828,-5.327828,5.328925,-1.890077,0.000000,0.000000,4.562022,5.928096,3.775221,6.719972
6.55,0,0,0,0,0,0,0,0,0,0,-5.271418,-5.271418,5.272374,-2.261422,0.000000,0.000000,4.594242,5.918392,3.790800,6.689409
6.56,0,1,0,0,1,1,0,0,0,0,7.401379,-5.210705,5.211018,-2.629285,12.612084,0.000000,4.597506,5.903891,3.836542,6.707485
6.57,0,1,0,0,0,0,0,0,0,0,7.386032,-5.250043,5.251788,-2.870897,12.636075,0.000000,4.610871,5.916730,3.811280,6.719854
6.58,0,1,0,1,0,0,0,0,0,0,7.478620,-5.167056,5.167854,-3.991246,12.645676,0.000000,4.617949,5.929233,3.815117,6.716065
6.59,0,1,0,0,0,0,0,0,0,0,7.693992,-4.976847,4.978919,-5.007127,12.670838,0.000000,4.593750,5.934325,3.828304,6.735932
6.60,0,1,0,0,0,0,0,0,0,0,7.868207,-4.808845,4.807998,-5.782568,12.677052,0.000000,4.464788,5.939421,3.838979,6.736602
6.61,0,1,0,0,0,0,0,0,0,1,7.670818,-4.923193,4.925253,-5.694443,12.594011,0.000000,4.180443,5.905752,3.865361,6.688472
6.62,0,0,0,0,0,0,0,0,0,0,-4.825829,-4.825829,4.826838,-5.419062,0.000000,0.000000,4.187822,5.875161,3.855075,6.648833
6.63,0,0,0,0,0,0,0,0,0,0,-4.705295,-4.705295,4.703784,-4.643768,0.000000,0.000000,4.219891,5.893539,3.832507,6.587854
6.64,0,0,0,0,0,0,0,0,0,0,-4.821176,-4.821176,4.820946,-3.303531,0.000000,0.000000,4.215292,5.883759,3.828920,6.644036
6.65,0,0,0,0,0,0,0,0,0,0,-4.911567,-4.911567,4.911423,-1.554144,0.000000,0.000000,4.206644,5.874394,3.837467,6.718342
6.66,0,0,0,0,0,0,0,0,0,0,-4.960170,-4.960170,4.960013,0.021620,0.000000,0.000000,4.151397,5.874913,3.845690,6.675051
6.67,0,0,0,0,0,0,0,0,0,0,-5.044706,-5.044706,5.044690,1.088911,0.000000,0.000000,4.150775,5.891290,3.843144,6.585878
6.68,0,0,0,0,0,0,0,0,0,0,-5.093343,-5.093343,5.093238,1.728384,0.000000,0.000000,4.110151,5.862891,3.840172,6.486914
6.69,0,0,0,0,0,0,0,0,0,0,-5.121499,-5.121499,5.121340,2.231559,0.000000,0.000000,4.109432,5.870341,3.885693,6.452516
6.70,0,0,0,0,0,0,0,0,0,0,-5.148208,-5.148208,5.147833,2.664866,0.000000,0.000000,4.111963,5.876687,3.873279,6.441284
6.71,0,0,0,0,0,0,0,0,0,0,-5.240190,-5.240190,5.240286,3.286476,0.000000,0.000000,4.128311,5.870218,3.905421,6.480607
6.72,0,0,0,0,0,0,0,0,0,0,-5.309114,-5.309114,5.308913,3.675598,0.000000,0.000000,4.151274,5.870466,3.908010,6.558266
6.73,0,0,0,0,0,0,0,0,0,0,-5.347342,-5.347342,5.347099,3.814611,0.000000,0.000000,4.249229,5.849567,3.879451,6.636148
6.74,0,0,0,0,0,0,0,0,0,0,-5.345766,-5.345766,5.344036,3.821925,0.000000,0.000000,4.336849,5.840654,3.889915,6.686100
6.75,0,0,0,0,0,0,0,0,1,0,-5.410222,-5.410222,5.411575,4.109905,0.000000,0.000000,4.397774,5.820915,3.884580,6.661815
6.76,0,0,0,0,0,0,0,0,0,0,-5.509474,-5.509474,5.510553,4.597806,0.000000,0.000000,4.457561,5.823862,3.886984,6.654758
6.77,0,0,0,0,0,0,0,0,0,0,-5.566109,-5.566109,5.565518,4.653786,0.000000,0.000000,4.462889,5.830819,3.889089,6.595756
6.78,0,0,0,0,0,0,0,0,0,0,-5.607314,-5.607314,5.607647,4.046684,0.000000,0.000000,4.473300,5.847821,3.891064,6.612336
6.79,0,0,0,0,0,0,1,0,0,0,-5.544262,-5.544262,5.544068,3.341818,0.000000,0.000000,4.502418,5.836503,3.875883,6.598427
6.80,0,0,0,0,0,0,0,0,0,0,-5.504466,-5.504466,5.503579,3.165691,0.000000,0.000000,4.536697,5.851863,3.893644,6.598633
6.81,0,0,0,0,0,0,0,0,0,0,-5.671874,-5.671874,5.673083,3.735795,0.000000,0.000000,4.537442,5.976803,3.901094,6.595679
6.82,0,0,0,0,0,0,0,0,0,0,-5.741860,-5.741860,5.742472,4.342174,0.000000,0.000000,4.509143,6.219407,3.903491,6.615148
6.83,0,0,0,0,0,0,0,1,0,0,-5.764323,-5.764323,5.763816,4.463825,0.000000,0.000000,4.495180,6.276821,3.910679,6.617058
6.84,1,0,0,0,0,0,0,0,0,0,-5.846557,-1.646244,5.847743,3.852657,0.000000,4.200313,4.480366,6.297769,3.920247,6.635042
6.85,1,0,0,0,0,0,0,0,0,0,-5.779910,-1.654398,5.780409,2.787527,0.000000,4.125512,4.495891,6.332864,3.752496,6.645853
6.86,1,0,0,0,0,0,0,0,0,0,-5.682346,-1.572999,5.681912,1.961312,0.000000,4.109347,4.515621,6.460065,3.700938,6.640898
6.87,1,0,0,0,0,0,0,0,0,0,-5.712816,-1.539161,5.713481,1.660669,0.000000,4.173656,4.496663,6.551523,3.854619,6.679894
6.88,1,0,0,0,0,0,0,0,0,0,-5.808584,-1.635343,5.810093,1.808795,0.000000,4.173241,4.482009,6.542783,3.859049,6.682268
6.89,1,0,0,0,0,0,0,0,0,0,-5.788073,-1.581369,5.787007,1.733124,0.000000,4.206704,4.497792,6.475287,3.915357,6.672449
6.90,1,0,0,0,0,0,0,0,0,0,-5.766869,-1.450684,5.766059,1.229209,0.000000,4.316185,4.508751,6.383217,4.127012,6.622526
6.91,1,0,0,0,1,0,0,0,0,0,-5.764938,-1.450231,5.765394,0.341964,0.000000,4.314707,4.511114,6.267492,4.117850,6.641624
6.92,1,0,0,0,0,0,0,0,0,0,-5.693685,-1.410959,5.694145,-0.637541,0.000000,4.282726,4.522933,6.229595,4.041521,6.647831
6.93,1,1,0,0,0,0,0,0,0,0,7.325327,-1.308110,5.581193,-1.498908,12.907465,4.274028,4.537007,6.274543,4.012023,6.631952
6.94,1,1,0,0,0,0,0,0,0,0,7.318738,-1.360876,5.576678,-1.841342,12.895556,4.215942,4.508666,6.256560,3.924461,6.637826
6.95,1,1,0,0,0,0,0,0,0,0,7.333061,-1.403896,5.572858,-1.588516,12.906031,4.169073,4.535308,6.257091,3.798896,6.648198
6.96,1,1,0,0,0,1,0,0,0,0,7.337986,-1.402484,5.572872,-0.565659,12.911240,4.170769,4.530447,6.253214,3.810783,6.658396
6.97,1,1,0,1,0,0,0,0,0,0,7.207161,-1.468208,5.679204,0.028540,12.886536,4.211165,4.541112,6.252537,3.884167,6.631538
6.98,1,1,0,0,0,0,0,0,0,0,7.149810,-1.595282,5.788765,-0.496804,12.936734,4.191643,4.484727,6.286408,3.894978,6.648776
6.99,1,1,0,0,0,0,0,0,0,0,7.439113,-1.351836,5.511626,-2.655538,12.951303,4.160354,4.423113,6.286977,3.897867,6.664436
7.00,1,1,0,0,0,0,0,0,0,0,7.703764,-1.074113,5.245119,-4.543132,12.950015,4.172138,4.386488,6.290399,3.957407,6.660264
7.01,1,1,0,0,0,0,0,0,0,0,7.736198,-1.018244,5.237736,-5.343538,12.974399,4.219956,4.454305,6.286267,3.973011,6.687723
7.02,1,1,0,0,0,0,0,0,0,0,7.715000,-1.061893,5.287398,-5.441201,13.001510,4.224617,4.512883,6.283250,3.923112,6.718722
7.03,1,1,0,0,0,0,0,0,0,1,7.796224,-0.953069,5.188280,-5.930769,12.984134,4.234840,4.552633,6.258658,3.924727,6.725645
7.04,1,0,0,0,0,0,0,0,0,0,-4.947724,-0.725199,4.946900,-6.397011,0.000000,4.222525,4.534966,6.256820,3.915556,6.615348
7.05,1,0,0,0,0,0,0,0,0,0,-4.927794,-0.673420,4.926859,-5.454194,0.000000,4.254374,4.588346,6.231003,3.921090,6.616470
7.06,1,0,0,0,0,0,0,0,0,0,-5.101630,-0.835483,5.101051,-2.888169,0.000000,4.266146,4.622339,6.242656,3.909340,6.709762
7.07,1,0,0,0,0,0,0,0,0,0,-5.262434,-0.970921,5.262097,0.026651,0.000000,4.291513,4.672544,6.236859,3.915666,6.761508
7.08,1,0,0,0,0,0,0,0,0,0,-5.438917,-1.144500,5.438901,1.852133,0.000000,4.294416,4.681081,6.238698,3.926090,6.758779
7.09,1,0,0,0,0,0,0,0,0,0,-5.441243,-1.129482,5.440747,2.043740,0.000000,4.311761,4.704984,6.243938,3.919101,6.783170
7.10,1,0,0,0,0,0,0,0,0,0,-5.347229,-1.001979,5.346165,1.865929,0.000000,4.345249,4.767548,6.255412,3.923762,6.764412
7.11,1,0,0,0,0,0,0,0,0,0,-5.363501,-0.987275,5.362338,2.016355,0.000000,4.376225,4.820712,6.238494,3.932351,6.832972
7.12,1,0,0,0,0,0,0,0,0,0,-5.545683,-1.151919,5.545807,3.306737,0.000000,4.393765,4.868600,6.223243,3.918736,6.955222
7.13,1,0,0,0,0,0,0,0,0,0,-5.605587,-1.185660,5.605167,4.672029,0.000000,4.419926,4.916684,6.213351,3.923309,6.983129
7.14,1,0,0,0,0,0,0,0,1,0,-5.764247,-1.297154,5.765011,5.910603,0.000000,4.467093,5.013112,6.229698,3.921754,6.976309
7.15,1,0,1,0,0,0,0,0,0,0,-5.903326,-2.528744,5.903473,6.057091,0.000000,3.374581,5.080559,6.217660,3.876967,6.919738
7.16,0,0,0,0,0,0,0,0,0,0,-5.862396,-5.862396,5.862524,5.409397,0.000000,0.000000,5.066169,6.214684,3.852072,6.911115
7.17,0,0,0,0,0,0,0,0,0,0,-5.827029,-5.827029,5.826672,4.364995,0.000000,0.000000,5.084637,6.256388,3.842688,6.892781
7.18,0,0,0,0,0,0,1,0,0,0,-5.815620,-5.815620,5.815471,4.513345,0.000000,0.000000,5.089784,6.253832,3.897552,6.957852
7.19,0,0,0,0,0,0,0,0,0,0,-5.932778,-5.932778,5.932798,6.190731,0.000000,0.000000,5.101685,6.287913,3.889684,6.965290
7.20,0,0,0,0,0,0,0,0,0,0,-6.263658,-6.263658,6.264052,8.926219,0.000000,0.000000,5.086788,6.430038,3.899915,7.001336
7.21,0,0,0,0,0,0,0,0,0,0,-6.545014,-6.545014,6.546204,9.877160,0.000000,0.000000,5.016045,6.596756,3.951987,7.043453
7.22,0,0,0,0,0,0,0,0,0,0,-6.576605,-6.576605,6.579923,8.229869,0.000000,0.000000,5.049313,6.670638,3.941216,7.025290
7.23,0,0,0,0,0,0,0,1,0,0,-6.232996,-6.232996,6.231434,4.290508,0.000000,0.000000,5.092766,6.690266,3.965222,7.031194
7.24,1,0,0,0,0,0,0,0,0,0,-6.004934,-1.473791,6.003176,1.166142,0.000000,4.531143,5.101657,6.713956,3.957961,6.986634
7.25,1,0,0,0,0,0,0,0,0,0,-6.005512,-1.548116,6.004352,-0.035066,0.000000,4.457396,5.082405,6.702602,3.831084,6.990594
7.26,1,0,0,0,0,0,0,0,0,0,-6.104731,-1.669298,6.104452,0.498990,0.000000,4.435433,5.115514,6.629219,3.731949,6.980681
7.27,1,0,0,0,0,0,0,0,0,0,-6.162901,-1.646600,6.162777,1.407994,0.000000,4.516302,5.111767,6.569730,3.920756,6.996857
7.28,1,0,0,0,0,0,0,0,0,0,-6.185975,-1.557817,6.185186,1.711040,0.000000,4.628158,5.098435,6.572148,4.156765,7.007731
7.29,1,0,0,0,0,0,0,0,0,0,-6.234238,-1.493811,6.234303,1.105877,0.000000,4.740427,5.102837,6.596661,4.392730,7.013353
7.30,1,0,0,0,0,1,0,0,0,0,-6.120761,-1.409620,6.119689,-0.475617,0.000000,4.711142,5.125055,6.556049,4.298876,7.036272
7.31,1,0,0,0,0,0,0,0,0,0,-5.946713,-1.301607,5.945596,-2.331745,0.000000,4.645106,5.122464,6.462147,4.167827,7.035048
7.32,1,1,0,0,1,0,0,0,0,0,7.666624,-1.205236,5.832316,-3.428159,13.500416,4.628557,5.089924,6.424763,4.160570,7.075886
7.33,1,1,0,0,0,0,0,0,0,0,7.683377,-1.171527,5.810501,-3.403920,13.494502,4.639598,5.083862,6.412414,4.195762,7.082145
7.34,1,1,0,0,0,0,0,0,0,0,7.583095,-1.223007,5.901380,-2.665654,13.482976,4.676874,5.091879,6.382030,4.263296,7.101480
7.35,1,1,0,0,0,0,0,0,0,0,7.587606,-1.169150,5.893380,-2.169196,13.480976,4.724220,5.135384,6.394672,4.312810,7.086687
7.36,1,1,0,0,0,0,0,0,0,0,7.649010,-1.100970,5.830366,-2.044790,13.480298,4.730318,5.142140,6.390798,4.323688,7.090335
7.37,1,1,0,0,0,0,0,0,0,0,7.642309,-1.103745,5.829588,-1.874369,13.471801,4.725747,5.147840,6.380974,4.304833,7.091651
7.38,1,1,0,0,0,0,0,0,0,0,7.589457,-1.100587,5.833810,-1.299937,13.422825,4.732781,5.184579,6.373194,4.279449,7.048652
7.39,1,1,0,0,0,0,0,0,0,0,7.549872,-1.131642,5.891762,-0.183497,13.441452,4.759938,5.190863,6.390346,4.323448,7.050542
7.40,1,1,0,0,0,0,0,0,0,0,7.461397,-1.174682,5.961574,0.949727,13.423713,4.787635,5.226074,6.375104,4.351347,7.046886
7.41,1,1,0,0,0,0,0,0,0,0,7.348527,-1.283286,6.052408,1.629298,13.400673,4.768859,5.167298,6.373855,4.370012,7.026419
7.42,1,1,0,1,0,0,0,0,0,0,7.316712,-1.316620,6.064475,1.373276,13.380807,4.747475,5.166570,6.356636,4.328348,7.023511
7.43,1,1,0,0,0,0,0,0,0,0,7.372041,-1.278874,6.003042,0.355371,13.374915,4.724000,5.160273,6.349162,4.288900,7.025651
7.44,1,1,0,0,0,0,0,0,0,0,7.493126,-1.244397,5.889015,-1.114102,13.382592,4.645069,5.048426,6.357285,4.244221,7.024800
7.45,1,1,0,0,0,0,0,0,0,0,7.548903,-1.240241,5.811276,-2.176565,13.360115,4.570971,4.929393,6.317878,4.301607,7.027337
7.46,1,1,0,0,0,0,0,0,0,0,6.401325,-0.735921,5.719843,-2.648543,12.122439,4.985192,4.988945,5.010517,6.247952,7.012747
7.47,1,1,0,0,0,0,0,0,0,0,7.632879,-0.652466,5.768570,-2.274615,13.400621,5.115276,5.026830,6.311137,6.805369,7.086827
7.48,1,1,0,0,0,0,0,0,0,1,7.685496,-1.206402,5.792911,-2.368012,13.477887,4.585989,5.031750,6.372766,4.158121,7.105938
7.49,1,0,0,0,0,0,0,0,0,0,-5.752811,-1.158391,5.753488,-3.133519,0.000000,4.594420,4.972515,6.359785,4.216221,7.177524
7.50,1,0,1,0,0,0,0,0,0,0,-5.512224,-0.894293,5.511436,-4.122946,0.000000,4.617930,5.001158,6.358057,4.232116,7.172023
7.51,0,0,0,0,0,0,0,0,0,0,-5.424843,-5.424843,5.423117,-3.704990,0.000000,0.000000,4.984811,6.346785,4.261960,7.113816
7.52,0,0,0,0,0,0,0,0,0,0,-5.664614,-5.664614,5.665991,-1.933419,0.000000,0.000000,4.940235,6.338081,4.272693,7.075586
7.53,0,0,0,0,0,0,0,0,0,0,-5.785444,-5.785444,5.785580,0.115303,0.000000,0.000000,4.861456,6.350333,4.268736,7.044566
7.54,0,0,0,0,0,0,0,0,0,0,-5.757632,-5.757632,5.755980,1.157378,0.000000,0.000000,4.773131,6.308873,4.264793,7.047738
7.55,0,0,0,0,0,0,0,0,0,0,-5.847805,-5.847805,5.847151,1.530714,0.000000,0.000000,4.782531,6.324187,4.260595,7.052094
7.56,0,0,0,0,0,0,0,0,0,0,-5.840775,-5.840775,5.839967,1.295708,0.000000,0.000000,4.780747,6.318135,4.234389,7.045866
7.57,0,0,0,0,0,0,0,0,1,0,-5.811998,-5.811998,5.812172,1.427352,0.000000,0.000000,4.762962,6.311042,4.237266,7.026534
7.58,0,0,0,0,0,0,0,0,0,0,-5.841392,-5.841392,5.841154,1.400530,0.000000,0.000000,4.773128,6.312467,4.212729,6.975863
7.59,0,0,0,0,0,0,0,0,0,0,-5.937771,-5.937771,5.939093,1.293387,0.000000,0.000000,4.788796,6.320316,4.191160,6.951846
7.60,0,0,0,0,0,0,1,0,0,0,-5.862970,-5.862970,5.863160,0.774483,0.000000,0.000000,4.799294,6.360557,4.154216,6.956009
7.61,0,0,0,0,0,0,0,0,0,0,-5.737406,-5.737406,5.735441,0.849518,0.000000,0.000000,4.812618,6.354672,4.157385,6.975630
7.62,0,0,0,0,0,0,0,1,0,0,-5.876079,-5.876079,5.874414,2.061211,0.000000,0.000000,4.773667,6.422479,4.174225,6.965813
7.63,1,0,0,0,0,0,0,0,0,0,-6.103720,-1.632692,6.103354,3.536232,0.000000,4.471028,4.766594,6.514187,4.210941,6.953057
7.64,1,0,0,0,0,0,0,0,0,0,-6.196855,-1.756520,6.197038,3.737049,0.000000,4.440335,4.790589,6.498437,4.091124,6.935450
7.65,1,0,0,0,0,0,0,0,0,0,-6.080556,-1.714705,6.080617,2.224730,0.000000,4.365851,4.789774,6.491383,3.928692,6.956822
7.66,1,0,0,0,0,0,0,0,0,0,-5.888965,-1.495205,5.887933,0.324892,0.000000,4.393759,4.785313,6.399534,4.003175,6.982999
7.67,1,0,0,0,0,0,0,0,0,0,-5.866044,-1.448387,5.866335,-0.660166,0.000000,4.417657,4.754955,6.364112,4.076704,7.018278
7.68,1,0,0,0,0,0,0,0,0,0,-5.905273,-1.473779,5.905470,-0.815016,0.000000,4.431494,4.766593,6.352399,4.095198,7.033780
7.69,1,0,0,0,0,0,0,0,0,0,-5.892036,-1.438304,5.892952,-0.702627,0.000000,4.453732,4.769532,6.297335,4.134840,7.013694
7.70,1,0,0,0,0,0,0,0,0,0,-5.872387,-1.399197,5.873054,-1.009988,0.000000,4.473190,4.752220,6.219660,4.193695,7.004504
7.71,1,0,0,0,0,0,0,0,0,0,-5.854473,-1.366698,5.855269,-1.573260,0.000000,4.487774,4.767174,6.193878,4.227043,6.989966
7.72,1,0,0,0,0,0,0,0,0,0,-5.748353,-1.129783,5.747985,-2.403614,0.000000,4.618570,4.767177,6.099949,4.541384,7.016985
7.73,1,0,0,0,0,0,0,0,0,0,-5.684513,-1.058532,5.684398,-2.750249,0.000000,4.625981,4.769065,5.989665,4.511792,7.006537
7.74,1,0,0,0,1,0,0,0,0,0,-5.650977,-1.060374,5.650003,-2.736436,0.000000,4.590602,4.785821,5.894712,4.395500,6.989106
7.75,1,1,0,0,0,0,0,0,0,0,7.138508,-1.191269,5.708205,-2.229893,12.846116,4.516339,4.765248,5.839311,4.265615,7.006163
7.76,1,1,0,0,0,0,0,0,0,0,7.128629,-1.235012,5.688137,-1.964088,12.817010,4.453369,4.743868,5.812684,4.145553,7.002790
7.77,1,1,0,0,0,0,0,0,0,0,7.153021,-1.231581,5.662553,-1.919086,12.815462,4.430860,4.741698,5.807061,4.116072,7.009874
7.78,1,1,0,0,0,0,0,0,0,0,7.158199,-1.214294,5.646919,-2.128387,12.804368,4.431875,4.760351,5.797226,4.112725,7.009401
7.79,1,1,0,1,0,1,0,0,0,0,7.183909,-1.164950,5.598278,-2.220449,12.781510,4.432652,4.768403,5.782884,4.096542,6.998488
7.80,1,1,0,0,0,0,0,0,0,0,7.239744,-1.154763,5.585745,-2.600757,12.824343,4.429837,4.758626,5.800533,4.100717,7.022790
7.81,1,1,0,0,0,0,0,0,0,0,7.278017,-1.188436,5.551141,-3.285564,12.828573,4.362121,4.662483,5.812201,4.060533,7.016820
7.82,1,1,0,0,0,0,0,0,0,0,7.498765,-1.050198,5.370941,-3.785159,12.870618,4.321655,4.496768,5.822951,4.147454,7.046779
7.83,1,1,0,0,0,0,0,0,0,0,7.618023,-1.034942,5.318834,-3.277015,12.937315,4.284350,4.318401,5.833358,4.241175,7.103904
7.84,1,1,0,0,0,0,0,0,0,0,,,,,,,,,,
