"Time","56 FLl Sw of","55 FLl Sw on","54 HLr Sw of","53 HLr Sw on","52 HLl Sw of","66 rm dwn st","65 rm dwn sw","64 rmp up st","63 rmp up sw","62 Ramp down","61 Ramp up","50 Sinus rmp","49 St rmp dw","48 Sw rmp dw","47 St rmp up","46 Sw rmp up","45 sw offset","44 sw onset","43 Ramp down","42 Rump up","41 MTP (deg)","40 Ankle (de","39 Knee (deg","38 Hip (deg)","36 CoMx (cm)","59 Left DS","60 Right DS","v6 L Mos","37a CoMy (cm)","v4 R Mos","32 FLx (cm)","58 FLr Sw of","57 FLr Sw on","34 FRx (cm)","31 Keyboard","29 HRx (cm)","51 HLl Sw on","27 HLx (cm)","26 FLty (cm)","25 FLtx (cm)","24 toey (cm)","23 toex (cm)","22 MTPy (cm)","21 MTPx (cm)","20 anky (cm)","19 ankx (cm)","18 Knee y","17 Knee x","16 Hipy (cm)","15 Hipx (cm)","14 Cry (cm)","13 Crx (cm)","12 Synch","11 Gr","10 Gs","9 TA","8 St","7 VL","6 BF","5 Ip","4 GM","3 Platform","2 Trdml","1 Synch","v7 xCoM","v5 L COP","28 HLy (cm)","33 FLy (cm)","67 xCoM","v3 R COP","35 FRy (cm)","30 HRy (cm)","v2 Virtual","v1 Virtual","34a FRx (cm)","37b CoMy (cm)","37 CoMy (cm)","32a FLx (cm)","29a HRx (cm)","27a HLx (cm)"
0.000,0,0,0,0,0,0,0,0,0,0,0,0,0,0,0,0,0,0,0,0,134.485504,53.633163,72.131493,89.792038,15.190404,1,0,0.700944,-2.125781,6.076752,16.238882,0,0,17.498138,0,13.262940,0,12.437657,8.247733,17.516338,8.016171,13.200210,8.173388,12.523137,8.799688,12.112978,8.689116,13.698032,10.147118,13.344299,10.420905,14.503541,0,-0.01617,0.00308,-0.01991,-0.01330,0.00880,-0.01207,0.00446,0.00166,-1.47989,0.09920,3.27733,6.076784,6.777696,7.142326,6.413062,6.076784,0.000000,5.010966,4.624846,-0.552233,191.733826,17.498138,6.150893,-1.394643,16.238882,13.262940,12.372759
0.001,0,0,0,0,0,0,0,0,0,0,0,0,0,0,0,0,0,0,0,0,133.607803,53.884041,71.872391,90.235260,15.193064,1,0,0.705121,-1.952113,6.073016,16.225071,0,0,17.511778,0,13.254065,0,12.437657,8.248687,17.516378,8.019640,13.188475,8.173831,12.510368,8.803876,12.107811,8.687808,13.691653,10.146817,13.343910,10.422056,14.503417,0,-0.02385,0.01215,-0.01934,-0.01429,0.00875,-0.01046,0.00339,0.00259,-1.47966,0.09926,3.27756,6.073697,6.778136,7.143081,6.413128,6.073697,0.000000,5.011355,4.623280,-0.570890,191.586349,17.511778,6.148758,-1.412584,16.225071,13.254065,12.369073
0.002,0,0,0,0,0,0,0,0,0,0,0,0,0,0,0,0,0,0,0,0,132.730118,54.134922,71.613281,90.678482,15.195724,1,0,0.708904,-1.778445,6.069654,16.211262,0,0,17.525417,0,13.245189,0,12.437657,8.249641,17.516417,8.023108,13.176741,8.174275,12.497601,8.808063,12.102645,8.686501,13.685274,10.146516,13.343521,10.423208,14.503293,0,-0.01202,0.00364,-0.01974,-0.01378,0.00793,-0.01218,0.00566,0.00261,-1.47913,0.09896,3.27750,6.070610,6.778559,7.143836,6.413194,6.070610,0.000000,5.011744,4.621715,-0.589548,191.438858,17.525417,6.146625,-1.430525,16.211262,13.245189,12.365386
0.003,0,0,0,0,0,0,0,0,0,0,0,0,0,0,0,0,0,0,0,0,131.852417,54.385799,71.354179,91.121704,15.198383,1,0,0.711821,-1.604777,6.067122,16.197451,0,0,17.539059,0,13.236313,0,12.437657,8.250595,17.516457,8.026577,13.165006,8.174719,12.484832,8.812250,12.097478,8.685193,13.678895,10.146214,13.343132,10.424359,14.503168,0,-0.00040,0.01025,-0.01857,-0.01444,0.00878,-0.01340,0.00454,0.00274,-1.47897,0.09916,3.27644,6.067522,6.778944,7.144590,6.413260,6.067522,0.000000,5.012134,4.620149,-0.608205,191.291382,17.539059,6.144491,-1.448466,16.197451,13.236313,12.361700
0.004,0,0,0,0,0,0,0,0,0,0,0,0,0,0,0,0,0,0,0,0,130.997742,54.544174,70.997314,91.590439,15.202324,1,0,0.715051,-1.442749,6.064291,16.183128,0,0,17.551224,0,13.227513,0,12.437657,8.253152,17.519173,8.029724,13.152847,8.175895,12.473161,8.821507,12.092473,8.683909,13.671257,10.146150,13.342964,10.425948,14.503262,0,-0.02211,0.00622,-0.02310,-0.01300,0.00856,-0.02384,0.00504,0.00547,-1.47873,0.09945,3.27579,6.064277,6.779343,7.145199,6.413486,6.064277,0.000000,5.012543,4.618730,-0.626938,191.139618,17.551224,6.142201,-1.466456,16.183128,13.227513,12.358789
0.005,0,0,0,0,0,0,0,0,0,0,0,0,0,0,0,0,0,0,0,0,130.220169,54.392864,70.313164,92.144562,15.210548,1,0,0.718974,-1.319690,6.060799,16.167093,0,0,17.558455,0,13.218968,0,12.437657,8.261076,17.530846,8.031792,13.139266,8.179523,12.465164,8.847731,12.088007,8.682701,13.659405,10.146875,13.343534,10.428998,14.504081,0,-0.01071,-0.00034,-0.01907,-0.01354,0.00863,-0.01823,0.00495,0.00181,-1.47726,0.09937,3.27663,6.060503,6.779773,7.145319,6.414245,6.060503,0.000000,5.013020,4.617797,-0.645922,190.973526,17.558455,6.139392,-1.484608,16.167093,13.218968,12.358476
0.006,0,0,0,0,0,0,0,0,0,0,0,0,0,0,0,0,0,0,0,0,129.442596,54.241550,69.629013,92.698685,15.218773,1,0,0.723065,-1.196632,6.057144,16.151058,0,0,17.565683,0,13.210423,0,12.437657,8.269001,17.542521,8.033859,13.125686,8.183150,12.457167,8.873956,12.083540,8.681493,13.647552,10.147600,13.344106,10.432048,14.504901,0,-0.02200,0.00963,-0.01940,-0.01435,0.00876,-0.01172,0.00553,0.00327,-1.47820,0.09899,3.27732,6.056729,6.780210,7.145441,6.415003,6.056729,0.000000,5.013496,4.616866,-0.664907,190.807419,17.565683,6.136582,-1.502761,16.151058,13.210423,12.358162
0.007,0,0,0,0,0,0,0,0,0,0,0,0,0,0,0,0,0,0,0,0,128.665024,54.090240,68.944855,93.252815,15.226997,1,0,0.727528,-1.073573,6.053129,16.135023,0,0,17.572914,0,13.201879,0,12.437657,8.276925,17.554193,8.035927,13.112105,8.186778,12.449170,8.900181,12.079074,8.680285,13.635699,10.148326,13.344676,10.435098,14.505720,0,-0.01125,0.00492,-0.02128,-0.01237,0.00927,-0.01233,0.00594,-0.00126,-1.47842,0.09938,3.27747,6.052955,6.780657,7.145561,6.415761,6.052955,0.000000,5.013972,4.615934,-0.683891,190.641327,17.572914,6.133773,-1.520914,16.135023,13.201879,12.357848
0.008,0,0,0,0,0,0,0,0,0,0,0,0,0,0,0,0,0,0,0,0,127.929367,53.938210,68.296135,93.772774,15.231229,1,0,0.731734,-0.899743,6.049366,16.120657,0,0,17.581421,0,13.194153,0,12.437657,8.283921,17.564671,8.038257,13.095639,8.189910,12.440578,8.927901,12.073400,8.679083,13.624029,10.149228,13.344614,10.437990,14.505901,0,-0.01518,0.00512,-0.02079,-0.01314,0.00787,-0.01354,0.00464,0.00382,-1.47809,0.09942,3.27752,6.049669,6.781101,7.145835,6.416400,6.049669,0.000000,5.014308,4.614902,-0.701525,190.489365,17.581421,6.131385,-1.537802,16.120657,13.194153,12.356454
0.009,0,0,0,0,0,0,0,0,0,0,0,0,0,0,0,0,0,0,0,0,127.334084,53.783756,67.766029,94.178352,15.222093,1,0,0.735375,-0.555941,6.046162,16.111876,0,0,17.594198,0,13.189167,0,12.437657,8.287813,17.571135,8.041460,13.069513,8.191381,12.429995,8.960629,12.063682,8.677903,13.612973,10.150723,13.342435,10.440359,14.503946,0,-0.02433,-0.00538,-0.01894,-0.01488,0.00753,-0.01281,0.00454,0.00060,-1.47855,0.09914,3.27722,6.048020,6.781537,7.146623,6.416638,6.048020,0.000000,5.014175,4.613533,-0.714639,190.384750,17.594198,6.130408,-1.550460,16.111876,13.189167,12.351444
0.010,0,0,0,0,0,0,0,0,0,0,0,0,0,0,0,0,0,0,0,0,126.738792,53.629303,67.235916,94.583931,15.212955,1,0,0.738164,-0.212139,6.043853,16.103094,0,0,17.606976,0,13.184181,0,12.437657,8.291704,17.577600,8.044663,13.043388,8.192852,12.419412,8.993357,12.053964,8.676723,13.601916,10.152217,13.340256,10.442728,14.501991,0,-0.02104,0.00753,-0.01862,-0.01370,0.00807,-0.01283,0.00487,0.00245,-1.47825,0.09907,3.27701,6.046371,6.782017,7.147410,6.416876,6.046371,0.000000,5.014042,4.612164,-0.727753,190.280136,17.606976,6.129431,-1.563119,16.103094,13.184181,12.346434
0.011,0,0,0,0,0,0,0,0,0,0,0,0,0,0,0,0,0,0,0,0,126.143509,53.474850,66.705811,94.989517,15.203818,1,0,0.739075,0.131663,6.043519,16.094311,0,0,17.619753,0,13.179195,0,12.437657,8.295595,17.584064,8.047867,13.017262,8.194324,12.408828,9.026085,12.044246,8.675544,13.590860,10.153711,13.338077,10.445097,14.500036,0,-0.02046,0.00522,-0.01878,-0.01530,0.00883,-0.01261,0.00468,0.00289,-1.47733,0.09936,3.27716,6.044721,6.782594,7.148197,6.417114,6.044721,0.000000,5.013908,4.610795,-0.740866,190.175522,17.619753,6.128455,-1.575777,16.094311,13.179195,12.341424
0.012,0,0,0,0,0,0,0,0,0,0,0,0,0,0,0,0,0,0,0,0,125.622505,53.429913,66.255066,95.377747,15.194696,1,0,-0.319601,0.437111,6.044446,16.085052,0,0,17.632174,0,13.169922,0,12.437657,8.299571,17.592648,8.050200,12.994838,8.195075,12.399533,9.054200,12.036407,8.674614,13.581033,10.154783,13.336292,10.447317,14.497993,0,-0.01470,-0.00050,-0.02160,-0.01387,0.00831,-0.01153,0.00637,0.00201,-1.48018,0.09926,3.27722,6.044330,5.724845,7.149172,6.417304,6.044330,0.000000,5.013628,4.609488,-0.751406,190.065735,17.632174,6.128598,-1.585836,16.085052,13.169922,12.337448
0.013,0,0,0,0,0,0,0,0,0,0,0,0,0,0,0,0,0,0,0,0,125.350212,53.751614,66.070030,95.707886,15.185626,1,0,-3.714801,0.614157,6.048150,16.074196,0,0,17.643400,0,13.146291,1,12.437657,8.303827,17.608322,8.049621,12.984803,8.193419,12.394552,9.066876,12.034862,8.674521,13.575318,10.154442,13.335830,10.449039,14.495650,0,-0.01794,0.00554,-0.02055,-0.01387,0.00826,-0.01233,0.00408,0.00153,-1.47956,0.09895,3.27691,6.048153,2.333349,7.150777,6.417331,6.048153,0.000000,5.012856,4.608387,-0.753329,189.938629,17.643400,6.132493,-1.587196,16.074196,13.146291,12.336935
0.014,0,0,0,0,0,0,0,0,0,0,0,0,0,0,0,0,0,0,0,0,125.077919,54.073315,65.885002,96.038025,15.176556,0,0,-6.051926,0.791203,6.051926,16.063337,0,0,17.654627,0,13.122660,0,12.437657,8.308084,17.623995,8.049042,12.974768,8.191761,12.389572,9.079554,12.033317,8.674429,13.569604,10.154101,13.335366,10.450760,14.493308,0,-0.01104,0.01171,-0.02153,-0.01349,0.00837,-0.02036,0.00491,0.00242,-1.47805,0.09902,3.27672,6.051976,0.000000,7.152382,6.417358,6.051976,0.000000,5.012084,4.607285,-0.755252,189.811539,17.654627,6.136389,-1.588556,16.063337,13.122660,12.336422
0.015,0,0,0,0,0,0,0,0,0,0,0,0,0,0,0,0,0,0,0,0,124.805618,54.395016,65.699966,96.368164,15.167485,0,0,-6.055857,0.968248,6.055857,16.052481,0,0,17.665854,0,13.099029,0,12.437657,8.312342,17.639669,8.048463,12.964733,8.190104,12.384591,9.092230,12.031771,8.674336,13.563890,10.153760,13.334903,10.452480,14.490965,0,-0.02469,0.01040,-0.02236,-0.01396,0.00917,-0.01778,0.00562,0.00242,-1.47776,0.09917,3.27695,6.055799,0.000000,7.153987,6.417386,6.055799,0.000000,5.011312,4.606184,-0.757176,189.684433,17.665854,6.140285,-1.589916,16.052481,13.099029,12.335909
0.016,0,0,0,0,0,0,0,0,0,0,0,0,0,0,0,0,0,0,0,0,124.503357,54.699780,65.498322,96.702271,15.159339,0,0,-6.058721,1.111082,6.058721,16.042482,0,0,17.676508,0,13.076382,0,12.437657,8.316634,17.652981,8.047520,12.955042,8.191533,12.375541,9.104050,12.029686,8.674275,13.557410,10.153870,13.334120,10.454360,14.488728,0,-0.01241,0.00185,-0.01990,-0.01310,0.00815,-0.01246,0.00521,0.00321,-1.47815,0.09906,3.27713,6.058863,0.000000,7.155363,6.417280,6.058863,0.000000,5.010454,4.605107,-0.756596,189.567596,17.676508,6.143290,-1.588818,16.042482,13.076382,12.335838
0.017,0,0,0,0,0,0,0,0,0,0,0,0,0,0,0,0,0,0,0,0,124.100769,54.947849,65.241035,97.049667,15.154289,0,0,-6.059230,1.139382,6.059230,16.035360,0,0,17.685251,0,13.057030,0,12.437657,8.321044,17.658392,8.045354,12.946498,8.203295,12.352865,9.113001,12.025796,8.674321,13.548369,10.155489,13.332266,10.456771,14.486839,0,-0.01323,-0.00152,-0.01923,-0.01490,0.00842,-0.01186,0.00558,0.00470,-1.47741,0.09882,3.27713,6.059384,0.000000,7.155971,6.416729,6.059384,0.000000,5.009311,4.604114,-0.747639,189.485123,17.685251,6.143315,-1.579491,16.035360,13.057030,12.337247
0.018,0,0,0,0,0,0,0,0,0,0,0,0,0,0,0,0,0,0,0,0,123.698174,55.195919,64.983757,97.397072,15.149239,0,0,-6.059743,1.167682,6.059743,16.028238,0,0,17.693993,0,13.037679,0,12.437657,8.325455,17.663801,8.043188,12.937955,8.215056,12.330190,9.121952,12.021905,8.674367,13.539328,10.157107,13.330413,10.459181,14.484951,0,-0.01356,0.00733,-0.01990,-0.01324,0.00866,-0.01262,0.00589,-0.00471,-1.47623,0.09890,3.27713,6.059905,0.000000,7.156580,6.416179,6.059905,0.000000,5.008168,4.603120,-0.738681,189.402634,17.693993,6.143341,-1.570164,16.028238,13.037679,12.338655
0.019,0,0,0,0,0,0,0,0,0,0,0,0,0,0,0,0,0,0,0,0,123.295586,55.443993,64.726471,97.744469,15.144189,0,0,-6.060266,1.195982,6.060266,16.021116,0,0,17.702736,0,13.018327,0,12.437657,8.329865,17.669212,8.041022,12.929411,8.226818,12.307514,9.130903,12.018015,8.674413,13.530286,10.158727,13.328559,10.461591,14.483063,0,-0.01799,0.00371,-0.02136,-0.01359,0.00941,-0.01100,0.00554,0.00258,-1.47691,0.09908,3.27713,6.060426,0.000000,7.157188,6.415628,6.060426,0.000000,5.007025,4.602127,-0.729723,189.320160,17.702736,6.143366,-1.560837,16.021116,13.018327,12.340065
0.020,0,0,0,0,0,0,0,0,0,0,0,0,0,0,0,0,0,0,0,0,122.914787,55.630447,64.486801,98.063606,15.139735,0,0,-6.061991,1.184593,6.061991,16.012861,0,0,17.711649,0,13.001890,0,12.437657,8.333702,17.674368,8.039500,12.920254,8.235499,12.288087,9.142291,12.013782,8.674157,13.521357,10.160075,13.326528,10.463837,14.480715,0,-0.01461,0.00289,-0.02246,-0.01333,0.00791,-0.01279,0.00532,0.00274,-1.47198,0.09898,3.27716,6.061887,0.000000,7.157189,6.415087,6.061887,0.000000,5.005701,4.601248,-0.719064,189.225952,17.711649,6.144238,-1.549749,16.012861,13.001890,12.342816
0.021,0,0,0,0,0,0,0,0,0,0,0,0,0,0,0,0,0,0,0,0,122.606956,55.610630,64.306084,98.288101,15.137282,0,0,-6.066366,1.040332,6.066366,16.000811,0,0,17.721136,0,12.995208,0,12.437657,8.335618,17.678671,8.040134,12.909043,8.233868,12.279534,9.161835,12.008402,8.672892,13.512800,10.160518,13.323899,10.465534,14.476828,0,-0.02427,0.00659,-0.02123,-0.01367,0.00882,-0.01241,0.00495,0.00228,-1.47229,0.09862,3.27732,6.066492,0.000000,7.155156,6.414577,6.066492,0.000000,5.003774,4.600753,-0.702709,189.092499,17.721136,6.147941,-1.532769,16.000811,12.995208,12.350063
0.022,0,0,0,0,0,0,0,0,0,0,0,0,0,0,0,0,0,0,0,0,122.299133,55.590816,64.125374,98.512596,15.134830,0,0,-6.070877,0.896071,6.070877,15.988761,0,0,17.730625,0,12.988526,0,12.437657,8.337535,17.682974,8.040769,12.897832,8.232236,12.270981,9.181379,12.003021,8.671626,13.504245,10.160961,13.321271,10.467232,14.472940,0,-0.02008,-0.00308,-0.01900,-0.01209,0.00763,-0.01236,0.00601,0.00273,-1.47130,0.09883,3.27744,6.071097,0.000000,7.153123,6.414068,6.071097,0.000000,5.001846,4.600257,-0.686354,188.959045,17.730625,6.151644,-1.515788,15.988761,12.988526,12.357310
0.023,0,0,0,0,0,0,0,0,0,0,0,0,0,0,0,0,0,0,0,0,121.991302,55.570999,63.944656,98.737099,15.132377,0,0,-6.075686,0.751811,6.075686,15.976711,0,0,17.740112,0,12.981844,0,12.437657,8.339451,17.687277,8.041403,12.886621,8.230604,12.262428,9.200924,11.997641,8.670361,13.495688,10.161404,13.318643,10.468929,14.469053,0,-0.02904,0.01711,-0.01901,-0.01318,0.00751,-0.01357,0.00588,0.00687,-1.46946,0.09914,3.27744,6.075703,0.000000,7.151090,6.413559,6.075703,0.000000,4.999919,4.599761,-0.669998,188.825592,17.740112,6.155346,-1.498808,15.976711,12.981844,12.364558
0.024,0,0,0,0,0,0,0,0,0,0,0,0,0,0,0,0,0,0,0,0,121.594093,55.824162,63.791634,98.913635,15.129287,0,0,-6.079333,0.587065,6.079333,15.964644,0,0,17.749216,0,12.974689,0,12.437657,8.341172,17.690592,8.041780,12.875833,8.229513,12.253972,9.215396,11.992353,8.669223,13.488341,10.161438,13.316260,10.470559,14.465152,0,-0.01179,0.00069,-0.01968,-0.01416,0.00815,-0.01226,0.00522,-0.00060,-1.46726,0.09899,3.27738,6.079256,0.000000,7.149195,6.412930,6.079256,0.000000,4.997878,4.599226,-0.652435,188.691315,17.749216,6.157933,-1.480618,15.964644,12.974667,12.373253
0.025,0,0,0,0,0,0,0,0,0,0,0,0,0,0,0,0,0,0,0,0,120.897644,56.991203,63.731308,98.929604,15.124063,0,0,-6.080418,0.353737,6.080418,15.952519,0,0,17.757040,0,12.965947,0,12.437657,8.342241,17.690601,8.041302,12.866459,8.230235,12.245843,9.212888,11.987376,8.668511,13.485041,10.160101,13.314703,10.471963,14.461205,0,-0.01907,0.00055,-0.02028,-0.01277,0.00825,-0.02218,0.00499,0.00471,-1.46193,0.09878,3.27716,6.079287,0.000000,7.147764,6.411901,6.079287,0.000000,4.995454,4.598556,-0.630825,188.554276,17.757040,6.156783,-1.458380,15.952519,12.965829,12.386796
0.026,0,0,0,0,0,0,0,0,0,0,0,0,0,0,0,0,0,0,0,0,120.201202,58.158245,63.670982,98.945580,15.118840,0,0,-6.080894,0.120410,6.080894,15.940394,0,0,17.764864,0,12.957206,0,12.437657,8.343311,17.690611,8.040822,12.857084,8.230958,12.237713,9.210380,11.982399,8.667801,13.481740,10.158765,13.313146,10.473366,14.457256,0,-0.01835,0.00539,-0.01998,-0.01417,0.00935,-0.01903,0.00454,-0.00135,-1.45635,0.09917,3.27699,6.079319,0.000000,7.146334,6.410873,6.079319,0.000000,4.993031,4.597887,-0.609216,188.417221,17.764864,6.155632,-1.436141,15.940394,12.956992,12.400339
0.027,0,0,0,0,0,0,0,0,0,0,1,0,0,0,0,0,0,0,0,1,119.504753,59.325287,63.610661,98.961548,15.113617,0,0,-6.080025,-0.112917,6.080025,15.928269,0,0,17.772688,0,12.948465,0,12.437657,8.344380,17.690620,8.040342,12.847711,8.231680,12.229584,9.207871,11.977422,8.667090,13.478439,10.157429,13.311588,10.474770,14.453309,0,-0.01581,0.00202,-0.02019,-0.01301,0.00698,-0.01221,0.00431,0.00349,-1.45216,0.09926,3.27707,6.079350,0.000000,7.144903,6.409844,6.079350,0.000000,4.990607,4.597217,-0.587606,188.280182,17.772688,6.154481,-1.413903,15.928269,12.948154,12.413882
0.028,0,0,0,0,0,0,0,0,0,0,0,0,0,0,0,0,0,0,0,0,118.780846,60.484192,63.501888,98.969704,15.108726,0,0,-6.079396,-0.328659,6.079396,15.914041,0,0,17.779247,0,12.941712,0,12.444905,8.343345,17.690781,8.039525,12.837443,8.236640,12.213408,9.205877,11.973104,8.666782,13.475303,10.156378,13.309205,10.475894,14.448806,0,-0.01553,0.00311,-0.01979,-0.01445,0.00862,-0.01292,0.00485,0.00122,-1.44819,0.09890,3.27713,6.079374,0.000000,7.143491,6.408687,6.079374,0.000000,4.988062,4.596688,-0.566517,188.120590,17.779247,6.153346,-1.392076,15.914041,12.941372,12.432326
0.029,0,0,0,0,0,0,0,0,0,0,0,0,0,0,0,0,0,0,0,0,117.964996,61.615868,63.230938,98.951675,15.104945,0,0,-6.079294,-0.485529,6.079294,15.892768,0,0,17.781572,0,12.941616,0,12.476418,8.335259,17.691446,8.037576,12.824185,8.255788,12.170297,9.205606,11.970992,8.667824,13.472714,10.156281,13.304057,10.476087,14.442439,0,-0.01564,0.00244,-0.02004,-0.01227,0.00878,-0.01180,0.00413,0.00244,-1.44211,0.09892,3.27713,6.079375,0.000000,7.142141,6.407098,6.079375,0.000000,4.985110,4.596631,-0.547171,187.885544,17.781572,6.152261,-1.371626,15.892768,12.941468,12.467175
0.030,0,0,0,0,0,0,0,0,0,0,0,0,0,0,0,0,0,0,0,0,117.149139,62.747543,62.959984,98.933655,15.101164,0,0,-6.079252,-0.642398,6.079252,15.871495,0,0,17.783897,0,12.941520,0,12.507930,8.327175,17.692110,8.035626,12.810928,8.274936,12.127186,9.205334,11.968880,8.668866,13.470126,10.156183,13.298909,10.476279,14.436073,0,-0.01937,0.00374,-0.02052,-0.01389,0.00782,-0.01212,0.00499,0.00259,-1.43535,0.09923,3.27713,6.079377,0.000000,7.140791,6.405509,6.079377,0.000000,4.982159,4.596574,-0.527826,187.650497,17.783897,6.151176,-1.351177,15.871495,12.941565,12.502025
0.031,0,0,0,0,0,0,0,0,0,0,0,0,0,0,0,0,0,0,0,0,116.333290,63.879219,62.689030,98.915634,15.097383,0,0,-6.079344,-0.799268,6.079344,15.850223,0,0,17.786222,0,12.941424,0,12.539443,8.319090,17.692776,8.033677,12.797670,8.294084,12.084074,9.205062,11.966767,8.669908,13.467538,10.156086,13.293761,10.476472,14.429708,0,-0.01588,0.00845,-0.02062,-0.01382,0.00861,-0.01286,0.00443,0.00242,-1.42219,0.09908,3.27713,6.079379,0.000000,7.139441,6.403920,6.079379,0.000000,4.979207,4.596518,-0.508480,187.415451,17.786222,6.150091,-1.330728,15.850223,12.941660,12.536874
0.032,0,0,0,0,0,0,0,0,0,0,0,0,0,0,0,0,0,0,0,0,115.633141,64.752510,62.434803,98.889839,15.092963,0,0,-6.079140,-0.975188,6.079140,15.831355,0,0,17.788908,0,12.938601,0,12.583361,8.313154,17.695616,8.031771,12.784280,8.308074,12.050716,9.208027,11.965401,8.671478,13.465302,10.156426,13.289074,10.477299,14.423535,0,-0.02208,0.00185,-0.02005,-0.01402,0.00874,-0.01245,0.00377,0.00317,-1.41509,0.09885,3.27703,6.079123,0.000000,7.138152,6.402225,6.079123,0.000000,4.976136,4.596380,-0.490984,187.205917,17.788908,6.148854,-1.312253,15.831355,12.938964,12.583361
0.033,0,0,0,0,0,0,0,0,0,0,0,0,0,0,0,0,0,0,0,0,115.320320,64.760765,62.236565,98.838043,15.086405,0,0,-6.078283,-1.214885,6.078283,15.820539,0,0,17.792803,0,12.926652,0,12.668809,8.314414,17.705746,8.030007,12.770444,8.304798,12.050014,9.221827,11.966529,8.674821,13.464242,10.158232,13.285928,10.480249,14.418014,0,-0.01774,0.00582,-0.02089,-0.01385,0.00771,-0.01342,0.00482,0.00214,-1.40707,0.09911,3.27657,6.078009,0.000000,7.137065,6.400172,6.078009,0.000000,4.972667,4.595973,-0.479679,187.081757,17.792803,6.147110,-1.300388,15.820539,12.926918,12.668809
0.034,0,0,0,0,0,0,0,0,0,0,0,0,0,0,0,0,0,0,0,0,115.007500,64.769012,62.038330,98.786240,15.079846,0,0,-6.077277,-1.454583,6.077277,15.809723,0,0,17.796698,0,12.914702,0,12.754258,8.315673,17.715876,8.028245,12.756608,8.301523,12.049311,9.235627,11.967658,8.678163,13.463183,10.160038,13.282782,10.483201,14.412492,0,-0.01570,0.00483,-0.02000,-0.01242,0.00822,-0.01286,0.00538,0.00291,-1.39705,0.09926,3.27638,6.076895,0.000000,7.135979,6.398119,6.076895,0.000000,4.969198,4.595566,-0.468375,186.957611,17.796698,6.145364,-1.288522,15.809723,12.914872,12.754258
0.035,0,0,0,0,0,0,0,0,0,0,0,0,0,0,0,0,0,0,0,0,114.694679,64.777267,61.840092,98.734444,15.073287,0,0,-6.075943,-1.694281,6.075943,15.798906,0,0,17.800592,0,12.902752,0,12.839706,8.316933,17.726006,8.026482,12.742771,8.298247,12.048608,9.249427,11.968786,8.681505,13.462124,10.161843,13.279635,10.486152,14.406969,0,-0.01946,0.00316,-0.02084,-0.01425,0.00859,-0.01210,0.00471,0.00123,-1.38976,0.09915,3.27715,6.075780,0.000000,7.134892,6.396067,6.075780,0.000000,4.965729,4.595160,-0.457071,186.833466,17.800592,6.143620,-1.276657,15.798906,12.902826,12.839706
0.036,0,0,0,0,0,0,0,0,0,0,0,0,0,0,0,0,0,0,0,0,114.308899,64.755615,61.625763,98.666130,15.068302,0,0,-6.074659,-1.932904,6.074659,15.787898,0,0,17.807163,0,12.892896,0,12.920815,8.318216,17.737982,8.025023,12.729035,8.292496,12.047853,9.260021,11.969519,8.684752,13.460662,10.164168,13.275969,10.489050,14.401584,0,-0.01695,0.00540,-0.02039,-0.01394,0.00913,-0.01156,0.00594,0.00185,-1.38268,0.09919,3.27774,6.074586,0.000000,7.133731,6.394124,6.074586,0.000000,4.962159,4.594836,-0.451590,186.708801,17.807163,6.142104,-1.270605,15.787898,12.892896,12.920815
0.037,0,0,0,0,0,0,0,0,0,0,0,0,0,0,0,0,0,0,0,0,113.678841,64.633827,61.357548,98.542534,15.068584,0,0,-6.073484,-2.167933,6.073484,15.776248,0,0,17.822691,0,12.890049,0,12.987390,8.319580,17.756147,8.024585,12.715633,8.278456,12.046918,9.259884,11.968925,8.687683,13.457852,10.168231,13.270558,10.491772,14.396656,0,-0.02037,0.00302,-0.02037,-0.01371,0.00774,-0.01175,0.00450,0.00156,-1.36984,0.09944,3.27774,6.073128,0.000000,7.132318,6.392549,6.073128,0.000000,4.958254,4.594792,-0.465607,186.582428,17.822691,6.141358,-1.284017,15.776248,12.890049,12.987390
0.038,0,0,0,0,0,0,0,0,0,0,0,0,0,0,0,0,0,0,0,0,113.048782,64.512047,61.089333,98.418945,15.068868,0,0,-6.072147,-2.402961,6.072147,15.764598,0,0,17.838217,0,12.887201,0,13.053965,8.320944,17.774313,8.024146,12.702230,8.264416,12.045983,9.259746,11.968332,8.690615,13.455042,10.172294,13.265148,10.494493,14.391727,0,-0.01604,0.00102,-0.02053,-0.01250,0.00714,0.00362,0.00526,0.00334,-1.35275,0.09953,3.27766,6.071670,0.000000,7.130905,6.390974,6.071670,0.000000,4.954349,4.594748,-0.479623,186.456055,17.838217,6.140613,-1.297429,15.764598,12.887201,13.053965
0.039,0,0,0,0,0,0,0,0,0,0,0,0,0,0,0,0,0,0,0,0,112.418724,64.390259,60.821117,98.295349,15.069150,0,0,-6.070448,-2.637990,6.070448,15.752948,0,0,17.853745,0,12.884355,0,13.120540,8.322308,17.792479,8.023707,12.688828,8.250376,12.045049,9.259608,11.967739,8.693545,13.452232,10.176357,13.259737,10.497214,14.386799,0,-0.02114,0.00128,-0.02059,-0.01245,0.00923,-0.01716,0.00535,0.00475,-1.34081,0.09942,3.27727,6.070211,0.000000,7.129492,6.389399,6.070211,0.000000,4.950444,4.594703,-0.493640,186.329681,17.853745,6.139866,-1.310841,15.752948,12.884355,13.120540
0.040,0,0,0,0,0,0,0,0,0,0,0,0,0,0,0,0,0,0,0,0,111.845863,64.245773,60.553940,98.174149,15.070474,0,0,-6.068247,-2.882181,6.068247,15.742408,0,0,17.870127,0,12.877075,0,13.190282,8.325157,17.810217,8.022752,12.677846,8.237270,12.044827,9.262427,11.966730,8.696277,13.449638,10.179752,13.254432,10.499832,14.382122,0,-0.01509,0.00170,-0.01989,-0.01333,0.00852,-0.01164,0.00543,0.00156,-1.32990,0.09963,3.27696,6.067973,0.000000,7.127905,6.388117,6.067973,0.000000,4.946521,4.594816,-0.514855,186.216415,17.870127,6.138726,-1.331510,15.742408,12.877075,13.190282
0.041,0,0,0,0,0,0,0,0,0,0,0,0,0,0,0,0,0,0,0,0,111.464493,64.025284,60.290237,98.060959,15.075281,0,0,-6.064936,-3.157048,6.064936,15.735580,0,0,17.889370,0,12.854960,0,13.270627,8.332983,17.826532,8.020065,12.674963,8.227296,12.046992,9.275146,11.964329,8.698336,13.447769,10.180915,13.249477,10.502107,14.378284,0,-0.02086,-0.00057,-0.02021,-0.01372,0.00922,-0.01331,0.00334,0.00109,-1.31722,0.10003,3.27688,6.063122,0.000000,7.125734,6.387819,6.063122,0.000000,4.942542,4.595455,-0.560169,186.147003,17.889370,6.136265,-1.376469,15.735580,12.854960,13.270627
0.042,0,0,0,0,0,0,0,0,0,0,0,0,0,0,0,0,0,0,0,0,111.083115,63.804790,60.026531,97.947777,15.080090,0,0,-6.060738,-3.431915,6.060738,15.728754,0,0,17.908615,0,12.832845,0,13.350972,8.340809,17.842848,8.017379,12.672080,8.217321,12.049158,9.287865,11.961928,8.700396,13.445900,10.182077,13.244523,10.504380,14.374448,0,-0.02067,0.00750,-0.02057,-0.01288,0.00868,-0.01292,0.00552,0.00170,-1.30761,0.09993,3.27688,6.058272,0.000000,7.123563,6.387521,6.058272,0.000000,4.938562,4.596095,-0.605482,186.077591,17.908615,6.133804,-1.421429,15.728754,12.832845,13.350972
0.043,0,0,0,0,0,0,0,0,0,0,0,0,0,0,0,0,0,0,0,0,110.701744,63.584301,59.762829,97.834587,15.084897,0,0,-6.054584,-3.706782,6.054584,15.721928,0,0,17.927860,0,12.810730,0,13.431317,8.348635,17.859163,8.014692,12.669197,8.207347,12.051324,9.300583,11.959527,8.702455,13.444030,10.183240,13.239569,10.506654,14.370611,0,-0.01658,0.00354,-0.02078,-0.01429,0.00854,-0.01266,0.00460,0.00183,-1.29627,0.09984,3.27710,6.053422,0.000000,7.121393,6.387223,6.053422,0.000000,4.934582,4.596734,-0.650796,186.008179,17.927860,6.131343,-1.466389,15.721928,12.810730,13.431317
0.044,0,0,0,0,0,0,0,0,0,0,0,0,0,0,0,0,0,0,0,0,110.381416,63.414661,59.557064,97.742653,15.088584,0,0,-6.047317,-3.945820,6.047317,15.715454,0,0,17.945892,0,12.793462,0,13.509008,8.354752,17.873644,8.013408,12.664944,8.198382,12.053642,9.310534,11.958233,8.704677,13.443159,10.184714,13.235314,10.508941,14.366626,0,-0.01718,0.01000,-0.02003,-0.01384,0.00889,-0.01282,0.00608,0.00109,-1.26765,0.10025,3.27733,6.047222,0.000000,7.119164,6.386930,6.047222,0.000000,4.930597,4.597411,-0.702596,185.941483,17.945892,6.127877,-1.517853,15.715454,12.793462,13.509008
0.045,0,0,0,0,0,0,0,0,0,0,0,0,0,0,0,0,0,0,0,0,110.265434,63.415257,59.545273,97.721848,15.088519,0,0,-6.037594,-4.064910,6.037594,15.710164,0,0,17.959862,0,12.792418,0,13.577814,8.355151,17.881987,8.016814,12.656101,8.192798,12.056470,9.311223,11.960640,8.707443,13.445629,10.187234,13.233405,10.511273,14.362142,0,-0.02286,0.01379,-0.02022,-0.01225,0.00686,-0.01218,0.00535,0.00247,-1.25453,0.10043,3.27756,6.036499,0.000000,7.116745,6.386654,6.036499,0.000000,4.926590,4.598217,-0.776110,185.883911,17.959862,6.121046,-1.591092,15.710164,12.792418,13.577814
0.046,0,0,0,0,0,0,0,0,0,0,0,0,0,0,0,0,0,0,0,0,110.149452,63.415852,59.533482,97.701050,15.088453,0,0,-6.027293,-4.184000,6.027293,15.704875,0,0,17.973833,0,12.791376,0,13.646620,8.355551,17.890327,8.020221,12.647260,8.187212,12.059299,9.311912,11.963048,8.710210,13.448099,10.189754,13.231496,10.513605,14.357657,0,-0.01906,0.00533,-0.02051,-0.01629,0.00928,-0.02303,0.00421,0.00198,-1.23738,0.10045,3.27755,6.025775,0.000000,7.114325,6.386378,6.025775,0.000000,4.922584,4.599022,-0.849623,185.826340,17.973833,6.114215,-1.664331,15.704875,12.791376,13.646620
0.047,0,0,0,0,0,0,0,0,0,0,0,0,0,0,0,0,0,0,0,0,110.033470,63.416447,59.521690,97.680244,15.088388,0,0,-6.015718,-4.303090,6.015718,15.699585,0,0,17.987803,0,12.790334,0,13.715425,8.355950,17.898670,8.023627,12.638418,8.181627,12.062126,9.312599,11.965455,8.712976,13.450570,10.192274,13.229587,10.515938,14.353173,0,-0.02047,-0.00157,-0.02012,-0.01386,0.01000,-0.01788,0.00428,0.00227,-1.22596,0.10087,3.27672,6.015053,0.000000,7.111905,6.386103,6.015053,0.000000,4.918578,4.599827,-0.923137,185.768768,17.987803,6.107384,-1.737571,15.699585,12.790334,13.715425
0.048,0,0,0,0,0,0,0,0,0,0,0,0,0,0,0,0,0,0,0,0,110.012581,63.495083,59.510799,97.683228,15.090084,0,0,-6.004184,-4.379855,6.004184,15.693115,0,0,18.000683,0,12.786187,0,13.784777,8.357349,17.909040,8.026484,12.629411,8.177264,12.064235,9.314732,11.968093,8.715280,13.452696,10.194597,13.227592,10.518055,14.348394,0,-0.01735,0.00566,-0.02068,-0.01306,0.00913,-0.01196,0.00380,0.00183,-1.21294,0.10115,3.27613,6.004189,0.000000,7.109403,6.385920,6.004189,0.000000,4.914517,4.600647,-1.003152,185.688278,18.000683,6.100751,-1.817193,15.692025,12.786187,13.784777
0.049,0,0,0,0,0,0,0,0,0,0,0,0,0,0,0,0,0,0,0,0,110.310043,63.834999,59.502914,97.765808,15.097675,0,0,-5.992741,-4.314920,5.992741,15.682696,0,0,18.009909,0,12.771652,0,13.855952,8.362098,17.926203,8.027496,12.619848,8.176992,12.063937,9.321697,11.971500,8.716029,13.453669,10.196259,13.225316,10.519455,14.342625,0,-0.01606,0.00788,-0.01962,-0.01459,0.00770,-0.01292,0.00542,0.00259,-1.19780,0.10109,3.27643,5.992852,0.000000,7.106627,6.386050,5.992852,0.000000,4.910275,4.601515,-1.104933,185.531052,18.009909,6.094781,-1.918187,15.676865,12.771652,13.855952
0.050,0,0,0,0,0,0,0,0,0,0,0,0,0,0,0,0,0,0,0,0,110.607506,64.174911,59.495033,97.848389,15.105267,0,0,-5.981359,-4.249986,5.981359,15.672277,0,0,18.019135,0,12.757116,0,13.927129,8.366846,17.943363,8.028508,12.610287,8.176721,12.063640,9.328663,11.974908,8.716779,13.454642,10.197920,13.223041,10.520854,14.336855,0,-0.02057,0.00288,-0.02090,-0.01276,0.00920,-0.01182,0.00532,0.00302,-1.18015,0.10170,3.27660,5.981516,0.000000,7.103851,6.386180,5.981516,0.000000,4.906034,4.602383,-1.206713,185.373840,18.019135,6.088811,-2.019181,15.661705,12.757116,13.927129
0.051,0,0,0,0,0,0,0,0,0,0,0,0,0,0,0,0,0,0,0,0,110.904968,64.514824,59.487148,97.930969,15.112859,0,0,-5.970115,-4.185051,5.970115,15.661858,0,0,18.028360,0,12.742581,0,13.998304,8.371594,17.960526,8.029521,12.600724,8.176449,12.063342,9.335629,11.978315,8.717528,13.455615,10.199581,13.220764,10.522253,14.331085,0,-0.01752,0.01046,-0.01967,-0.01171,0.00941,-0.01198,0.00540,0.00227,-1.14843,0.10200,3.27630,5.970180,0.000000,7.101075,6.386310,5.970180,0.000000,4.901792,4.603251,-1.308494,185.216614,18.028360,6.082841,-2.120176,15.646544,12.742581,13.998304
0.052,0,0,0,0,0,0,0,0,0,0,0,0,0,0,0,0,0,0,0,0,111.217560,64.924759,59.483662,98.010910,15.118533,0,0,-5.958881,-4.055923,5.958881,15.653835,0,0,18.040783,0,12.728740,0,14.068257,8.376283,17.980448,8.030648,12.591632,8.179572,12.059983,9.340654,11.980986,8.718088,13.456563,10.200504,13.217999,10.523568,14.325635,0,-0.01442,0.00422,-0.02033,-0.01276,0.00817,-0.01254,0.00480,0.00275,-1.13495,0.10214,3.27615,5.959033,0.000000,7.098267,6.386539,5.959033,0.000000,4.897583,4.604167,-1.415215,185.086716,18.040783,6.077332,-2.226250,15.634074,12.728740,14.068257
0.053,0,0,0,0,0,0,0,0,0,0,0,0,0,0,0,0,0,0,0,0,111.580772,65.569099,59.494888,98.081993,15.117791,0,0,-5.947671,-3.711885,5.947671,15.653835,0,0,18.063915,0,12.717219,0,14.134116,8.380767,18.009609,8.032160,12.584112,8.194058,12.046373,9.339182,11.981191,8.718015,13.457423,10.198959,13.213599,10.524601,14.321252,0,-0.02104,0.00196,-0.02073,-0.01328,0.00774,-0.01118,0.00452,0.00289,-1.11667,0.10281,3.27653,5.948525,0.000000,7.095352,6.387099,5.948525,0.000000,4.893483,4.605242,-1.538476,185.048264,18.063915,6.073363,-2.349331,15.630606,12.717219,14.134116
0.054,0,0,0,0,0,0,0,0,0,0,0,0,0,0,0,0,0,0,0,0,111.943985,66.213440,59.506111,98.153069,15.117049,0,0,-5.936865,-3.367848,5.936865,15.653835,0,0,18.087046,0,12.705700,0,14.199974,8.385252,18.038773,8.033671,12.576591,8.208546,12.032763,9.337708,11.981396,8.717940,13.458284,10.197414,13.209199,10.525635,14.316869,0,-0.02030,0.00521,-0.02017,-0.01358,0.00801,-0.01175,0.00583,0.00411,-1.09977,0.10296,3.27688,5.938016,0.000000,7.092437,6.387660,5.938016,0.000000,4.889382,4.606318,-1.661738,185.009827,18.087046,6.069395,-2.472413,15.627138,12.705700,14.199974
0.055,0,0,0,0,0,0,0,0,0,0,0,0,0,0,0,0,0,0,0,0,112.307198,66.857780,59.517338,98.224152,15.116307,0,0,-5.926948,-3.023810,5.926948,15.653835,0,0,18.110178,0,12.694180,0,14.265833,8.389737,18.067934,8.035183,12.569071,8.223032,12.019154,9.336236,11.981601,8.717867,13.459146,10.195869,13.204800,10.526668,14.312486,0,-0.01766,0.00348,-0.02035,-0.01346,0.00771,-0.01321,0.00717,0.00049,-1.08140,0.10298,3.27710,5.927507,0.000000,7.089522,6.388221,5.927507,0.000000,4.885282,4.607393,-1.784999,184.971390,18.110178,6.065426,-2.595495,15.623671,12.694180,14.265833
0.056,0,0,0,0,0,0,0,0,0,0,0,0,0,0,0,0,0,0,0,0,112.613945,67.492348,59.547199,98.282181,15.117128,0,0,-5.917753,-2.628652,5.917753,15.653835,0,0,18.132324,0,12.681287,0,14.325363,8.393826,18.093904,8.036694,12.561902,8.237277,12.006263,9.335340,11.982080,8.718199,13.459898,10.194777,13.201503,10.527968,14.308436,0,-0.02019,0.00622,-0.02014,-0.01272,0.00770,0.00309,0.00538,0.00398,-1.06533,0.10335,3.27722,5.917722,0.000000,7.086859,6.388652,5.917722,0.000000,4.881187,4.608431,-1.908680,184.929611,18.132324,6.062203,-2.718972,15.619753,12.681287,14.325363
0.057,0,0,0,0,0,0,0,0,0,0,0,0,0,0,0,0,0,0,0,0,112.731644,68.094215,59.639450,98.296516,15.123184,0,0,-5.910150,-2.062356,5.910150,15.653835,0,0,18.151173,0,12.663797,0,14.363711,8.396585,18.109186,8.038200,12.555911,8.250710,11.995779,9.336378,11.983476,8.719892,13.460289,10.195199,13.201900,10.530165,14.305503,0,-0.00669,0.00701,-0.02017,-0.01591,0.00903,-0.01605,0.00574,0.00170,-1.04378,0.10345,3.27691,5.910360,0.000000,7.085039,6.388651,5.910360,0.000000,4.877110,4.609343,-2.033765,184.876678,18.151173,6.061473,-2.843776,15.614327,12.663797,14.363711
0.058,0,0,0,0,0,0,0,0,0,0,0,0,0,0,0,0,0,0,0,0,112.849342,68.696075,59.731705,98.310860,15.129240,0,0,-5.902687,-1.496060,5.902687,15.653835,0,0,18.170021,0,12.646308,0,14.402059,8.399346,18.124468,8.039707,12.549921,8.264144,11.985295,9.337415,11.984872,8.721584,13.460680,10.195621,13.202296,10.532362,14.302570,0,-0.01901,0.00555,-0.01970,-0.01277,0.01109,-0.01135,0.00402,0.00228,-1.00895,0.10347,3.27672,5.902999,0.000000,7.083220,6.388650,5.902999,0.000000,4.873032,4.610256,-2.158849,184.823761,18.170021,6.060743,-2.968579,15.608902,12.646308,14.402059
0.059,0,0,0,0,0,0,0,0,0,0,0,0,0,0,0,0,0,0,0,0,112.967041,69.297943,59.823956,98.325195,15.135296,0,0,-5.895535,-0.929763,5.895535,15.653835,0,0,18.188869,0,12.628819,0,14.440406,8.402106,18.139751,8.041214,12.543930,8.277577,11.974812,9.338452,11.986267,8.723277,13.461071,10.196043,13.202693,10.534558,14.299637,0,-0.01176,0.00326,-0.02050,-0.01278,0.00735,-0.01237,0.00403,0.00289,-0.98411,0.10381,3.27695,5.895637,0.000000,7.081400,6.388649,5.895637,0.000000,4.868954,4.611168,-2.283934,184.770828,18.188869,6.060013,-3.093382,15.603477,12.628819,14.440406
0.060,0,0,0,0,0,0,0,0,0,0,0,0,0,0,0,0,0,0,0,0,113.031273,69.934593,59.933315,98.332375,15.139678,0,0,-5.887985,-0.399476,5.887985,15.653835,0,0,18.206909,0,12.612752,0,14.477263,8.406403,18.157003,8.043092,12.537922,8.290138,11.964396,9.339508,11.987082,8.725249,13.461175,10.197083,13.203283,10.536177,14.296837,0,-0.02147,0.00349,-0.01974,-0.01572,0.00785,-0.01197,0.00517,0.00259,-0.97117,0.10368,3.27711,5.888197,0.000000,7.079532,6.388238,5.888197,0.000000,4.864925,4.612328,-2.404010,184.719711,18.206909,6.058940,-3.213193,15.598372,12.612752,14.477263
0.061,0,0,0,0,0,0,0,0,0,0,0,0,0,0,0,0,0,0,0,0,112.916489,70.687721,60.099949,98.315605,15.138459,0,0,-5.879561,0.010259,5.879561,15.653835,0,0,18.222239,0,12.601449,0,14.509133,8.415838,18.180855,8.046209,12.531857,8.299778,11.954215,9.340626,11.985954,8.728158,13.460315,10.200195,13.204519,10.535855,14.294482,0,-0.01182,0.00357,-0.01960,-0.01592,0.00857,-0.01162,0.00444,0.00244,-0.95059,0.10354,3.27704,5.880496,0.000000,7.077504,6.386459,5.880496,0.000000,4.861061,4.614318,-2.507316,184.674683,18.222239,6.056717,-3.316290,15.594342,12.601449,14.509133
0.062,0,0,0,0,0,0,0,0,0,0,0,0,0,0,0,0,0,0,0,0,112.801712,71.440849,60.266579,98.298828,15.137240,0,0,-5.871552,0.419993,5.871552,15.653835,0,0,18.237568,0,12.590147,0,14.541004,8.425274,18.204704,8.049328,12.525793,8.309417,11.944034,9.341744,11.984825,8.731066,13.459455,10.203306,13.205755,10.535535,14.292129,0,-0.02033,0.00611,-0.02127,-0.01292,0.00811,-0.01300,0.00522,0.00034,-0.93111,0.10368,3.27699,5.872795,0.000000,7.075477,6.384680,5.872795,0.000000,4.857197,4.616308,-2.610622,184.629654,18.237568,6.054494,-3.419387,15.590313,12.590147,14.541004
0.063,0,0,0,0,0,0,0,0,0,0,0,0,0,0,0,0,0,0,0,0,112.686928,72.193977,60.433212,98.282059,15.136022,0,0,-5.864458,0.829728,5.864458,15.653835,0,0,18.252897,0,12.578844,0,14.572874,8.434710,18.228556,8.052445,12.519729,8.319057,11.933852,9.342863,11.983697,8.733974,13.458596,10.206418,13.206990,10.535213,14.289774,0,-0.01981,0.01193,-0.01982,-0.01483,0.00847,-0.01192,0.00574,0.00319,-0.90984,0.10349,3.27707,5.865094,0.000000,7.073449,6.382901,5.865094,0.000000,4.853333,4.618298,-2.713928,184.584625,18.252897,6.052271,-3.522484,15.586283,12.578844,14.572874
0.064,0,0,0,0,0,0,0,0,0,0,0,0,0,0,0,0,0,0,0,0,112.787331,72.921577,60.719463,98.291153,15.136840,0,0,-5.858809,1.176824,5.858809,15.653835,0,0,18.264702,0,12.566612,0,14.601024,8.441463,18.250359,8.054831,12.513289,8.329216,11.922841,9.341697,11.981426,8.736869,13.457244,10.209664,13.208615,10.535382,14.288091,0,-0.01500,-0.00084,-0.02045,-0.01406,0.00820,-0.01189,0.00652,0.00292,-0.87017,0.10308,3.27713,5.859286,0.000000,7.071311,6.381275,5.859286,0.000000,4.849417,4.620333,-2.809422,184.540649,18.267330,6.051527,-3.617764,15.582162,12.566426,14.601024
0.065,0,0,0,0,0,0,0,0,0,0,0,0,0,0,0,0,0,0,0,0,113.608124,73.563698,61.406178,98.386833,15.144478,0,0,-5.856343,1.314218,5.856343,15.653835,0,0,18.264702,0,12.551269,0,14.616717,8.439234,18.265308,8.054760,12.505599,8.341114,11.909056,9.332882,11.975333,8.739719,13.454240,10.213365,13.211543,10.537192,14.288654,0,-0.01691,0.00386,-0.02025,-0.01384,0.00901,-0.01187,0.00594,0.00243,-0.84997,0.10320,3.27713,5.859818,0.000000,7.068804,6.380162,5.859818,0.000000,4.845329,4.622520,-2.878760,184.500214,18.278757,6.055732,-3.686872,15.577740,12.550278,14.616717
0.066,0,0,0,0,0,0,0,0,0,0,0,0,0,0,0,0,0,0,0,0,114.428917,74.205818,62.092892,98.482521,15.152116,0,0,-5.855606,1.451612,5.855606,15.653835,0,0,18.264702,0,12.535925,0,14.632412,8.437006,18.280258,8.054689,12.497908,8.353012,11.895269,9.324068,11.969239,8.742569,13.451237,10.217065,13.214471,10.539002,14.289218,0,-0.01745,0.01071,-0.02100,-0.01309,0.00730,-0.02009,0.00424,0.00290,-0.82751,0.10302,3.27713,5.860351,0.000000,7.066297,6.379048,5.860351,0.000000,4.841241,4.624707,-2.948098,184.459778,18.290182,6.059937,-3.755981,15.573318,12.534128,14.632412
0.067,0,0,0,0,0,0,0,0,0,0,0,0,0,0,0,0,0,0,0,0,115.249710,74.847939,62.779606,98.578201,15.159753,0,0,-5.858682,1.589005,5.858682,15.653835,0,0,18.264702,0,12.520581,0,14.648106,8.434777,18.295208,8.054619,12.490217,8.364910,11.881484,9.315253,11.963146,8.745419,13.448234,10.220765,13.217399,10.540812,14.289783,0,-0.01979,0.00527,-0.01980,-0.01784,0.00804,-0.01989,0.00508,0.00061,-0.80535,0.10249,3.27713,5.860883,0.000000,7.063789,6.377934,5.860883,0.000000,4.837152,4.626894,-3.017436,184.419342,18.301609,6.064141,-3.825090,15.568895,12.517980,14.648106
0.068,0,0,0,0,0,0,0,0,0,0,0,0,0,0,0,0,0,0,0,0,116.322319,75.385429,63.487476,98.700951,15.169840,0,0,-5.863198,1.613230,5.863198,15.653835,0,0,18.264702,0,12.508582,0,14.667609,8.430376,18.310188,8.054507,12.483242,8.376942,11.871835,9.302938,11.955218,8.747910,13.444931,10.224558,13.220711,10.542579,14.290403,0,-0.01772,-0.01161,-0.02029,-0.01808,0.00914,-0.01055,0.00559,0.00365,-0.78451,0.10215,3.27705,5.862866,0.000000,7.061675,6.377042,5.862866,0.000000,4.833096,4.629145,-3.077785,184.378662,18.310612,6.069318,-3.885196,15.564227,12.505730,14.667609
0.069,0,0,0,0,0,0,0,0,0,0,0,0,0,0,0,0,0,0,0,0,118.237946,75.572639,64.266174,98.914307,15.188125,0,0,-5.870891,1.258582,5.870891,15.653835,0,0,18.264702,0,12.507776,0,14.699864,8.418701,18.325272,8.054260,12.478666,8.389421,11.876037,9.278901,11.941150,8.749202,13.440629,10.228662,13.225307,10.544201,14.291214,0,-0.01823,0.00333,-0.02075,-0.01411,0.00709,-0.01331,0.00586,0.00366,-0.76154,0.10221,3.27666,5.869704,0.000000,7.060871,6.376889,5.869704,0.000000,4.829144,4.631609,-3.108040,184.337219,18.311501,6.077749,-3.915167,15.558733,12.506536,14.699864
0.070,0,0,0,0,0,0,0,0,0,0,0,0,0,0,0,0,0,0,0,0,120.153572,75.759857,65.044868,99.127670,15.206409,0,0,-5.878095,0.903934,5.878095,15.653835,1,0,18.264702,0,12.506970,0,14.732120,8.407025,18.340357,8.054013,12.474091,8.401898,11.880239,9.254865,11.927082,8.750494,13.436326,10.232767,13.229903,10.545823,14.292025,0,-0.01232,0.00179,-0.02056,-0.01101,0.00806,-0.01134,0.00454,0.00241,-0.73209,0.10195,3.27647,5.876543,0.000000,7.060068,6.376737,5.876543,0.000000,4.825191,4.634074,-3.138295,184.295761,18.312391,6.086180,-3.945137,15.553238,12.507341,14.732120
0.071,0,0,0,0,0,0,0,0,0,0,0,0,0,0,0,0,0,0,0,0,122.069199,75.947067,65.823563,99.341026,15.224695,0,0,-5.884220,0.549287,5.884220,15.653835,0,0,18.264702,0,12.506165,0,14.764375,8.395350,18.355440,8.053766,12.469515,8.414377,11.884440,9.230827,11.913013,8.751786,13.432023,10.236873,13.234500,10.547445,14.292835,0,-0.01850,0.00394,-0.02076,-0.01426,0.00710,-0.01273,0.00395,0.00200,-0.69384,0.10144,3.27693,5.883381,0.000000,7.059264,6.376584,5.883381,0.000000,4.821239,4.636539,-3.168550,184.254318,18.313280,6.094611,-3.975107,15.547744,12.508147,14.764375
0.072,0,0,0,0,0,0,0,0,0,0,0,0,0,0,0,0,0,0,0,0,124.053864,76.107910,66.493423,99.549942,15.238235,0,0,-5.888108,0.140216,5.888108,15.653835,0,0,18.264702,0,12.503874,0,14.792294,8.378499,18.366982,8.053977,12.462330,8.427684,11.887991,9.210701,11.901007,8.753190,13.428419,10.240209,13.238902,10.549135,14.294147,0,-0.01466,0.00672,-0.01942,-0.01384,0.00785,-0.01285,0.00529,0.00317,-0.67076,0.10169,3.27730,5.887985,0.000000,7.058864,6.376626,5.887985,0.000000,4.817309,4.638934,-3.188589,184.216797,18.313057,6.100266,-3.994902,15.543049,12.506911,14.792294
0.073,0,0,0,0,0,0,0,0,0,0,0,0,0,0,0,0,0,0,0,0,126.269691,76.180450,66.798920,99.743988,15.235887,0,0,-5.887064,-0.451055,5.887064,15.653835,0,0,18.264702,0,12.496611,0,14.805693,8.344321,18.366659,8.055720,12.446405,8.443764,11.889361,9.203663,11.895903,8.754968,13.427155,10.240970,13.242657,10.551052,14.297138,0,-0.01908,0.00278,-0.01999,-0.01394,0.00882,-0.00939,0.00605,0.00199,-0.64777,0.10165,3.27738,5.885107,0.000000,7.059811,6.377318,5.885107,0.000000,4.813452,4.641099,-3.174425,184.192490,18.309111,6.096630,-3.980633,15.541028,12.498842,14.805693
0.074,0,0,0,0,0,0,0,0,0,0,0,0,0,0,0,0,0,0,0,0,128.485504,76.252991,67.104424,99.938026,15.233539,0,0,-5.884960,-1.042326,5.884960,15.653835,0,0,18.264702,0,12.489347,0,14.819092,8.310143,18.366337,8.057463,12.430481,8.459845,11.890732,9.196626,11.890799,8.756745,13.425892,10.241732,13.246410,10.552968,14.300130,0,-0.01735,0.00279,-0.01839,-0.01349,0.00812,-0.01294,0.00468,0.00199,-0.62483,0.10114,3.27744,5.882228,0.000000,7.060758,6.378011,5.882228,0.000000,4.809595,4.643264,-3.160260,184.168167,18.305164,6.092993,-3.966363,15.539007,12.490772,14.819092
0.075,0,0,0,0,0,0,0,0,0,0,0,0,0,0,0,0,0,0,0,0,130.701340,76.325539,67.409920,100.132072,15.231192,0,0,-5.880515,-1.633596,5.880515,15.653835,0,0,18.264702,0,12.482083,0,14.832491,8.275965,18.366014,8.059205,12.414557,8.475924,11.892102,9.189588,11.885695,8.758523,13.424627,10.242494,13.250164,10.554885,14.303122,0,-0.01708,0.00380,-0.02053,-0.01396,0.00781,-0.01243,0.00411,0.00372,-0.60131,0.10102,3.27744,5.879350,0.000000,7.061705,6.378703,5.879350,0.000000,4.805737,4.645429,-3.146096,184.143860,18.301216,6.089356,-3.952094,15.536986,12.482703,14.832491
0.076,0,0,0,0,0,0,0,0,0,0,0,0,0,0,0,0,0,0,0,0,132.575226,76.508774,67.684113,100.292625,15.228806,0,0,-5.876607,-2.186255,5.876607,15.653835,0,0,18.261639,0,12.474051,0,14.842808,8.242601,18.358694,8.060040,12.395649,8.489880,11.893534,9.183422,11.881465,8.760470,13.424003,10.244022,13.254205,10.557166,14.306621,0,-0.02011,0.00533,-0.01979,-0.00845,0.00842,-0.01159,0.00256,0.00657,-0.57647,0.10123,3.27740,5.876628,0.000000,7.062886,6.379170,5.876628,0.000000,4.801918,4.647781,-3.122545,184.122391,18.293190,6.085379,-3.928453,15.535231,12.474051,14.845739
0.077,0,0,0,0,0,0,0,0,0,0,0,0,0,0,0,0,0,0,0,0,133.304382,77.062614,67.853500,100.341072,15.226299,0,0,-5.873882,-2.609649,5.873882,15.653835,0,0,18.248325,0,12.463449,0,14.842808,8.211965,18.327946,8.057833,12.366754,8.496719,11.895165,9.180175,11.880164,8.762987,13.425514,10.248117,13.259208,10.560668,14.311818,0,-0.01586,0.00325,-0.02005,-0.01314,0.00646,-0.01146,0.00270,0.00211,-0.55151,0.10100,3.27725,5.874431,0.000000,7.064849,6.378885,5.874431,0.000000,4.798226,4.650764,-3.067572,184.110474,18.271507,6.080258,-3.873435,15.534365,12.463449,14.858487
0.078,0,0,0,0,0,0,0,0,0,0,0,0,0,0,0,0,0,0,0,0,134.033539,77.616447,68.022881,100.389519,15.223792,0,0,-5.871463,-3.033044,5.871463,15.653835,0,0,18.235010,0,12.452847,0,14.842808,8.181328,18.297197,8.055626,12.337857,8.503560,11.896797,9.176929,11.878863,8.765505,13.427027,10.252213,13.264210,10.564171,14.317017,0,-0.01979,0.00291,-0.02059,-0.01230,0.00908,-0.01243,0.00662,0.00303,-0.50646,0.10051,3.27718,5.872234,0.000000,7.066813,6.378599,5.872234,0.000000,4.794534,4.653746,-3.012599,184.098557,18.249823,6.075137,-3.818417,15.533499,12.452847,14.871235
0.079,0,0,0,0,0,0,0,0,0,0,0,0,0,0,0,0,0,0,0,0,134.762695,78.170288,68.192261,100.437965,15.221285,0,0,-5.869717,-3.456438,5.869717,15.653835,0,0,18.221695,0,12.442245,0,14.842808,8.150691,18.266447,8.053419,12.308962,8.510401,11.898429,9.173681,11.877562,8.768022,13.428538,10.256308,13.269213,10.567674,14.322215,0,-0.01521,0.00653,-0.02064,-0.01318,0.00797,-0.01696,0.00610,0.00291,-0.48000,0.10062,3.27741,5.870037,0.000000,7.068776,6.378313,5.870037,0.000000,4.790843,4.656728,-2.957626,184.086639,18.228140,6.070016,-3.763398,15.532632,12.442245,14.883983
0.080,0,1,0,0,0,0,0,0,0,0,0,0,0,0,0,0,0,0,0,0,135.243652,78.730789,68.350105,100.493080,15.220465,0,0,-5.867691,-3.804110,5.867691,15.653835,0,0,18.209221,0,12.431772,0,14.842808,8.126034,18.240124,8.052717,12.282604,8.514304,11.896730,9.170342,11.876836,8.770219,13.430563,10.259829,13.274071,10.570391,14.327987,0,-0.01881,0.00703,-0.01971,-0.01351,0.00962,-0.01966,0.00520,0.00125,-0.45651,0.10064,3.27757,5.867684,0.000000,7.070717,6.378421,5.867684,0.000000,4.787247,4.659616,-2.897470,184.058395,18.209221,6.064460,-3.703112,15.530110,12.431772,14.894146
0.081,0,0,0,0,0,0,0,0,0,0,0,0,0,0,0,0,0,0,0,0,134.893692,79.313591,68.469322,100.570526,15.225293,0,0,-5.865046,-3.898278,5.865046,15.653835,0,0,18.199558,0,12.421730,0,14.842808,8.121393,18.228615,8.057052,12.264748,8.508372,11.883883,9.166693,11.878032,8.771345,13.434301,10.261423,13.278445,10.570480,14.335677,0,-0.01983,0.00497,-0.01993,-0.01368,0.00824,-0.01196,0.00547,0.00228,-0.43175,0.10037,3.27749,5.864811,0.000000,7.072584,6.379849,5.864811,0.000000,4.783974,4.662193,-2.819966,183.975525,18.199558,6.057446,-3.625189,15.522044,12.421730,14.895654
0.082,0,0,0,0,0,0,0,0,0,0,0,0,0,0,0,0,0,0,0,0,134.543747,79.896400,68.588531,100.647980,15.230122,0,0,-5.862268,-3.992445,5.862268,15.653835,0,0,18.189896,0,12.411688,0,14.842808,8.116753,18.217106,8.061387,12.246891,8.502441,11.871034,9.163043,11.879229,8.772471,13.438041,10.263019,13.282821,10.570569,14.343369,0,-0.01333,0.00515,-0.01934,-0.01318,0.00904,-0.01264,0.00508,0.00260,-0.40638,0.10018,3.27738,5.861938,0.000000,7.074450,6.381278,5.861938,0.000000,4.780701,4.664769,-2.742461,183.892654,18.189896,6.050432,-3.547266,15.513978,12.411688,14.897162
0.083,0,0,0,0,0,0,0,0,0,0,0,0,0,0,0,0,0,0,0,0,134.193787,80.479210,68.707748,100.725426,15.234950,0,0,-5.859200,-4.086613,5.859200,15.653835,0,0,18.180233,0,12.401645,0,14.842808,8.112112,18.205597,8.065722,12.229034,8.496510,11.858186,9.159393,11.880424,8.773598,13.441779,10.264614,13.287195,10.570658,14.351059,0,-0.02137,0.00369,-0.02049,-0.01226,0.00822,-0.01401,0.00345,0.00276,-0.38065,0.10035,3.27716,5.859065,0.000000,7.076316,6.382706,5.859065,0.000000,4.777428,4.667346,-2.664956,183.809784,18.180233,6.043418,-3.469343,15.505912,12.401645,14.898670
0.084,0,0,0,0,0,0,0,0,0,0,0,0,0,0,0,0,0,0,0,0,134.163300,80.915489,68.861450,100.851280,15.240130,0,0,-5.856388,-4.244617,5.856388,15.653835,0,0,18.169443,0,12.392859,0,14.842808,8.108259,18.193243,8.069859,12.212783,8.492229,11.848131,9.156491,11.882428,8.774315,13.445743,10.266095,13.292340,10.571179,14.358922,0,-0.01400,0.00376,-0.02028,-0.01348,0.00782,-0.01232,0.00489,0.00215,-0.35510,0.10041,3.27691,5.856653,0.000000,7.078181,6.384595,5.856653,0.000000,4.774184,4.670054,-2.583721,183.759308,18.169443,6.036676,-3.387842,15.500793,12.392717,14.901187
0.085,0,0,0,0,0,0,0,0,0,0,0,0,0,0,0,0,0,0,0,0,135.202362,80.861214,69.130608,101.139168,15.246491,0,0,-5.854142,-4.616334,5.854142,15.653835,0,0,18.154879,0,12.388274,0,14.842808,8.107044,18.178057,8.073331,12.201904,8.493476,11.847429,9.156091,11.887136,8.773658,13.450459,10.267196,13.300063,10.573149,14.367362,0,-0.01467,0.00220,-0.01938,-0.01294,0.00836,-0.01214,0.00454,0.00185,-0.30556,0.10021,3.27660,5.855787,0.000000,7.080042,6.388031,5.855787,0.000000,4.771035,4.673207,-2.489995,183.817261,18.154879,6.030842,-3.294362,15.505538,12.387524,14.907077
0.086,0,0,0,0,0,0,0,0,0,0,0,0,0,0,0,0,0,0,0,0,136.241440,80.806938,69.399757,101.427063,15.252852,0,0,-5.852690,-4.988051,5.852690,15.653835,0,0,18.140316,0,12.383691,0,14.842808,8.105830,18.162872,8.076803,12.191026,8.494722,11.846727,9.155691,11.891844,8.773002,13.455173,10.268296,13.307786,10.575118,14.375801,0,-0.01342,0.00480,-0.01975,-0.01660,0.00861,-0.01251,0.00511,0.00137,-0.27982,0.10017,3.27633,5.854920,0.000000,7.081903,6.391466,5.854920,0.000000,4.767886,4.676360,-2.396268,183.875214,18.140316,6.025009,-3.200882,15.510283,12.382329,14.912967
0.087,0,0,0,0,0,0,0,0,0,0,0,0,0,0,0,0,0,0,0,0,137.280502,80.752670,69.668915,101.714951,15.259213,0,0,-5.852992,-5.359768,5.852992,15.653835,0,0,18.125751,0,12.379107,0,14.842808,8.104615,18.147686,8.080276,12.180147,8.495969,11.846025,9.155292,11.896552,8.772346,13.459889,10.269397,13.315509,10.577087,14.384240,0,-0.01000,0.00949,-0.01899,-0.01377,0.00745,-0.01325,0.00493,0.00288,-0.25599,0.10045,3.27618,5.854054,0.000000,7.083763,6.394901,5.854054,0.000000,4.764737,4.679512,-2.302542,183.933167,18.125751,6.019176,-3.107402,15.515029,12.377135,14.918857
0.088,0,0,0,0,0,0,0,0,0,0,0,0,0,0,0,0,0,0,0,0,138.245468,80.733833,69.966942,102.013321,15.265648,0,0,-5.854580,-5.858183,5.854580,15.653835,0,0,18.111593,0,12.375437,0,14.842808,8.103345,18.133877,8.083021,12.169562,8.497859,11.846027,9.156404,11.901671,8.771316,13.464348,10.269944,13.324896,10.578011,14.392954,0,-0.01931,0.00742,-0.02031,-0.01520,0.00792,-0.01264,0.00658,0.00095,-0.22957,0.10033,3.27618,5.854952,0.000000,7.085761,6.398155,5.854952,0.000000,4.761704,4.682773,-2.207319,184.022675,18.111593,6.015034,-3.012575,15.522670,12.372125,14.924492
0.089,0,0,0,0,0,0,0,0,0,0,0,0,0,0,0,0,0,0,0,0,138.962372,80.833649,70.361633,102.346779,15.272328,0,0,-5.859004,-6.780761,5.859004,15.653835,0,0,18.098793,0,12.374826,0,14.842808,8.101888,18.124676,8.083333,12.159957,8.501904,11.848388,9.162576,11.908167,8.769033,13.467946,10.268643,13.339856,10.575434,14.402587,0,-0.01583,0.00117,-0.01879,-0.01282,0.00769,-0.01292,0.00319,0.00351,-0.20687,0.10004,3.27671,5.861754,0.000000,7.088215,6.400802,5.861754,0.000000,4.759062,4.686398,-2.107087,184.217789,18.098793,6.016558,-2.913242,15.540003,12.367727,14.929272
0.090,0,0,0,0,0,0,0,0,0,0,0,0,0,0,0,0,0,0,0,0,139.679276,80.933464,70.756325,102.680229,15.279009,0,0,-5.864799,-7.703340,5.864799,15.653835,0,0,18.085991,0,12.374216,0,14.842808,8.100431,18.115473,8.083644,12.150352,8.505948,11.850748,9.168748,11.914663,8.766752,13.471544,10.267343,13.354816,10.572856,14.412220,0,-0.01752,0.00467,-0.02077,-0.01935,0.00832,-0.01193,0.00485,0.00186,-0.17869,0.10034,3.27703,5.868556,0.000000,7.090670,6.403448,5.868556,0.000000,4.756421,4.690023,-2.006855,184.412918,18.085991,6.018081,-2.813909,15.557336,12.363331,14.934052
0.091,0,0,0,0,0,0,0,0,0,0,0,0,0,0,0,0,0,0,0,0,140.396164,81.033272,71.151016,103.013687,15.285688,0,0,-5.873619,-8.625917,5.873619,15.653835,0,0,18.073189,0,12.373606,0,14.842808,8.098975,18.106270,8.083956,12.140748,8.509993,11.853108,9.174920,11.921159,8.764470,13.475143,10.266042,13.369777,10.570278,14.421852,0,-0.02202,0.00593,-0.02150,-0.01276,0.00762,-0.01250,0.00535,0.00260,-0.15075,0.10052,3.27657,5.875358,0.000000,7.093125,6.406095,5.875358,0.000000,4.753779,4.693648,-1.906623,184.608032,18.073189,6.019605,-2.714576,15.574668,12.358934,14.938831
0.092,0,0,0,0,0,0,0,0,0,0,0,0,0,0,0,0,0,0,0,0,140.964188,81.173294,71.484772,103.274490,15.294673,0,0,-5.883031,-9.571332,5.883031,15.653835,0,0,18.061754,0,12.372125,0,14.842808,8.097919,18.095398,8.084379,12.132140,8.513246,11.854731,9.180676,11.927244,8.762452,13.478408,10.264592,13.384520,10.567818,14.432575,0,-0.01614,0.00406,-0.02032,-0.01336,0.00884,-0.01382,0.00515,0.00183,-0.10267,0.10028,3.27632,5.881629,0.000000,7.095732,6.412699,5.881629,0.000000,4.751296,4.697251,-1.807461,184.803253,18.061754,6.020655,-2.616303,15.591800,12.355547,14.943427
0.093,0,0,0,0,0,0,0,0,0,0,0,0,0,0,0,0,0,0,0,0,141.033768,81.447906,71.614540,103.292068,15.311370,0,0,-5.893749,-10.593196,5.893749,15.653835,0,0,18.054893,0,12.367727,0,14.842808,8.098207,18.078938,8.085180,12.126872,8.513846,11.853883,9.185040,11.931954,8.761316,13.480558,10.262645,13.398533,10.565750,14.446949,0,-0.01778,0.00253,-0.01981,-0.01326,0.00938,-0.01696,0.00507,0.00229,-0.07497,0.10030,3.27677,5.886127,0.000000,7.098846,6.432552,5.886127,0.000000,4.749342,4.700783,-1.711881,184.998840,18.054893,6.020118,-2.521577,15.608254,12.355541,14.947407
0.094,0,0,0,0,0,0,0,0,0,0,0,0,0,0,0,0,0,0,0,0,141.103363,81.722527,71.744308,103.309639,15.328068,0,0,-5.900887,-11.615061,5.900887,15.653835,0,0,18.048033,0,12.363331,0,14.842808,8.098494,18.062479,8.085980,12.121604,8.514447,11.853034,9.189404,11.936664,8.760181,13.482708,10.260696,13.412546,10.563683,14.461322,0,-0.01449,0.00936,-0.02074,-0.01431,0.00828,-0.01061,0.00344,0.00336,-0.04935,0.10065,3.27713,5.890624,0.000000,7.101962,6.452406,5.890624,0.000000,4.747389,4.704315,-1.616302,185.194443,18.048033,6.019582,-2.426852,15.624710,12.355535,14.951387
0.095,0,0,0,0,0,0,0,0,0,0,0,0,0,0,0,0,0,0,0,0,141.172943,81.997139,71.874069,103.327217,15.344765,0,0,-5.900132,-12.636925,5.900132,15.653835,0,0,18.041172,0,12.358934,0,14.842808,8.098781,18.046019,8.086782,12.116336,8.515049,11.852185,9.193769,11.941374,8.759046,13.484858,10.258749,13.426559,10.561615,14.475696,0,-0.01772,0.00229,-0.02007,-0.01357,0.00921,-0.01230,0.00461,0.00228,-0.02064,0.10059,3.27713,5.895121,0.000000,7.105077,6.472259,5.895121,0.000000,4.745436,4.707847,-1.520723,185.390030,18.041172,6.019045,-2.332126,15.641165,12.355528,14.955367
0.096,0,0,0,0,0,0,0,0,0,0,0,0,0,0,0,0,0,0,0,0,141.180313,82.297630,71.981873,103.334404,15.362440,0,0,-5.892242,-13.536823,5.892242,15.666778,0,0,18.033323,0,12.355547,0,14.842808,8.099629,18.029882,8.088756,12.110741,8.516995,11.851249,9.198739,11.945802,8.758224,13.487278,10.257302,13.438737,10.559051,14.490231,0,-0.01483,0.00509,-0.02015,-0.01314,0.00784,-0.01328,0.00605,0.00171,0.00275,0.10025,3.27716,5.891734,0.000000,7.108368,6.486876,5.891734,0.000000,4.743526,4.711342,-1.425608,185.686157,18.033323,6.010674,-2.238340,15.666778,12.355138,14.959462
0.097,0,0,0,0,1,0,0,0,0,0,0,0,0,0,0,0,0,0,0,0,140.979370,82.684723,72.016136,103.306801,15.383389,0,0,-5.868619,-14.028403,5.868619,15.723047,0,0,18.022163,0,12.355541,0,14.842808,8.102358,18.014828,8.094661,12.104052,8.523449,11.850019,9.205743,11.949286,8.758455,13.490604,10.257534,13.444764,10.554821,14.505307,0,-0.02032,0.00160,-0.01937,-0.01350,0.00897,-0.01144,0.00571,0.00289,0.02803,0.10067,3.27732,5.861949,0.000000,7.112252,6.483963,5.861949,0.000000,4.741764,4.714710,-1.332048,186.318848,18.022163,5.976074,-2.147699,15.723047,12.353461,14.963939
0.098,0,0,0,0,0,0,0,0,0,0,0,0,0,0,0,0,0,0,0,0,140.778427,83.071815,72.050400,103.279205,15.404338,0,0,-5.841434,-14.519982,5.841434,15.779317,0,0,18.011003,0,12.355535,0,14.842808,8.105085,17.999773,8.100566,12.097363,8.529902,11.848787,9.212747,11.952771,8.758686,13.493930,10.257766,13.450791,10.550592,14.520384,0,-0.01598,0.00375,-0.01914,-0.01311,0.00912,-0.01192,0.00578,0.00197,0.05778,0.10056,3.27735,5.832165,0.000000,7.116136,6.481049,5.832165,0.000000,4.740001,4.718078,-1.238488,186.951538,18.011003,5.941473,-2.057058,15.779317,12.351786,14.968416
0.099,0,0,0,0,0,0,0,0,0,0,0,0,0,0,0,0,0,0,0,0,140.577484,83.458908,72.084663,103.251602,15.425287,0,0,-5.806395,-15.011562,5.806395,15.835587,0,0,17.999844,0,12.355528,0,14.842808,8.107814,17.984718,8.106471,12.090673,8.536356,11.847557,9.219749,11.956256,8.758917,13.497256,10.257998,13.456819,10.546363,14.535460,0,-0.01827,0.00545,-0.02197,-0.01438,0.00861,-0.01228,0.00247,0.00197,0.10560,0.10036,3.27697,5.802381,0.000000,7.120020,6.478135,5.802381,0.000000,4.738239,4.721446,-1.144928,187.584244,17.999844,5.906872,-1.966417,15.835587,12.350109,14.972893
0.100,0,0,0,0,0,0,0,0,0,0,0,0,0,0,0,0,0,0,0,0,140.349976,83.884186,72.161995,103.261436,15.447572,0,0,-5.772902,-15.207294,5.772902,15.917410,0,0,17.990782,0,12.355419,0,14.842808,8.111304,17.972507,8.111486,12.085320,8.543112,11.846082,9.226514,11.960543,8.759623,13.500820,10.258277,13.464589,10.542576,14.550220,0,-0.01551,0.00420,-0.02002,-0.01455,0.00723,-0.01169,0.00579,0.00351,0.13192,0.10050,3.27667,5.774320,0.000000,7.123951,6.475035,5.774320,0.000000,4.736514,4.724935,-1.046069,189.320694,17.990782,5.873993,-1.875737,15.993260,12.350357,14.975321
0.101,0,0,0,0,0,0,0,0,0,0,0,0,0,0,0,0,0,0,0,0,140.033493,84.437302,72.383530,103.396576,15.474326,0,0,-5.742821,-14.412583,5.742821,16.084785,0,0,17.988741,0,12.354969,0,14.842808,8.117346,17.969809,8.113522,12.084438,8.550879,11.843787,9.232477,11.967512,8.761918,13.505180,10.258716,13.478196,10.540270,14.563915,0,-0.01743,0.00565,-0.01945,-0.01882,0.00790,-0.01205,0.00264,0.00275,0.15693,0.10071,3.27667,5.752031,0.000000,7.128040,6.471309,5.752031,0.000000,4.734916,4.728829,-0.929465,194.752365,17.988741,5.846879,-1.784924,16.490417,12.357047,14.970886
0.102,0,0,0,0,0,0,0,0,0,0,0,0,0,0,0,0,0,0,0,0,139.717010,84.990417,72.605057,103.531723,15.501081,0,0,-5.717230,-13.617872,5.717230,16.252159,0,0,17.986698,0,12.354519,0,14.842808,8.123387,17.967110,8.115558,12.083556,8.558645,11.841493,9.238441,11.974482,8.764213,13.509541,10.259154,13.491803,10.537965,14.577610,0,-0.01755,0.00385,-0.01999,-0.01365,0.00776,-0.01366,0.00587,0.00334,0.18361,0.10041,3.27660,5.729742,0.000000,7.132130,6.467584,5.729742,0.000000,4.733318,4.732723,-0.812862,200.184052,17.986698,5.819764,-1.694112,16.987576,12.363736,14.966452
0.103,0,0,0,0,0,0,0,0,0,0,0,0,0,0,0,0,0,0,0,0,139.400528,85.543533,72.826591,103.666862,15.527837,0,0,-5.701540,-12.823161,5.701540,16.419535,0,0,17.984657,0,12.354069,0,14.842808,8.129429,17.964411,8.117593,12.082675,8.566412,11.839198,9.244404,11.981451,8.766508,13.513901,10.259594,13.505410,10.535659,14.591306,0,-0.01846,0.00349,-0.02028,-0.01362,0.00767,-0.01331,0.00463,0.00306,0.20900,0.10008,3.27630,5.707453,0.000000,7.136219,6.463858,5.707453,0.000000,4.731720,4.736617,-0.696259,205.615723,17.984657,5.792649,-1.603299,17.484734,12.370426,14.962017
0.104,0,0,0,0,0,0,0,0,0,0,0,0,0,0,0,0,0,0,0,0,139.074829,86.077820,73.044228,103.791626,15.552232,0,0,-5.691574,-11.860476,5.691574,16.564522,0,0,17.981358,0,12.353440,0,14.842808,8.134185,17.960094,8.119465,12.081169,8.574162,11.836997,9.250415,11.987773,8.769350,13.518515,10.260869,13.518829,10.533161,14.604016,0,-0.01651,0.00540,-0.02084,-0.01381,0.00839,-0.01173,0.00510,0.00274,0.23384,0.10040,3.27613,5.691692,0.000000,7.140297,6.459686,5.691692,0.000000,4.730264,4.740573,-0.589833,208.977295,17.981358,5.772079,-1.512797,17.791695,12.374320,14.954272
0.105,0,0,0,0,0,0,0,0,0,0,0,0,0,0,0,0,0,0,0,0,138.718292,86.549095,73.248833,103.881668,15.568727,0,0,-5.694228,-10.335441,5.694228,16.634563,0,0,17.973843,0,12.352215,0,14.842808,8.134636,17.950369,8.120789,12.077573,8.581860,11.835108,9.256584,11.991926,8.774023,13.523978,10.264942,13.531619,10.530016,14.613426,0,-0.01776,-0.00028,-0.02083,-0.01353,0.00844,-0.01278,0.00848,0.00303,0.26306,0.10033,3.27643,5.697788,0.000000,7.144336,6.454017,5.697788,0.000000,4.729279,4.744739,-0.517477,205.408508,17.973843,5.773421,-1.423333,17.461910,12.368856,14.935447
0.106,0,0,0,0,0,0,0,0,0,0,0,0,0,0,0,0,0,0,0,0,138.361740,87.020370,73.453445,103.971710,15.585223,0,0,-5.698874,-8.810407,5.698874,16.704605,0,0,17.966328,0,12.350988,0,14.842808,8.135087,17.940643,8.122112,12.073977,8.589557,11.833220,9.262753,11.996079,8.778696,13.529443,10.269016,13.544409,10.526872,14.622837,0,-0.01974,0.00244,-0.02082,-0.01524,0.00864,-0.01226,0.00114,0.00258,0.31002,0.10004,3.27671,5.703884,0.000000,7.148375,6.448348,5.703884,0.000000,4.728293,4.748905,-0.445121,201.839722,17.966328,5.774764,-1.333869,17.132128,12.363393,14.916621
0.107,0,0,0,0,0,0,0,0,0,0,0,0,0,0,0,0,0,0,0,0,138.005203,87.491646,73.658051,104.061752,15.601719,0,0,-5.707917,-7.285372,5.707917,16.774645,0,0,17.958813,0,12.349763,0,14.842808,8.135538,17.930918,8.123435,12.070381,8.597254,11.831331,9.268924,12.000233,8.783369,13.534906,10.273090,13.557199,10.523727,14.632248,0,-0.01318,0.00242,-0.01924,-0.01253,0.00778,-0.01205,0.00530,0.00171,0.33038,0.10006,3.27686,5.709980,0.000000,7.152413,6.442679,5.709980,0.000000,4.727308,4.753071,-0.372765,198.270935,17.958813,5.776106,-1.244406,16.802345,12.357929,14.897797
0.108,0,0,0,0,0,0,0,0,0,0,0,0,0,0,0,0,0,0,0,0,137.701492,87.944527,73.830872,104.113350,15.618147,0,0,-5.715034,-5.752302,5.715034,16.841156,0,0,17.952591,0,12.347968,0,14.842808,8.136248,17.920938,8.125834,12.067642,8.604585,11.829808,9.275023,12.005190,8.787411,13.540004,10.277353,13.569965,10.520847,14.641938,0,-0.01917,0.00608,-0.02083,-0.01326,0.00835,-0.01282,0.00773,0.00257,0.36252,0.10026,3.27696,5.715197,0.000000,7.156252,6.437102,5.715197,0.000000,4.726480,4.757328,-0.294839,195.701828,17.952591,5.776525,-1.154142,16.564522,12.352591,14.884076
0.109,0,0,0,0,0,0,0,0,0,0,0,0,0,0,0,0,0,0,0,0,137.574677,88.335831,73.897293,104.036217,15.634348,0,0,-5.717903,-4.192332,5.717903,16.895847,0,0,17.950697,0,12.344272,0,14.842808,8.137823,17.910110,8.131831,12.067773,8.610695,11.829511,9.280885,12.012840,8.789338,13.543870,10.282249,13.582657,10.518853,14.652567,0,-0.01768,0.00345,-0.01983,-0.01796,0.00801,-0.01347,0.00515,0.00197,0.38422,0.10027,3.27688,5.717465,0.000000,7.159421,6.431830,5.717465,0.000000,4.726174,4.761890,-0.198265,196.479492,17.950697,5.773856,-1.061202,16.634563,12.347667,14.887447
0.110,0,0,0,0,0,0,0,0,0,0,0,0,0,0,0,0,0,0,0,0,137.447861,88.727135,73.963715,103.959084,15.650549,0,0,-5.720422,-2.632362,5.720422,16.950541,0,0,17.948803,0,12.340574,0,14.842808,8.139400,17.899282,8.137828,12.067904,8.616804,11.829213,9.286748,12.020491,8.791265,13.547737,10.287146,13.595348,10.516859,14.663195,0,-0.01805,0.00327,-0.02031,-0.01381,0.00817,-0.01193,0.00819,0.00198,0.41504,0.10003,3.27682,5.719735,0.000000,7.162591,6.426558,5.719735,0.000000,4.725869,4.766452,-0.101691,197.257156,17.948803,5.771186,-0.968261,16.704605,12.342744,14.890818
0.111,0,0,0,0,0,0,0,0,0,0,0,0,0,0,0,0,0,0,0,0,137.321045,89.118439,74.030136,103.881958,15.666750,0,0,-5.722166,-1.072392,5.722166,17.005232,0,0,17.946909,0,12.336877,0,14.842808,8.140975,17.888454,8.143826,12.068034,8.622913,11.828915,9.292610,12.028140,8.793192,13.551603,10.292042,13.608040,10.514864,14.673823,0,-0.01616,0.00428,-0.02059,-0.01099,0.00669,-0.01229,-0.00280,0.00321,0.43476,0.10025,3.27682,5.722004,0.000000,7.165761,6.421286,5.722004,0.000000,4.725563,4.771014,-0.005117,198.034821,17.946909,5.768517,-0.875321,16.774645,12.337821,14.894189
0.112,0,0,0,0,0,0,0,0,0,0,0,0,0,0,0,0,0,0,0,0,137.137817,89.564995,74.079590,103.820030,15.681978,0,0,-5.726029,0.316395,5.726029,17.062931,0,0,17.944729,0,12.331812,0,14.842808,8.142309,17.873672,8.149725,12.065586,8.629195,11.828049,9.298428,12.034638,8.794926,13.555815,10.295442,13.619632,10.512448,14.685122,0,-0.01790,0.00364,-0.02004,-0.01213,0.00815,-0.01226,0.00375,0.00184,0.46047,0.10041,3.27676,5.726363,0.000000,7.168870,6.411646,5.726363,0.000000,4.725412,4.775547,0.093688,198.773132,17.944729,5.767809,-0.779966,16.841156,12.331812,14.895464
0.113,0,0,0,0,0,0,0,0,0,0,0,0,0,0,0,0,0,0,0,0,136.765671,90.196548,74.072220,103.809029,15.693952,0,0,-5.734569,1.132087,5.734569,17.130703,0,0,17.941593,0,12.322169,0,14.842808,8.142837,17.845652,8.155300,12.054507,8.636054,11.825280,9.304092,12.037280,8.796014,13.561178,10.293831,13.627542,10.508623,14.698665,0,-0.01946,0.00262,-0.02084,-0.01258,0.00857,-0.01254,0.00596,0.00410,0.51005,0.10020,3.27645,5.737720,0.000000,7.171777,6.387383,5.737720,0.000000,4.725780,4.779979,0.199964,199.379684,17.941593,5.773669,-0.676527,16.895847,12.322169,14.889720
0.114,0,0,0,0,0,0,0,0,0,0,0,0,0,0,0,0,0,0,0,0,136.393539,90.828102,74.064850,103.798027,15.705924,0,0,-5.744735,1.947779,5.744735,17.198475,0,0,17.938459,0,12.312526,0,14.842808,8.143364,17.817631,8.160874,12.043428,8.642913,11.822511,9.309756,12.039922,8.797102,13.566542,10.292221,13.635452,10.504797,14.712208,0,-0.01598,0.00380,-0.01997,-0.01443,0.00885,-0.01142,0.00497,0.00286,0.53378,0.09988,3.27632,5.749076,0.000000,7.174684,6.363120,5.749076,0.000000,4.726147,4.784411,0.306240,199.986252,17.938459,5.779529,-0.573088,16.950541,12.312526,14.883977
0.115,0,0,0,0,0,0,0,0,0,0,0,0,0,0,0,0,0,0,0,0,136.021393,91.459648,74.057487,103.787025,15.717896,0,0,-5.758488,2.763471,5.758488,17.266247,0,0,17.935324,0,12.302882,0,14.842808,8.143890,17.789610,8.166449,12.032349,8.649772,11.819742,9.315421,12.042562,8.798190,13.571905,10.290611,13.643363,10.500972,14.725750,0,-0.01913,0.00308,-0.02072,-0.01321,0.00929,-0.00710,0.00443,0.00274,0.55823,0.10010,3.27677,5.760432,0.000000,7.177590,6.338857,5.760432,0.000000,4.726515,4.788843,0.412516,200.592804,17.935324,5.785388,-0.469649,17.005232,12.302882,14.878233
0.116,0,0,0,0,0,0,0,0,0,0,0,0,0,0,0,0,0,0,0,0,135.512970,92.186050,74.077980,103.824066,15.730575,0,0,-5.772597,3.412568,5.772597,17.329945,0,0,17.931631,0,12.293153,0,14.842808,8.142615,17.767662,8.172776,12.022470,8.656291,11.816605,9.321443,12.047311,8.799346,13.577878,10.290079,13.652797,10.497943,14.739711,0,-0.01674,0.00303,-0.02046,-0.01411,0.00787,-0.01549,0.00309,0.00226,0.58088,0.10009,3.27713,5.772347,0.000000,7.180338,6.320406,5.772347,0.000000,4.726997,4.793317,0.521233,201.232788,17.931631,5.791686,-0.363925,17.062931,12.293153,14.872633
0.117,0,0,0,0,0,0,0,0,0,0,0,0,0,0,0,0,0,0,0,0,134.548264,93.230003,74.191772,104.021927,15.745615,0,0,-5.787491,3.503932,5.787491,17.380013,0,0,17.926067,0,12.283134,0,14.842808,8.135304,17.766043,8.181623,12.016607,8.661671,11.812235,9.328662,12.059113,8.800725,13.585888,10.293155,13.667329,10.497581,14.755069,0,-0.01946,0.00255,-0.02036,-0.01424,0.00863,-0.01340,0.00366,0.00306,0.60575,0.09982,3.27713,5.786131,0.000000,7.182557,6.321412,5.786131,0.000000,4.727867,4.797930,0.638122,201.984619,17.926067,5.799445,-0.250552,17.130703,12.283134,14.867512
0.118,0,0,0,0,0,0,0,0,0,0,0,0,0,0,0,0,0,0,0,0,133.583572,94.273949,74.305565,104.219788,15.760655,0,0,-5.801746,3.595296,5.801746,17.430079,0,0,17.920504,0,12.273115,0,14.842808,8.127995,17.764425,8.190472,12.010744,8.667051,11.807864,9.335881,12.070913,8.802104,13.593899,10.296231,13.681861,10.497219,14.770427,0,-0.01780,0.00486,-0.01848,-0.01458,0.00839,-0.01243,0.00621,0.00212,0.62842,0.09959,3.27720,5.799914,0.000000,7.184776,6.322418,5.799914,0.000000,4.728736,4.802544,0.755011,202.736450,17.920504,5.807204,-0.137179,17.198475,12.273115,14.862390
0.119,0,0,0,0,0,0,0,0,0,0,0,0,0,0,0,0,0,0,0,0,132.618866,95.317902,74.419357,104.417648,15.775696,0,0,-5.814593,3.686660,5.814593,17.480146,0,0,17.914938,0,12.263096,0,14.842808,8.120684,17.762806,8.199319,12.004882,8.672431,11.803494,9.343101,12.082715,8.803483,13.601909,10.299307,13.696393,10.496857,14.785785,0,-0.01816,0.00319,-0.01994,-0.01290,0.01051,-0.01097,0.00613,0.00125,0.65253,0.09990,3.27750,5.813698,0.000000,7.186994,6.323424,5.813698,0.000000,4.729605,4.807157,0.871899,203.488281,17.914938,5.814963,-0.023806,17.266247,12.263096,14.857268
0.120,0,0,0,0,0,0,0,0,0,0,0,0,0,0,0,0,0,0,0,0,131.702515,96.384636,74.552780,104.594551,15.789362,0,0,-5.826195,3.781251,5.826195,17.533173,0,0,17.909433,0,12.252371,0,14.841746,8.116902,17.761063,8.207762,11.997451,8.678330,11.798179,9.349452,12.093429,8.804784,13.609588,10.301386,13.710747,10.496087,14.800489,0,-0.01874,0.00462,-0.02006,-0.01356,0.00873,-0.01338,0.00665,0.00337,0.67841,0.09977,3.27769,5.826173,0.000000,7.189161,6.324046,5.826173,0.000000,4.730620,4.811789,0.993698,204.194458,17.909433,5.821142,0.094688,17.329945,12.252371,14.851659
0.121,0,0,0,0,0,0,0,0,0,0,0,0,0,0,0,0,0,0,0,0,130.948029,97.527657,74.751930,104.701302,15.798427,0,0,-5.835052,3.886647,5.835052,17.596106,0,0,17.904123,0,12.239279,0,14.837133,8.124936,17.758894,8.214850,11.984773,8.685968,11.789699,9.352896,12.100501,8.805826,13.616155,10.300127,13.724504,10.493950,14.813006,0,-0.01628,0.00367,-0.02144,-0.01525,0.00883,-0.01126,0.00468,0.00276,0.72158,0.09943,3.27746,5.834267,0.000000,7.191155,6.323379,5.834267,0.000000,4.732121,4.816481,1.131934,204.747833,17.904123,5.822028,0.230326,17.380013,12.239279,14.844417
0.122,0,0,0,0,0,0,0,0,0,0,0,0,0,0,0,0,0,0,0,0,130.193527,98.670670,74.951080,104.808044,15.807490,0,0,-5.843468,3.992043,5.843468,17.659039,0,0,17.898813,0,12.226188,0,14.832520,8.132969,17.756727,8.221938,11.972094,8.693606,11.781219,9.356339,12.107574,8.806869,13.622722,10.298867,13.738263,10.491813,14.825523,0,-0.01857,0.00304,-0.02128,-0.01148,0.00802,-0.01227,0.00430,0.00261,0.74434,0.09967,3.27723,5.842360,0.000000,7.193150,6.322712,5.842360,0.000000,4.733621,4.821173,1.270169,205.301208,17.898813,5.822914,0.365964,17.430079,12.226188,14.837174
0.123,0,0,0,0,0,0,0,0,0,0,0,0,0,0,0,0,0,0,0,0,129.439041,99.813690,75.150230,104.914795,15.816555,0,0,-5.850907,4.097439,5.850907,17.721973,0,0,17.893503,0,12.213097,0,14.827908,8.141003,17.754560,8.229027,11.959415,8.701243,11.772738,9.359783,12.114646,8.807911,13.629290,10.297608,13.752021,10.489676,14.838040,0,-0.01870,0.00488,-0.02019,-0.01248,0.00879,-0.01156,0.00534,0.00410,0.76642,0.09988,3.27700,5.850454,0.000000,7.195144,6.322045,5.850454,0.000000,4.735121,4.825865,1.408405,205.854584,17.893503,5.823800,0.501603,17.480146,12.213097,14.829932
0.124,0,0,0,0,0,0,0,0,0,0,0,0,0,0,0,0,0,0,0,0,128.748642,100.908478,75.316269,104.957359,15.827920,0,0,-5.858927,4.191441,5.858927,17.776016,0,0,17.887552,0,12.202548,0,14.820512,8.149785,17.747623,8.235559,11.948011,8.708471,11.765268,9.363886,12.122143,8.808871,13.636085,10.297133,13.765398,10.487407,14.850252,0,-0.01788,0.00226,-0.02017,-0.01359,0.00700,-0.01200,0.00543,0.00274,0.78984,0.09958,3.27694,5.859148,0.000000,7.197062,6.321544,5.859148,0.000000,4.736730,4.830578,1.552986,206.442429,17.887552,5.824957,0.643433,17.533173,12.202548,14.820512
0.125,0,0,0,0,0,0,0,0,0,0,0,0,0,0,0,0,0,0,0,0,128.272797,101.841827,75.371483,104.785049,15.846991,0,0,-5.868227,4.247298,5.868227,17.800293,0,0,17.879456,0,12.200514,0,14.803800,8.161076,17.724714,8.240234,11.940876,8.714324,11.761180,9.370194,12.131063,8.809562,13.643643,10.299286,13.777502,10.484693,14.861442,0,-0.01736,0.00538,-0.01999,-0.01259,0.00931,-0.01182,0.00583,0.00170,0.81102,0.09944,3.27748,5.869852,0.000000,7.198727,6.321601,5.869852,0.000000,4.738702,4.835359,1.718810,207.145691,17.879456,5.827023,0.805993,17.596106,12.200514,14.803800
0.126,0,0,0,0,0,0,0,0,0,0,0,0,0,0,0,0,0,0,0,0,127.796967,102.775177,75.426689,104.612740,15.866061,0,0,-5.878337,4.303154,5.878337,17.824572,0,0,17.871357,0,12.198480,0,14.787086,8.172367,17.701807,8.244908,11.933741,8.720178,11.757092,9.376504,12.139982,8.810252,13.651202,10.301438,13.789605,10.481979,14.872631,0,-0.01560,0.00066,-0.01938,-0.01397,0.00824,-0.01279,0.00593,0.00260,0.83234,0.09979,3.27767,5.880556,0.000000,7.200391,6.321658,5.880556,0.000000,4.740674,4.840140,1.884635,207.848953,17.871357,5.829089,0.968552,17.659039,12.198480,14.787086
0.127,0,0,0,0,0,0,0,0,0,0,0,0,0,0,0,0,0,0,0,0,127.321129,103.708519,75.481895,104.440430,15.885132,0,0,-5.890232,4.359012,5.890232,17.848850,0,0,17.863258,0,12.196445,0,14.770373,8.183658,17.678900,8.249582,11.926604,8.726030,11.753003,9.382813,12.148902,8.810943,13.658761,10.303591,13.801709,10.479265,14.883821,0,-0.01660,0.00696,-0.02013,-0.01351,0.00876,-0.01353,0.00373,0.00214,0.85173,0.09973,3.27668,5.891259,0.000000,7.202056,6.321714,5.891259,0.000000,4.742647,4.844921,2.050459,208.552216,17.863258,5.831154,1.131112,17.721973,12.196445,14.770373
0.128,0,0,0,0,0,0,0,0,0,0,0,0,0,0,0,0,0,0,0,0,126.897446,104.591125,75.521530,104.278595,15.901920,0,0,-5.902932,4.423320,5.902932,17.869907,0,0,17.854471,0,12.193591,0,14.757214,8.193295,17.653568,8.254040,11.919905,8.731743,11.749796,9.388330,12.157885,8.811319,13.666206,10.304985,13.812542,10.475895,14.895109,0,-0.01401,0.00387,-0.02110,-0.01449,0.00828,-0.01087,0.00526,0.00201,0.88661,0.09953,3.27599,5.903139,0.000000,7.203684,6.321225,5.903139,0.000000,4.744681,4.849693,2.221183,209.182236,17.854471,5.834117,1.298909,17.778379,12.193591,14.757214
0.129,0,0,0,0,0,0,0,0,0,0,0,0,0,0,0,0,0,0,0,0,126.648369,105.303833,75.509026,104.151833,15.911072,0,0,-5.917409,4.515921,5.917409,17.880186,0,0,17.843380,0,12.187993,0,14.755948,8.197393,17.620119,8.257773,11.914662,8.736983,11.749537,9.391193,12.167078,8.810646,13.673270,10.303840,13.819124,10.470327,14.906730,0,-0.01986,0.00077,-0.01987,-0.01363,0.00907,-0.01253,0.00560,0.00171,0.91551,0.09963,3.27638,5.918953,0.000000,7.205192,6.318908,5.918953,0.000000,4.746926,4.854438,2.408307,209.567062,17.843380,5.840084,1.484241,17.812937,12.187993,14.755948
0.130,0,0,0,0,0,0,0,0,0,0,0,0,0,0,0,0,0,0,0,0,126.399292,106.016541,75.496521,104.025063,15.920223,0,0,-5.932658,4.608521,5.932658,17.890465,0,0,17.832287,0,12.182395,0,14.754683,8.201492,17.586670,8.261506,11.909421,8.742224,11.749279,9.394057,12.176271,8.809974,13.680334,10.302694,13.825706,10.464760,14.918349,0,-0.02081,0.00406,-0.02077,-0.01426,0.00812,-0.01154,0.00634,0.00302,0.93487,0.09976,3.27672,5.934768,0.000000,7.206700,6.316591,5.934768,0.000000,4.749170,4.859182,2.595431,209.951904,17.832287,5.846050,1.669573,17.847492,12.182395,14.754683
0.131,0,0,0,0,0,0,0,0,0,0,0,0,0,0,0,0,0,0,0,0,126.150215,106.729248,75.484016,103.898300,15.929374,0,0,-5.949607,4.701122,5.949607,17.900743,0,0,17.821196,0,12.176798,0,14.753418,8.205591,17.553221,8.265240,11.904179,8.747464,11.749021,9.396920,12.185465,8.809300,13.687398,10.301549,13.832288,10.459191,14.929969,0,-0.01260,0.00320,-0.02004,-0.01317,0.00885,-0.01183,0.00552,0.00259,0.95505,0.09974,3.27695,5.950583,0.000000,7.208207,6.314274,5.950583,0.000000,4.751414,4.863926,2.782556,210.336731,17.821196,5.852016,1.854905,17.882050,12.176798,14.753418
0.132,0,0,0,0,0,0,0,0,0,0,0,0,0,0,0,0,0,0,0,0,126.150543,107.343727,75.480492,103.837929,15.936197,0,0,-5.967162,4.824267,5.967162,17.915997,0,0,17.810183,0,12.170311,0,14.750383,8.205847,17.536007,8.268933,11.899111,8.752610,11.748622,9.399709,12.194293,8.808793,13.694170,10.300604,13.839252,10.455131,14.941133,0,-0.01182,-0.00367,-0.02106,-0.01333,0.00826,-0.01211,0.00491,0.00334,0.97651,0.09956,3.27711,5.967059,0.000000,7.209677,6.312845,5.967059,0.000000,4.753803,4.868540,2.973411,210.712631,17.810183,5.858445,2.043998,17.915997,12.170311,14.750383
0.133,0,0,0,0,0,0,0,0,0,0,0,0,0,0,0,0,0,0,0,0,126.985832,107.629349,75.507042,103.999825,15.935226,0,0,-5.986052,5.049670,5.986052,17.947908,0,0,17.799433,0,12.160851,0,14.741421,8.193231,17.573139,8.272495,11.894627,8.757442,11.747756,9.402246,12.201897,8.808837,13.699964,10.300328,13.847500,10.456112,14.950775,0,-0.01572,0.00637,-0.02036,-0.01351,0.00828,-0.01130,0.00513,0.00111,0.99548,0.09967,3.27704,5.985753,0.000000,7.211017,6.314385,5.985753,0.000000,4.756676,4.872718,3.176755,211.058594,17.799433,5.866422,2.245688,17.947908,12.160851,14.741421
0.134,0,0,0,0,0,0,0,0,0,0,0,0,0,0,0,0,0,0,0,0,127.821121,107.914963,75.533592,104.161728,15.934256,0,0,-6.004830,5.275072,6.004830,17.979820,0,0,17.788683,0,12.151391,0,14.732459,8.180615,17.610271,8.276056,11.890141,8.762273,11.746890,9.404783,12.209501,8.808882,13.705757,10.300053,13.855746,10.457094,14.960416,0,-0.01488,0.00323,-0.01984,-0.01396,0.00872,-0.01082,0.00195,0.00397,1.01237,0.09988,3.27698,6.004447,0.000000,7.212358,6.315925,6.004447,0.000000,4.759550,4.876896,3.380100,211.404556,17.788683,5.874398,2.447377,17.979820,12.151391,14.732459
0.135,0,0,0,0,0,0,0,0,0,0,0,0,0,0,0,0,0,0,0,0,128.656403,108.200584,75.560143,104.323624,15.933286,0,0,-6.023362,5.500474,6.023362,18.011730,0,0,17.777935,0,12.141931,0,14.723497,8.168000,17.647404,8.279618,11.885657,8.767103,11.746024,9.407320,12.217105,8.808926,13.711550,10.299777,13.863994,10.458076,14.970057,0,-0.01390,0.00546,-0.02000,-0.01443,0.00902,-0.01169,0.00337,0.00140,1.03487,0.09963,3.27698,6.023141,0.000000,7.213699,6.317465,6.023141,0.000000,4.762423,4.881074,3.583445,211.750519,17.777935,5.882375,2.649066,18.011730,12.141931,14.723497
0.136,0,0,0,0,0,0,0,0,0,0,0,0,0,0,0,0,0,0,0,0,129.712601,108.435051,75.552795,104.419655,15.935344,0,0,-6.041086,5.673677,6.041086,18.044760,0,0,17.766287,0,12.133586,0,14.713693,8.159309,17.673563,8.283230,11.878248,8.771886,11.745500,9.407917,12.223560,8.808954,13.717695,10.299445,13.872905,10.459216,14.980349,0,-0.02797,0.00478,-0.02045,-0.01491,0.00781,-0.01366,0.00689,0.00273,1.07083,0.09940,3.27705,6.040919,0.000000,7.214980,6.319726,6.040919,0.000000,4.765179,4.884101,3.790104,212.111649,17.766287,5.889263,2.854012,18.044760,12.133586,14.713693
0.137,0,0,0,0,0,0,0,0,0,0,0,0,0,0,0,0,0,0,0,0,131.508362,108.498283,75.431992,104.295174,15.947541,0,0,-6.057026,5.672128,6.057026,18.081530,0,0,17.751633,0,12.128977,0,14.701069,8.163756,17.662981,8.287008,11.861047,8.776505,11.746118,9.402017,12.226169,8.808930,13.725020,10.298927,13.884035,10.460888,14.992816,0,-0.01465,0.00492,-0.01962,-0.01281,0.00759,-0.01193,0.00413,0.00305,1.08617,0.09964,3.27735,6.055633,0.000000,7.216060,6.324404,6.055633,0.000000,4.767545,4.883276,4.007861,212.523590,17.751633,5.892506,3.069861,18.081530,12.128977,14.701069
0.138,0,0,0,0,0,0,0,0,0,0,0,0,0,0,0,0,0,0,0,0,133.304138,108.561508,75.311188,104.170685,15.959740,0,0,-6.072258,5.670578,6.072258,18.118298,0,0,17.736977,0,12.124368,0,14.688444,8.168203,17.652401,8.290786,11.843845,8.781125,11.746737,9.396115,12.228776,8.808907,13.732345,10.298409,13.895166,10.462561,15.005283,0,-0.02064,0.00259,-0.02106,-0.01410,0.00898,-0.01225,0.00471,-0.01386,1.10377,0.09963,3.27740,6.070346,0.000000,7.217140,6.329081,6.070346,0.000000,4.769911,4.882450,4.225618,212.935532,17.736977,5.895750,3.285711,18.118298,12.124368,14.688444
0.139,0,0,0,0,0,0,0,0,0,0,0,0,0,0,0,0,0,0,0,0,135.099899,108.624741,75.190384,104.046204,15.971937,0,0,-6.085929,5.669028,6.085929,18.155067,0,0,17.722322,0,12.119759,0,14.675819,8.172650,17.641819,8.294564,11.826644,8.785745,11.747355,9.390215,12.231384,8.808882,13.739669,10.297892,13.906298,10.464232,15.017751,0,-0.02062,0.00214,-0.02093,-0.01417,0.00787,-0.01215,0.00505,-0.00719,1.11894,0.09930,3.27656,6.085059,0.000000,7.218220,6.333758,6.085059,0.000000,4.772276,4.881624,4.443375,213.347473,17.722322,5.898993,3.501560,18.155067,12.119759,14.675819
0.140,0,0,0,0,0,0,0,0,0,0,0,0,0,0,0,0,0,0,0,0,136.684769,108.873016,75.003273,103.820175,15.982421,0,0,-6.099419,5.692477,6.099419,18.191309,0,0,17.703709,0,12.114612,0,14.662651,8.175381,17.626839,8.297991,11.813125,8.790916,11.750704,9.384165,12.235061,8.809148,13.750188,10.297436,13.917027,10.465592,15.028801,0,-0.01696,0.00867,-0.02072,-0.01351,0.00769,-0.01423,0.00906,-0.00352,1.13807,0.09907,3.27594,6.099905,0.000000,7.219204,6.341608,6.099905,0.000000,4.774668,4.879721,4.660591,213.751938,17.703709,5.902396,3.716896,18.191309,12.114612,14.662651
0.141,0,0,0,0,0,0,0,0,0,0,0,0,0,0,0,0,0,0,0,0,137.563614,109.740822,74.594154,103.254189,15.987164,0,0,-6.112512,5.799613,6.112512,18.225780,0,0,17.671843,0,12.107660,0,14.647662,8.172360,17.597130,8.300243,11.811932,8.797938,11.763196,9.377615,12.242314,8.810386,13.771402,10.297186,13.926412,10.465909,15.035106,0,-0.01823,0.00634,-0.02046,-0.01286,0.00726,-0.01199,0.01057,0.00104,1.15454,0.09933,3.27610,6.115191,0.000000,7.219866,6.360079,6.115191,0.000000,4.777145,4.874211,4.875996,214.131454,17.671843,5.906332,3.930513,18.225780,12.107660,14.647662
0.142,0,0,0,0,0,0,0,0,0,0,0,0,0,0,0,0,0,0,0,0,138.442474,110.608620,74.185043,102.688210,15.991907,0,0,-6.126867,5.906751,6.126867,18.260252,0,0,17.639977,0,12.100709,0,14.632673,8.169340,17.567421,8.302495,11.810738,8.804960,11.775689,9.371065,12.249568,8.811623,13.792617,10.296937,13.935797,10.466225,15.041411,0,-0.01292,0.00727,-0.01993,-0.01401,0.00854,-0.01349,-0.00037,0.00503,1.17001,0.09926,3.27628,6.130478,0.000000,7.220529,6.378549,6.130478,0.000000,4.779622,4.868700,5.091401,214.510956,17.639977,5.910267,4.144130,18.260252,12.100709,14.632673
0.143,0,0,0,0,0,0,0,0,0,0,0,0,0,0,0,0,0,0,0,0,139.321320,111.476425,73.775925,102.122223,15.996651,0,0,-6.144007,6.013887,6.144007,18.294724,0,0,17.608110,0,12.093758,0,14.617683,8.166320,17.537712,8.304748,11.809545,8.811982,11.788181,9.364515,12.256822,8.812860,13.813831,10.296687,13.945182,10.466541,15.047716,0,-0.01528,0.00443,-0.02029,-0.01361,0.00778,-0.01372,0.00494,-0.00647,1.19068,0.09895,3.27659,6.145765,0.000000,7.221191,6.397020,6.145765,0.000000,4.782099,4.863190,5.306806,214.890472,17.608110,5.914203,4.357747,18.294724,12.093758,14.617683
0.144,0,0,0,0,0,0,0,0,0,0,0,0,0,0,0,0,0,0,0,0,140.201584,112.292320,73.329208,101.496864,16.001513,0,0,-6.163254,6.127584,6.163254,18.329777,0,0,17.582750,0,12.088405,0,14.604255,8.164282,17.513323,8.307346,11.808903,8.820044,11.801548,9.359100,12.269596,8.814854,13.835891,10.297747,13.954316,10.467379,15.054808,0,-0.01976,0.00859,-0.02011,-0.01397,0.00864,-0.01136,0.00515,0.00350,1.21712,0.09904,3.27676,6.162657,0.000000,7.221878,6.415153,6.162657,0.000000,4.784542,4.856881,5.515115,215.276428,17.582750,5.920122,4.564237,18.329777,12.086665,14.604255
0.145,0,0,0,0,0,0,0,0,0,0,0,0,0,0,0,0,0,1,0,0,141.086578,112.934464,72.756615,100.672745,16.006769,0,0,-6.187145,6.263239,6.187145,18.366777,0,0,17.579172,0,12.088405,0,14.596051,8.165534,17.506739,8.311108,11.810107,8.831588,11.817838,9.357486,12.300852,8.819378,13.860784,10.303186,13.962611,10.469964,15.064532,0,-0.01749,-0.00531,-0.02006,-0.01362,0.00920,-0.01387,0.00326,0.00213,1.23555,0.09932,3.27645,6.184920,0.000000,7.222648,6.432158,6.184920,0.000000,4.786872,4.847899,5.699666,215.683945,17.579172,5.932681,4.746869,18.366777,12.079101,14.596051
0.146,0,0,0,0,0,0,0,0,0,0,0,0,0,0,0,0,0,0,0,0,141.971573,113.576607,72.184021,99.848618,16.012026,0,0,-6.210104,6.398894,6.210104,18.403778,0,0,17.575596,0,12.088405,0,14.587847,8.166786,17.500154,8.314870,11.811313,8.843132,11.834127,9.355872,12.332108,8.823903,13.885676,10.308626,13.970906,10.472549,15.074257,0,-0.01006,0.00657,-0.02023,-0.01445,0.00811,-0.01183,0.00646,0.01415,1.24410,0.09913,3.27632,6.207182,0.000000,7.223418,6.449162,6.207182,0.000000,4.789203,4.838917,5.884217,216.091461,17.575596,5.945239,4.929501,18.403778,12.071536,14.587847
0.147,0,0,0,0,0,0,0,0,0,0,0,0,0,0,0,0,0,0,0,0,142.856583,114.218750,71.611420,99.024490,16.017282,0,0,-6.231006,6.534549,6.231006,18.440781,0,0,17.572020,0,12.088405,0,14.579642,8.168038,17.493570,8.318631,11.812517,8.854676,11.850417,9.354258,12.363363,8.828427,13.910569,10.314067,13.979201,10.475135,15.083982,0,-0.01302,0.00194,-0.01881,-0.01376,0.00876,-0.01186,0.00721,0.03801,1.26019,0.09877,3.27677,6.229445,0.000000,7.224188,6.466166,6.229445,0.000000,4.791533,4.829936,6.068769,216.498978,17.572020,5.957797,5.112132,18.440781,12.063972,14.579642
0.148,0,0,0,0,0,0,0,0,0,0,0,0,0,0,0,0,0,0,0,0,143.754562,114.759720,71.051605,98.226852,16.026312,0,0,-6.248092,6.689162,6.248092,18.472157,0,0,17.566498,0,12.088405,0,14.571802,8.168833,17.487154,8.321308,11.814136,8.862051,11.866028,9.351982,12.390475,8.833288,13.936057,10.319655,13.986835,10.478040,15.093087,0,-0.02020,0.00226,-0.01655,-0.01402,0.00870,-0.01234,0.00759,0.00461,1.27206,0.09906,3.27711,6.248174,0.000000,7.224858,6.485038,6.248174,0.000000,4.793907,4.820572,6.243299,216.849136,17.566498,5.967338,5.285036,18.472157,12.056619,14.571802
0.149,0,0,0,0,0,0,0,0,0,0,0,0,0,0,0,0,0,0,0,0,144.696045,114.961952,70.534576,97.517899,16.047972,0,0,-6.256762,6.907243,6.256762,18.484707,0,0,17.554461,0,12.088405,0,14.565178,8.168094,17.481300,8.320355,11.817137,8.855466,11.879365,9.347493,12.403716,8.839274,13.963540,10.325741,13.992256,10.482015,15.100120,0,0.00383,0.01028,-0.02241,-0.01310,0.00787,-0.01165,0.00060,-0.00287,1.28065,0.09907,3.27704,6.255072,0.000000,7.225197,6.510160,6.255072,0.000000,4.796427,4.809933,6.384285,217.007233,17.554461,5.966778,5.425371,18.484707,12.049972,14.565178
0.150,0,0,0,0,0,0,0,0,0,0,0,0,0,0,0,0,0,0,0,0,145.637512,115.164185,70.017548,96.808937,16.069630,0,0,-6.264403,7.125324,6.264403,18.497255,0,0,17.542423,0,12.088405,0,14.558555,8.167355,17.475445,8.319403,11.820139,8.848881,11.892702,9.343004,12.416956,8.845261,13.991023,10.331826,13.997678,10.485990,15.107151,0,-0.01294,0.00714,-0.01848,-0.01242,0.00807,-0.01185,0.01326,0.04220,1.30079,0.09887,3.27705,6.261970,0.000000,7.225535,6.535282,6.261970,0.000000,4.798947,4.799293,6.525272,217.165314,17.542423,5.966218,5.565706,18.497255,12.043324,14.558555
0.151,0,0,0,0,0,0,0,0,0,0,0,0,0,0,0,0,0,0,0,0,146.578995,115.366417,69.500519,96.099983,16.091290,0,0,-6.269774,7.343405,6.269774,18.509806,0,0,17.530386,0,12.088405,0,14.551931,8.166615,17.469591,8.318449,11.823140,8.842297,11.906039,9.338515,12.430197,8.851248,14.018506,10.337912,14.003099,10.489964,15.114183,0,-0.01540,0.01283,-0.02531,-0.01318,0.00630,-0.01244,0.00158,-0.01119,1.32225,0.09859,3.27735,6.268867,0.000000,7.225874,6.560404,6.268867,0.000000,4.801467,4.788653,6.666258,217.323410,17.530386,5.965659,5.706041,18.509806,12.036677,14.551931
0.152,0,0,0,0,0,0,0,0,0,0,0,0,0,0,0,0,0,0,0,0,147.637756,115.282669,69.084839,95.564308,16.108196,0,0,-6.277540,7.563608,6.277540,18.529114,0,0,17.519873,0,12.088405,0,14.545889,8.165739,17.462450,8.317178,11.828728,8.840357,11.922182,9.341325,12.450846,8.857061,14.043684,10.344108,14.008737,10.494670,15.122890,0,-0.01666,0.00728,-0.01194,-0.01444,0.00795,-0.01265,0.00126,0.00117,1.33673,0.09876,3.27755,6.277756,0.000000,7.226262,6.584195,6.277756,0.000000,4.804003,4.777823,6.797932,217.550232,17.519157,5.967604,5.836714,18.529114,12.030157,14.545889
0.153,0,0,0,1,0,0,0,0,0,0,0,0,0,0,0,0,0,0,0,0,149.089218,114.241508,69.008461,95.608757,16.109188,0,0,-6.290586,7.790913,6.290586,18.571047,0,0,17.514454,0,12.088405,0,14.541794,8.164402,17.451008,8.314840,11.842973,8.853968,11.947715,9.368568,12.496300,8.862299,14.061144,10.350673,14.015098,10.501823,15.137197,0,-0.01501,0.00565,-0.02428,-0.01304,0.00853,-0.01336,0.00513,0.00041,1.34690,0.09881,3.27740,6.293311,0.000000,7.226816,6.603526,6.293311,0.000000,4.806593,4.766355,6.898431,218.007095,17.510628,5.977934,5.935038,18.571047,12.024063,14.541794
0.154,0,0,0,0,0,0,0,0,0,0,0,0,0,0,0,0,0,0,0,0,150.540665,113.200356,68.932083,95.653198,16.110180,0,0,-6.305083,8.018217,6.305083,18.612980,0,0,17.509035,0,12.088405,0,14.537699,8.163066,17.439564,8.312502,11.857217,8.867579,11.973248,9.395812,12.541754,8.867537,14.078604,10.357238,14.021460,10.508977,15.151506,0,-0.01680,0.01018,-0.02029,-0.01407,0.00758,-0.01114,0.00184,0.01095,1.35581,0.09871,3.27737,6.308866,0.000000,7.227370,6.622858,6.308866,0.000000,4.809183,4.754887,6.998930,218.463974,17.502100,5.988265,6.033361,18.612980,12.017968,14.537699
0.155,0,0,0,0,0,0,0,0,0,0,0,0,0,0,0,0,0,0,0,0,151.992126,112.159195,68.855705,95.697647,16.111172,0,0,-6.322778,8.245522,6.322778,18.654913,0,0,17.503616,0,12.088405,0,14.533604,8.161730,17.428122,8.310164,11.871461,8.881190,11.998780,9.423056,12.587208,8.872775,14.096065,10.363803,14.027821,10.516130,15.165814,0,-0.02982,-0.00816,-0.02187,-0.01325,0.00852,-0.01234,0.00467,-0.03100,1.36650,0.09842,3.27775,6.324421,0.000000,7.227924,6.642189,6.324421,0.000000,4.811772,4.743419,7.099430,218.920853,17.493572,5.998595,6.131685,18.654913,12.011874,14.533604
0.156,0,0,0,0,0,0,0,0,0,0,0,0,0,0,0,0,0,0,0,0,153.084778,111.057053,68.810066,95.754570,16.111961,0,0,-6.340048,8.441791,6.340048,18.691086,0,0,17.498730,0,12.088405,0,14.527596,8.160812,17.418730,8.309330,11.887764,8.886263,12.022929,9.444088,12.621219,8.877460,14.107915,10.369608,14.034042,10.522887,15.180124,0,-0.00665,0.00991,-0.01572,-0.01138,0.00704,-0.01241,0.00498,0.00925,1.37621,0.09869,3.27801,6.339786,0.000000,7.228523,6.660423,6.339786,0.000000,4.814301,4.731857,7.189270,219.314911,17.487720,6.009286,6.219649,18.691086,12.005484,14.527596
0.157,0,0,0,0,0,0,0,0,0,0,0,0,0,0,0,0,0,0,0,0,152.976257,109.750740,68.867355,95.853271,16.112082,0,0,-6.356381,8.534159,6.356381,18.707979,0,0,17.495619,0,12.088405,0,14.515182,8.161300,17.416208,8.313531,11.910959,8.862751,12.042449,9.444326,12.616920,8.880293,14.100987,10.372873,14.039796,10.528313,15.194440,0,-0.00134,0.00633,-0.01844,-0.01493,0.00807,-0.01339,0.00555,-0.00571,1.38412,0.09882,3.27786,6.354514,0.000000,7.229270,6.674986,6.354514,0.000000,4.816624,4.719984,7.243424,219.498688,17.490831,6.021183,6.272927,18.707979,11.998105,14.515182
0.158,0,0,0,0,0,0,0,0,0,0,0,0,0,0,0,0,0,0,0,0,152.867737,108.444435,68.924644,95.951973,16.112202,0,0,-6.371789,8.626526,6.371789,18.724873,0,0,17.492510,0,12.088405,0,14.502768,8.161787,17.413687,8.317733,11.934155,8.839238,12.061968,9.444565,12.612620,8.883126,14.094060,10.376138,14.045549,10.533739,15.208755,0,-0.01721,0.01189,-0.03164,-0.01314,0.00958,-0.01200,0.00462,-0.04020,1.39707,0.09856,3.27777,6.369241,0.000000,7.230018,6.689549,6.369241,0.000000,4.818947,4.708110,7.297579,219.682465,17.493940,6.033079,6.326206,18.724873,11.990726,14.502768
0.159,0,0,0,0,0,0,0,0,0,0,0,0,0,0,0,0,0,0,0,0,152.759201,107.138123,68.981926,96.050674,16.112322,0,0,-6.385155,8.718893,6.385155,18.741766,0,0,17.489399,0,12.088405,0,14.490354,8.162274,17.411165,8.321934,11.957349,8.815725,12.081487,9.444803,12.608321,8.885960,14.087132,10.379402,14.051303,10.539165,15.223071,0,-0.02872,0.00409,-0.00950,-0.01636,0.00828,-0.01245,0.00468,0.00501,1.41265,0.09828,3.27793,6.383969,0.000000,7.230765,6.704113,6.383969,0.000000,4.821271,4.696236,7.351734,219.866241,17.497051,6.044975,6.379484,18.741766,11.983348,14.490354
0.160,0,0,0,0,0,0,0,0,0,0,0,0,0,0,0,0,0,0,0,0,153.031509,105.832260,69.007339,96.036591,16.113701,0,0,-6.397526,8.793230,6.397526,18.762270,0,0,17.484221,0,12.088405,0,14.478473,8.163135,17.407581,8.324122,11.982232,8.796082,12.097675,9.444300,12.602091,8.889050,14.082968,10.382613,14.056184,10.543041,15.234876,0,-0.01246,0.00378,-0.02687,-0.01317,0.00859,-0.01339,0.00560,-0.07594,1.42434,0.09861,3.27783,6.397309,0.000000,7.231577,6.716710,6.397309,0.000000,4.823580,4.684371,7.396925,220.090546,17.495945,6.055971,6.423612,18.762270,11.982062,14.478473
0.161,0,0,0,0,0,0,0,0,0,0,0,0,0,0,0,0,0,0,0,0,154.578766,104.527893,68.926033,95.644936,16.119297,0,0,-6.407707,8.807205,6.407707,18.794865,0,0,17.472113,0,12.088405,0,14.468377,8.165243,17.400440,8.319573,12.012769,8.789393,12.102714,9.441313,12.589395,8.893003,14.088055,10.385645,14.058146,10.541726,15.238278,0,-0.02217,0.00238,-0.02242,-0.01408,0.00796,-0.01300,0.00378,0.00208,1.42640,0.09861,3.27683,6.406004,0.000000,7.232606,6.722727,6.406004,0.000000,4.825840,4.672532,7.412106,220.450485,17.480728,6.063949,6.437101,18.794865,12.001175,14.468377
0.162,0,0,0,0,0,0,0,0,0,0,0,0,0,0,0,0,0,0,0,0,156.126007,103.223534,68.844727,95.253288,16.124893,0,0,-6.417030,8.821180,6.417030,18.827459,0,0,17.460007,0,12.088405,0,14.458282,8.167353,17.393299,8.315024,12.043304,8.782704,12.107752,9.438325,12.576699,8.896956,14.093142,10.388676,14.060107,10.540412,15.241680,0,-0.02177,0.01368,-0.02018,-0.01330,0.00845,-0.01186,0.00558,-0.01280,1.43622,0.09823,3.27613,6.414699,0.000000,7.233635,6.728745,6.414699,0.000000,4.828100,4.660693,7.427286,220.810440,17.465511,6.071928,6.450591,18.827459,12.020288,14.458282
0.163,0,0,0,0,0,0,0,0,0,0,0,0,0,0,0,0,0,0,0,0,157.673264,101.919167,68.763428,94.861633,16.130491,0,0,-6.424464,8.835155,6.424464,18.860054,0,0,17.447899,0,12.088405,0,14.448185,8.169462,17.386158,8.310475,12.073840,8.776015,12.112789,9.435337,12.564003,8.900909,14.098229,10.391707,14.062068,10.539097,15.245082,0,-0.01299,0.01077,-0.02063,-0.01418,0.00725,-0.01205,0.00330,-0.00152,1.44270,0.09799,3.27643,6.423394,0.000000,7.234665,6.734762,6.423394,0.000000,4.830360,4.648855,7.442466,221.170380,17.450293,6.079906,6.464080,18.860054,12.039400,14.448185
0.164,0,0,0,0,0,0,0,0,0,0,0,0,0,0,0,0,0,0,0,0,158.792114,100.837135,68.692528,94.472687,16.135801,0,0,-6.431378,8.782151,6.431378,18.892874,0,0,17.436861,0,12.099610,0,14.438389,8.171316,17.379786,8.303089,12.100502,8.764942,12.125631,9.417491,12.553901,8.905536,14.105540,10.395153,14.064910,10.538808,15.249780,0,-0.01670,0.00145,-0.01799,-0.01377,0.00927,-0.01165,0.01506,0.00256,1.44745,0.09824,3.27667,6.431601,0.000000,7.235743,6.741569,6.431601,0.000000,4.832572,4.636997,7.452828,221.532516,17.436861,6.087652,6.472739,18.892874,12.067293,14.438389
0.165,0,0,0,0,0,0,0,0,0,0,0,0,0,0,0,0,0,0,0,0,158.476761,100.499435,68.656464,94.092804,16.140152,0,0,-6.437147,8.504912,6.437147,18.926456,0,0,17.429403,0,12.148329,0,14.429593,8.172316,17.375986,8.286202,12.114191,8.739192,12.164601,9.349900,12.552484,8.912419,14.120297,10.399987,14.070699,10.541950,15.258817,0,-0.02071,0.00744,-0.02238,-0.01469,0.00920,-0.01175,0.00176,0.00231,1.45491,0.09823,3.27667,6.438172,0.000000,7.236983,6.751018,6.438172,0.000000,4.834624,4.625074,7.447056,221.901947,17.429403,6.094623,6.465225,18.926456,12.124583,14.429593
0.166,0,0,0,0,0,0,0,0,0,0,0,0,0,0,0,0,0,0,0,0,158.161423,100.161728,68.620399,93.712914,16.144503,0,0,-6.443376,8.227674,6.443376,18.960037,0,0,17.421946,0,12.197047,0,14.420798,8.173316,17.372187,8.269317,12.127881,8.713443,12.203571,9.282310,12.551065,8.919304,14.135056,10.404820,14.076488,10.545092,15.267853,0,-0.03276,0.00780,-0.01839,-0.01433,0.00778,-0.01146,0.00676,-0.00667,1.45521,0.09795,3.27660,6.444743,0.000000,7.238224,6.760467,6.444743,0.000000,4.836676,4.613152,7.441284,222.271393,17.421946,6.101593,6.457711,18.960037,12.181874,14.420798
0.167,0,0,0,0,0,0,0,0,0,0,0,0,0,0,0,0,0,0,0,0,157.846069,99.824020,68.584343,93.333031,16.148853,0,0,-6.450622,7.950435,6.450622,18.993620,0,0,17.414490,0,12.245766,0,14.412003,8.174315,17.368389,8.252430,12.141571,8.687693,12.242541,9.214719,12.549648,8.926188,14.149813,10.409655,14.082275,10.548234,15.276889,0,-0.01417,0.00070,-0.02164,-0.01320,0.01016,-0.01156,0.00263,0.01423,1.46125,0.09767,3.27630,6.451313,0.000000,7.239465,6.769916,6.451313,0.000000,4.838727,4.601230,7.435512,222.640839,17.414490,6.108563,6.450196,18.993620,12.239164,14.412003
0.168,0,0,0,0,0,0,0,0,0,0,0,0,0,0,0,0,0,0,0,0,157.014938,99.709183,68.520851,92.976486,16.153416,0,0,-6.459041,7.718432,6.459041,19.027300,0,0,17.405844,0,12.300387,0,14.404276,8.176744,17.363214,8.238496,12.159797,8.671101,12.271277,9.183949,12.556341,8.932866,14.164209,10.415316,14.088240,10.552292,15.285376,0,-0.02341,-0.00377,-0.01805,-0.01270,0.00780,-0.01283,0.00650,0.00059,1.46723,0.09783,3.27613,6.458839,0.000000,7.240895,6.778304,6.458839,0.000000,4.840746,4.589387,7.426745,223.011551,17.405844,6.116647,6.439682,19.027300,12.300387,14.404276
0.169,0,0,0,0,0,0,0,0,0,0,0,0,0,0,0,0,0,0,0,0,154.457031,100.340469,68.365524,92.698074,16.158695,0,0,-6.470046,7.637874,6.470046,19.061306,0,0,17.393221,0,12.374775,0,14.400124,8.183954,17.353441,8.234447,12.193210,8.685163,12.265755,9.276449,12.590190,8.938860,14.177402,10.423743,14.094790,10.559414,15.292022,0,-0.03217,-0.01353,-0.02292,-0.01325,0.00872,-0.01092,0.00424,0.00152,1.47283,0.09801,3.27643,6.469561,0.000000,7.242961,6.783140,6.469561,0.000000,4.842654,4.577809,7.407953,223.386536,17.393221,6.128461,6.419127,19.061306,12.374775,14.400124
0.170,0,0,0,0,0,0,0,0,0,0,0,0,0,0,0,0,0,0,0,0,151.899139,100.971756,68.210205,92.419662,16.163973,0,0,-6.480890,7.557316,6.480890,19.095312,0,0,17.380596,0,12.449162,0,14.395972,8.191164,17.343666,8.230396,12.226622,8.699225,12.260232,9.368950,12.624039,8.944853,14.190593,10.432172,14.101341,10.566536,15.298668,0,-0.01615,0.00085,-0.02625,-0.01546,0.00821,-0.01212,0.00912,0.02296,1.47233,0.09785,3.27686,6.480283,0.000000,7.245028,6.787976,6.480283,0.000000,4.844563,4.566232,7.389162,223.761505,17.380596,6.140275,6.398571,19.095312,12.449162,14.395972
0.171,0,0,0,0,0,0,0,0,0,0,0,0,0,0,0,0,0,0,0,0,149.341232,101.603035,68.054886,92.141258,16.169250,0,0,-6.491381,7.476758,6.491381,19.129318,0,0,17.367973,0,12.523550,0,14.391820,8.198375,17.333893,8.226347,12.260035,8.713288,12.254709,9.461451,12.657887,8.950847,14.203785,10.440599,14.107893,10.573658,15.305314,0,-0.02248,0.00240,-0.01572,-0.01236,0.00869,-0.01194,0.00834,-0.02941,1.47531,0.09755,3.27770,6.491004,0.000000,7.247094,6.792812,6.491004,0.000000,4.846472,4.554654,7.370370,224.136490,17.367973,6.152089,6.378016,19.129318,12.523550,14.391820
0.172,0,0,0,0,0,0,0,0,0,0,0,0,0,0,0,0,0,0,0,0,148.714905,101.482651,67.933578,91.921806,16.173582,0,0,-6.500146,7.413274,6.500146,19.155502,0,0,17.355162,0,12.595951,0,14.386095,8.203950,17.325363,8.226337,12.295375,8.730660,12.260916,9.538080,12.690480,8.956304,14.217201,10.447742,14.114206,10.580125,15.310889,0,-0.01156,0.00430,-0.02042,-0.01323,0.00750,-0.01340,0.00184,-0.00094,1.47730,0.09793,3.27820,6.499707,0.000000,7.249093,6.798570,6.499707,0.000000,4.848289,4.543258,7.349257,224.494217,17.355162,6.162004,6.355217,19.161825,12.595951,14.386095
0.173,0,0,0,0,0,0,0,0,0,0,0,0,0,0,0,0,0,0,0,0,154.555176,98.845795,67.926155,91.899750,16.174738,0,0,-6.505105,7.406954,6.505105,19.155502,0,0,17.341719,0,12.661698,0,14.375104,8.204049,17.321003,8.239856,12.337170,8.759112,12.306388,9.561580,12.718869,8.959965,14.231371,10.450577,14.119724,10.584401,15.312881,0,-0.02310,0.01447,-0.01906,-0.01601,0.00785,-0.01218,0.00608,0.00351,1.47926,0.09813,3.27751,6.501651,0.000000,7.250864,6.807409,6.501651,0.000000,4.849799,4.532470,7.320374,224.794250,17.341719,6.165557,6.324907,19.189316,12.661698,14.375104
0.174,0,0,0,0,0,0,0,0,0,0,0,0,0,0,0,0,0,0,0,0,160.395462,96.208931,67.918724,91.877693,16.175896,0,0,-6.508323,7.400633,6.508323,19.155502,0,0,17.328274,0,12.727447,0,14.364112,8.204148,17.316643,8.253374,12.378964,8.787564,12.351861,9.585078,12.747258,8.963627,14.245540,10.453413,14.125243,10.588677,15.314874,0,-0.04243,0.00087,-0.02116,-0.01184,0.00793,-0.01321,0.00601,-0.05298,1.47879,0.09796,3.27701,6.503594,0.000000,7.252635,6.816248,6.503594,0.000000,4.851309,4.521682,7.291490,225.094284,17.328274,6.169111,6.294597,19.216808,12.727447,14.364112
0.175,0,0,0,0,0,0,0,0,0,0,0,0,0,0,0,0,0,0,0,0,166.235733,93.572075,67.911301,91.855629,16.177053,0,0,-6.507707,7.394313,6.507707,19.155502,0,0,17.314831,0,12.793194,0,14.353121,8.204247,17.312283,8.266891,12.420759,8.816016,12.397333,9.608578,12.775647,8.967288,14.259709,10.456248,14.130761,10.592954,15.316866,0,-0.01922,0.00583,-0.02167,-0.01402,0.00848,-0.01154,0.00764,-0.03921,1.48171,0.09757,3.27716,6.505537,0.000000,7.254407,6.825088,6.505537,0.000000,4.852819,4.510894,7.262607,225.394318,17.314831,6.172665,6.264287,19.244299,12.793194,14.353121
0.176,0,0,0,0,0,0,0,0,0,0,0,0,0,0,0,0,0,0,0,0,170.741348,90.740311,67.990013,91.854965,16.181074,0,0,-6.506179,7.438942,6.506179,19.155502,0,0,17.301567,0,12.856276,0,14.338179,8.203837,17.307911,8.285207,12.457858,8.840314,12.449320,9.624225,12.798040,8.970981,14.271366,10.459178,14.136272,10.597456,15.318812,0,-0.01166,0.00513,-0.02467,-0.01343,0.00883,-0.01273,0.00407,0.01692,1.48167,0.09783,3.27727,6.506915,0.000000,7.256207,6.833961,6.506915,0.000000,4.854240,4.500156,7.231790,225.684494,17.301567,6.175754,6.232105,19.270618,12.856276,14.338179
0.177,0,0,0,0,0,0,0,0,0,0,0,0,0,0,0,0,0,0,0,0,170.778809,87.256020,68.357109,91.925919,16.194679,0,0,-6.502644,7.654142,6.502644,19.155502,0,0,17.288900,0,12.910430,0,14.310012,8.201724,17.303503,8.319580,12.479239,8.850703,12.523111,9.613586,12.800361,8.974780,14.274612,10.462422,14.141761,10.602712,15.320608,0,-0.01784,0.00407,-0.02154,-0.01439,0.00833,-0.01083,0.00297,0.01348,1.48206,0.09797,3.27719,6.506402,0.000000,7.258099,6.842950,6.506402,0.000000,4.855361,4.489582,7.194503,225.941605,17.288900,6.177283,6.193656,19.293018,12.910430,14.310012
0.178,0,0,0,0,0,0,0,0,0,0,0,0,0,0,0,0,0,0,0,0,170.816254,83.771736,68.724205,91.996872,16.208284,0,0,-6.500847,7.869342,6.500847,19.155502,0,0,17.276236,0,12.964584,0,14.281845,8.199611,17.299093,8.353953,12.500620,8.861093,12.596904,9.602947,12.802682,8.978580,14.277859,10.465666,14.147248,10.607968,15.322404,0,-0.01965,0.00340,-0.03543,-0.01440,0.00765,-0.01314,0.00268,0.01034,1.48299,0.09778,3.27708,6.505888,0.000000,7.259991,6.851938,6.505888,0.000000,4.856482,4.479007,7.157216,226.198730,17.276236,6.178813,6.155207,19.315416,12.964584,14.281845
0.179,0,0,0,0,0,0,0,0,0,0,0,0,0,0,0,0,0,0,0,0,170.853699,80.287445,69.091301,92.067825,16.221889,0,0,-6.502882,8.084542,6.502882,19.155502,0,0,17.263571,0,13.018739,0,14.253678,8.197497,17.294685,8.388327,12.522000,8.871482,12.670696,9.592309,12.805002,8.982379,14.281105,10.468910,14.152736,10.613224,15.324199,0,-0.01865,0.00026,-0.01269,-0.01461,0.00800,-0.01233,0.00424,0.01200,1.48205,0.09757,3.27685,6.505375,0.000000,7.261884,6.860927,6.505375,0.000000,4.857603,4.468433,7.119928,226.455841,17.263571,6.180343,6.116758,19.337816,13.018739,14.253678
0.180,0,0,0,0,0,0,0,0,0,0,0,0,0,0,0,0,0,0,0,0,171.236649,76.901733,69.447701,92.083824,16.231756,0,0,-6.508662,8.266944,6.508662,19.155502,0,0,17.251444,0,13.071074,0,14.230965,8.195571,17.290653,8.416995,12.552103,8.884440,12.732065,9.584937,12.806329,8.986307,14.284280,10.472495,14.158258,10.617526,15.326502,0,-0.01879,0.01008,-0.01432,-0.01423,0.00859,-0.01243,0.00181,-0.00545,1.48413,0.09786,3.27667,6.508421,0.000000,7.263725,6.869020,6.508421,0.000000,4.858724,4.458090,7.078683,226.688644,17.251444,6.185637,6.074449,19.358322,13.071074,14.230965
0.181,0,0,0,0,0,0,0,0,0,0,0,0,0,0,0,0,0,0,0,0,172.776245,73.846031,69.768265,91.915848,16.229103,0,0,-6.522705,8.339545,6.522705,19.155502,0,0,17.241116,0,13.117326,0,14.226505,8.194274,17.287882,8.426566,12.611404,8.905998,12.751843,9.588501,12.804324,8.990668,14.287215,10.477221,14.163899,10.618634,15.330502,0,-0.01870,0.00236,-0.02610,-0.01455,0.00896,-0.01199,0.01068,0.00702,1.48417,0.09800,3.27667,6.523380,0.000000,7.265396,6.874121,6.523380,0.000000,4.859848,4.448519,7.024186,226.840057,17.241116,6.203531,6.019216,19.372494,13.117326,14.226505
0.182,0,0,0,0,0,0,0,0,0,0,0,0,0,0,0,0,0,0,0,0,174.315857,70.790337,70.088821,91.747871,16.226450,0,0,-6.537284,8.412147,6.537284,19.155502,0,0,17.230787,0,13.163577,0,14.222046,8.192977,17.285112,8.436136,12.670707,8.927556,12.771622,9.592066,12.802320,8.995029,14.290151,10.481949,14.169540,10.619741,15.334501,0,-0.01246,0.00193,-0.01127,-0.01351,0.00787,-0.01139,0.00549,-0.00001,1.48243,0.09788,3.27669,6.538340,0.000000,7.267067,6.879221,6.538340,0.000000,4.860972,4.438949,6.969688,226.991470,17.230787,6.221426,5.963983,19.386663,13.163577,14.222046
0.183,0,0,0,0,0,0,0,0,0,0,0,0,0,0,0,0,0,0,0,0,175.855453,67.734634,70.409386,91.579887,16.223795,0,0,-6.553045,8.484748,6.553045,19.155502,0,0,17.220459,0,13.209828,0,14.217587,8.191679,17.282341,8.445707,12.730008,8.949113,12.791400,9.595631,12.800317,8.999391,14.293086,10.486675,14.175181,10.620850,15.338501,0,-0.01741,0.00793,-0.01992,-0.01385,0.00809,-0.01146,0.00664,-0.00403,1.48391,0.09804,3.27677,6.553299,0.000000,7.268738,6.884321,6.553299,0.000000,4.862096,4.429379,6.915191,227.142883,17.220459,6.239320,5.908751,19.400835,13.209828,14.217587
0.184,0,0,0,0,0,0,0,0,0,0,0,0,0,0,0,0,0,0,0,0,177.203522,64.594437,70.653107,91.375961,16.221235,0,0,-6.565760,8.506573,6.565760,19.155502,0,0,17.211578,0,13.255476,0,14.209466,8.191343,17.275803,8.454764,12.795153,8.964154,12.815489,9.587445,12.796117,9.003778,14.298275,10.491343,14.181078,10.622494,15.342927,0,-0.01313,0.00386,-0.02133,-0.01299,0.00870,-0.01225,0.00720,-0.02319,1.48483,0.09845,3.27684,6.565546,0.000000,7.270405,6.888606,6.565546,0.000000,4.863259,4.420352,6.856531,227.271530,17.211578,6.254717,5.849465,19.412903,13.255476,14.209466
0.185,0,0,0,0,0,0,0,0,0,0,0,0,0,0,0,0,0,0,0,0,177.910339,61.171375,70.639572,91.051666,16.218987,0,0,-6.571757,8.358408,6.571757,19.155502,0,0,17.207535,0,13.299103,0,14.189092,8.194227,17.256645,8.462104,12.879858,8.957377,12.854009,9.539925,12.784566,9.008250,14.311011,10.495813,14.187832,10.625935,15.348777,0,-0.01750,0.00636,-0.02206,-0.01236,0.00848,-0.01311,0.00328,0.00185,1.48406,0.09869,3.27692,6.568709,0.000000,7.272059,6.890162,6.568709,0.000000,4.864552,4.413144,6.783938,227.323944,17.207535,6.261752,5.776611,19.417933,13.299103,14.189092
0.186,0,0,0,0,0,0,0,0,0,0,0,0,0,0,0,0,0,0,0,0,178.617172,57.748310,70.626045,90.727371,16.216740,0,0,-6.576116,8.210243,6.576116,19.155502,0,0,17.203493,0,13.342731,0,14.168716,8.197110,17.237488,8.469444,12.964562,8.950602,12.892529,9.492404,12.773014,9.012723,14.323747,10.500283,14.194586,10.629375,15.354627,0,-0.01886,0.00545,-0.01876,-0.01295,0.00826,-0.01148,0.00699,0.00303,1.48293,0.09868,3.27703,6.571873,0.000000,7.273713,6.891718,6.571873,0.000000,4.865845,4.405936,6.711346,227.376373,17.203493,6.268787,5.703758,19.422960,13.342731,14.168716
0.187,0,0,0,0,0,0,0,0,0,0,0,0,0,0,0,0,0,0,0,0,179.323990,54.325249,70.612511,90.403076,16.214491,0,0,-6.576861,8.062078,6.576861,19.155502,0,0,17.199450,0,13.386357,0,14.148342,8.199994,17.218330,8.476784,13.049267,8.943825,12.931048,9.444883,12.761463,9.017197,14.336482,10.504753,14.201341,10.632817,15.360477,0,-0.01689,0.00438,-0.02372,-0.01294,0.00873,-0.01104,0.00502,0.01811,1.48316,0.09909,3.27726,6.575037,0.000000,7.275367,6.893274,6.575037,0.000000,4.867138,4.398728,6.638752,227.428787,17.199450,6.275822,5.630904,19.427990,13.386357,14.148342
0.188,0,0,0,0,0,0,0,0,0,0,0,0,0,0,0,0,0,0,0,0,179.784775,51.126129,70.582344,90.027245,16.212828,0,0,-6.578222,7.886404,6.578222,19.155502,0,0,17.192858,0,13.432037,0,14.127782,8.202254,17.199463,8.484469,13.128928,8.937830,12.969474,9.407617,12.757161,9.021645,14.350083,10.509006,14.207993,10.636356,15.366421,0,-0.01744,0.01091,-0.02004,-0.01392,0.00831,-0.01191,0.00648,0.00448,1.48254,0.09951,3.27735,6.578226,0.000000,7.277134,6.894511,6.578226,0.000000,4.868453,4.393083,6.563571,227.478256,17.192858,6.283019,5.555479,19.432693,13.432037,14.127782
0.189,0,0,0,0,0,0,0,0,0,0,0,0,0,0,0,0,0,0,0,0,179.421890,48.676743,70.496490,89.478859,16.213114,0,0,-6.580941,7.618629,6.580941,19.155502,0,0,17.177731,0,13.484591,0,14.106603,8.202429,17.181564,8.493313,13.191703,8.934452,13.007586,9.404681,12.777129,9.026009,14.366580,10.512529,14.214306,10.640224,15.372679,0,-0.01696,0.01024,-0.01887,-0.01255,0.00817,-0.01289,0.00521,-0.04780,1.48461,0.09949,3.27697,6.581499,0.000000,7.279280,6.894682,6.581499,0.000000,4.869841,4.392670,6.479725,227.517838,17.177731,6.290757,5.471446,19.436308,13.484591,14.106603
0.190,0,0,0,0,0,0,0,0,0,0,0,0,0,0,0,0,0,0,0,0,179.059006,46.227356,70.410645,88.930481,16.213402,0,0,-6.583981,7.350856,6.583981,19.155502,0,0,17.162603,0,13.537144,0,14.085423,8.202604,17.163666,8.502157,13.254478,8.931074,13.045697,9.401746,12.797098,9.030373,14.383078,10.516053,14.220618,10.644093,15.378936,0,-0.02024,0.00337,-0.02548,-0.01464,0.00765,-0.01211,0.00120,0.01170,1.48474,0.09978,3.27679,6.584772,0.000000,7.281426,6.894854,6.584772,0.000000,4.871230,4.392257,6.395879,227.557434,17.162603,6.298495,5.387412,19.439922,13.537144,14.085423
0.191,0,0,0,0,0,0,0,0,0,0,0,0,0,0,0,0,0,0,0,0,178.696121,43.777973,70.324791,88.382095,16.213690,0,0,-6.587729,7.083082,6.587729,19.155502,0,0,17.147476,0,13.589697,0,14.064244,8.202779,17.145767,8.511001,13.317253,8.927696,13.083809,9.398809,12.817066,9.034737,14.399575,10.519578,14.226931,10.647961,15.385194,0,-0.01678,0.00204,-0.01708,-0.01307,0.00841,-0.01351,0.00406,-0.01842,1.48369,0.10012,3.27732,6.588045,0.000000,7.283572,6.895025,6.588045,0.000000,4.872618,4.391843,6.312033,227.597015,17.147476,6.306233,5.303378,19.443539,13.589697,14.064244
0.192,0,0,0,0,0,0,0,0,0,0,0,0,0,0,0,0,0,0,0,0,178.364517,41.613415,70.228188,87.690422,16.214937,0,0,-6.590919,6.768132,6.590919,19.155502,0,0,17.132954,0,13.644953,0,14.042969,8.202372,17.127523,8.516896,13.378555,8.921934,13.123604,9.393825,12.834196,9.039684,14.417963,10.522984,14.232875,10.651937,15.391385,0,-0.02051,0.00399,-0.01409,-0.01328,0.00805,-0.01286,0.00546,0.00102,1.48329,0.10001,3.27762,6.590685,0.000000,7.285709,6.894827,6.590685,0.000000,4.874055,4.392595,6.225404,227.618347,17.132954,6.313482,5.216653,19.445385,13.644953,14.042969
0.193,0,0,0,0,0,0,0,0,0,0,0,0,0,0,0,0,0,0,0,0,178.137619,40.402409,70.095566,86.519051,16.219395,0,0,-6.592875,6.295243,6.592875,19.155502,0,0,17.120453,0,13.709259,0,14.021373,8.200019,17.108124,8.512918,13.434925,8.908193,13.169031,9.381980,12.841820,9.046583,14.442677,10.525993,14.237583,10.656277,15.397355,0,-0.01392,0.00279,-0.02426,-0.01450,0.00873,-0.01180,0.00617,-0.01250,1.48284,0.09983,3.27709,6.591207,0.000000,7.287812,6.893396,6.591207,0.000000,4.875657,4.397247,6.129457,227.578568,17.120453,6.319091,5.120917,19.441317,13.709259,14.021373
0.194,0,0,0,0,0,0,0,0,0,0,0,0,0,0,0,0,0,0,0,0,177.910706,39.191406,69.962944,85.347687,16.223852,0,0,-6.594005,5.822355,6.594005,19.155502,0,0,17.107952,0,13.773564,0,13.999776,8.197665,17.088722,8.508941,13.491295,8.894451,13.214458,9.370134,12.849443,9.053482,14.467393,10.529003,14.242292,10.660616,15.403325,0,-0.01470,0.00455,-0.02318,-0.01362,0.00931,-0.01192,0.00334,0.01074,1.48515,0.10011,3.27689,6.591729,0.000000,7.289916,6.891966,6.591729,0.000000,4.877258,4.401898,6.033510,227.538788,17.107952,6.324701,5.025181,19.437248,13.773564,13.999776
0.195,0,0,0,0,0,0,0,0,0,0,0,0,0,0,0,0,0,0,0,0,177.683807,37.980400,69.830322,84.176315,16.228310,0,0,-6.593310,5.349466,6.593310,19.155502,0,0,17.095451,0,13.837871,0,13.978179,8.195312,17.069321,8.504963,13.547665,8.880711,13.259886,9.358290,12.857067,9.060382,14.492108,10.532013,14.247001,10.664955,15.409296,0,-0.01964,0.00893,-0.01826,-0.01420,0.00820,-0.01356,0.00265,-0.00000,1.48455,0.10014,3.27788,6.592251,0.000000,7.292019,6.890535,6.592251,0.000000,4.878859,4.406550,5.937563,227.499008,17.095451,6.330310,4.929445,19.433180,13.837871,13.978179
0.196,0,0,0,0,0,0,0,0,0,0,0,0,0,0,0,0,0,0,0,0,177.497238,36.777630,69.701736,82.968102,16.231585,0,0,-6.591860,4.923974,6.591860,19.155502,0,0,17.082512,0,13.899363,0,13.958626,8.194509,17.052069,8.503086,13.604071,8.869136,13.304946,9.344872,12.870671,9.067817,14.519855,10.535587,14.252213,10.667576,15.415719,0,-0.01271,0.00406,-0.02832,-0.01397,0.00845,-0.01128,0.00901,0.00615,1.48237,0.09975,3.27838,6.591967,0.000000,7.294070,6.889172,6.591967,0.000000,4.880444,4.411958,5.839745,227.441406,17.082512,6.335209,4.831917,19.427580,13.899363,13.958626
0.197,0,0,0,0,0,0,0,0,0,0,0,0,0,0,0,0,0,0,0,0,177.445679,35.602428,69.586685,81.636536,16.230900,0,0,-6.588745,4.657154,6.588745,19.155502,0,0,17.068111,0,13.951431,0,13.945912,8.198893,17.042015,8.508238,13.660596,8.864813,13.348775,9.326194,12.904292,9.077046,14.557754,10.541055,14.259106,10.664446,15.423661,0,-0.02032,0.00344,-0.01752,-0.01326,0.00817,-0.01198,0.00303,0.00824,1.48375,0.09949,3.27716,6.588984,0.000000,7.295941,6.888033,6.588984,0.000000,4.881975,4.419900,5.735662,227.324112,17.068111,6.337728,4.728391,19.416853,13.951431,13.945912
0.198,0,0,0,0,0,0,0,0,0,0,0,0,0,0,0,0,0,0,0,0,177.394119,34.427227,69.471626,80.304962,16.230215,0,0,-6.585704,4.390334,6.585704,19.155502,0,0,17.053711,0,14.003500,0,13.933198,8.203276,17.031960,8.513390,13.717122,8.860491,13.392605,9.307515,12.937914,9.086276,14.595651,10.546521,14.266000,10.661316,15.431603,0,-0.01393,0.00379,-0.01891,-0.01339,0.00864,-0.01266,-0.00097,0.00352,1.48342,0.09973,3.27630,6.586002,0.000000,7.297812,6.886895,6.586002,0.000000,4.883506,4.427843,5.631579,227.206818,17.053711,6.340246,4.624865,19.406126,14.003500,13.933198
0.199,1,0,0,0,0,0,0,0,0,0,0,0,0,0,0,0,0,0,0,0,177.342575,33.252026,69.356567,78.973396,16.229530,0,0,-6.582829,4.123513,6.582829,19.155502,0,0,17.039310,0,14.055569,0,13.920485,8.207660,17.021904,8.518541,13.773648,8.856168,13.436435,9.288836,12.971536,9.095507,14.633549,10.551988,14.272894,10.658185,15.439546,0,-0.01805,0.00352,-0.01893,-0.01397,0.00828,-0.01203,0.00724,0.00289,1.48099,0.09965,3.27668,6.583019,0.000000,7.299683,6.885756,6.583019,0.000000,4.885037,4.435785,5.527496,227.089523,17.039310,6.342764,4.521338,19.395399,14.055569,13.920485
0.200,0,0,0,0,0,0,0,0,0,0,0,0,0,0,0,0,0,0,0,0,177.097748,31.922346,69.327789,77.729080,16.231157,0,0,-6.580763,3.869872,6.580763,19.155502,0,0,17.025940,0,14.106542,0,13.910004,8.211252,17.010077,8.525822,13.833500,8.854830,13.480853,9.269515,13.005532,9.104734,14.671505,10.556443,14.280820,10.656151,15.449154,0,-0.01767,0.00258,-0.02123,-0.01340,0.00852,-0.01283,-0.00136,0.02025,1.48309,0.09924,3.27689,6.580712,0.000000,7.301453,6.884482,6.580712,0.000000,4.886472,4.444117,5.423193,226.949478,17.025940,6.345963,4.417711,19.382368,14.106542,13.910004
0.201,0,0,0,0,0,0,0,0,0,0,0,0,0,0,0,0,0,0,0,0,176.205948,30.075495,69.587837,76.776855,16.240520,0,0,-6.580482,3.660352,6.580482,19.155502,0,0,17.016026,0,14.153846,0,13.906997,8.212198,16.992317,8.540226,13.904484,8.863483,13.527244,9.248043,13.040786,9.113956,14.709655,10.557512,14.292203,10.657786,15.464340,0,-0.01599,0.00308,-0.01944,-0.01272,0.00977,-0.01090,0.01141,0.02719,1.48412,0.09928,3.27651,6.580666,0.000000,7.302887,6.882753,6.580666,0.000000,4.887583,4.453752,5.318152,226.733231,17.016026,6.351442,4.313746,19.361616,14.153846,13.906997
0.202,0,0,0,0,0,0,0,0,0,0,0,0,0,0,0,0,0,0,0,0,175.314133,28.228645,69.847893,75.824631,16.249886,0,0,-6.580337,3.450831,6.580337,19.155502,0,0,17.006111,0,14.201150,0,13.903990,8.213144,16.974558,8.554630,13.975469,8.872137,13.573633,9.226571,13.076038,9.123179,14.747806,10.558581,14.303585,10.659422,15.479527,0,-0.01567,0.00328,-0.01874,-0.01246,0.00768,-0.01264,0.01302,0.01818,1.48509,0.09950,3.27625,6.580619,0.000000,7.304320,6.881023,6.580619,0.000000,4.888693,4.463386,5.213111,226.516998,17.006111,6.356920,4.209782,19.340864,14.201150,13.903990
0.203,0,0,0,0,0,0,0,0,0,0,0,0,0,0,0,0,0,0,0,0,174.422318,26.381794,70.107948,74.872406,16.259249,0,0,-6.580496,3.241311,6.580496,19.155502,0,0,16.996197,0,14.248454,0,13.900983,8.214089,16.956799,8.569035,14.046453,8.880791,13.620024,9.205099,13.111292,9.132401,14.785955,10.559651,14.314968,10.661057,15.494714,0,-0.01802,0.00433,-0.01997,-0.01351,0.00729,-0.01230,0.00692,0.01747,1.48431,0.09929,3.27640,6.580573,0.000000,7.305754,6.879294,6.580573,0.000000,4.889804,4.473020,5.108070,226.300751,16.996197,6.362398,4.105818,19.320112,14.248454,13.900983
0.204,0,0,0,0,0,0,0,0,0,0,0,0,0,0,0,0,0,0,0,0,173.781906,24.710514,70.386063,73.867027,16.268417,0,0,-6.579915,3.048676,6.579915,19.155502,0,0,16.985126,0,14.299630,0,13.892879,8.214779,16.939039,8.583611,14.116650,8.887361,13.667923,9.181731,13.147284,9.141737,14.823097,10.561083,14.326848,10.662726,15.509059,0,-0.02056,0.00341,-0.02060,-0.01415,0.00852,-0.01255,-0.00086,-0.00088,1.48403,0.09906,3.27652,6.579729,0.000000,7.307115,6.877807,6.579729,0.000000,4.890861,4.482142,5.003345,226.117691,16.985126,6.367070,4.002010,19.302431,14.299630,13.892451
0.205,0,0,0,0,0,0,0,0,0,0,0,0,0,0,0,0,0,0,0,0,173.983154,23.627016,70.724625,72.683723,16.276936,0,0,-6.577701,2.912572,6.577701,19.155502,0,0,16.970184,0,14.363769,0,13.867709,8.214609,16.921274,8.598764,14.184206,8.886954,13.720879,9.152016,13.185748,9.151451,14.856860,10.563730,14.340392,10.664506,15.520586,0,-0.02421,0.00342,-0.01312,-0.01298,0.00803,-0.01223,0.01004,0.00257,1.48335,0.09949,3.27652,6.576213,0.000000,7.308232,6.877132,6.576213,0.000000,4.891737,4.489552,4.899679,226.045746,16.970184,6.369042,3.898727,19.295029,14.363769,13.865422
0.206,0,0,0,0,0,0,0,0,0,0,0,0,0,0,0,0,0,0,0,0,174.184402,22.543516,71.063194,71.500412,16.285454,0,0,-6.574736,2.776467,6.574736,19.155502,0,0,16.955242,0,14.427907,0,13.842539,8.214439,16.903509,8.613917,14.251762,8.886548,13.773834,9.122299,13.224213,9.161165,14.890623,10.566377,14.353937,10.666285,15.532113,0,-0.01817,0.00428,-0.02706,-0.01301,0.00881,-0.01197,0.01260,0.00629,1.48503,0.09950,3.27657,6.572697,0.000000,7.309349,6.876458,6.572697,0.000000,4.892612,4.496961,4.796011,225.973785,16.955242,6.371015,3.795444,19.287626,14.427907,13.838394
0.207,0,0,0,0,0,0,0,0,0,0,0,0,0,0,0,0,0,0,0,0,174.385651,21.460018,71.401764,70.317108,16.293972,0,0,-6.570114,2.640363,6.570114,19.155502,0,0,16.940300,0,14.492045,0,13.817369,8.214269,16.885746,8.629070,14.319319,8.886142,13.826790,9.092583,13.262677,9.170880,14.924386,10.569023,14.367481,10.668064,15.543640,0,-0.01459,0.00447,-0.01807,-0.01433,0.00721,-0.01153,0.00502,0.00092,1.48199,0.09938,3.27680,6.569181,0.000000,7.310465,6.875783,6.569181,0.000000,4.893487,4.504370,4.692345,225.901825,16.940300,6.372987,3.692161,19.280224,14.492045,13.811366
0.208,0,0,0,0,0,0,0,0,0,0,0,0,0,0,0,0,0,0,0,0,174.761337,20.667038,71.718201,69.031136,16.301533,0,0,-6.565063,2.563275,6.565063,19.155502,0,0,16.926617,0,14.556249,0,13.797562,8.214767,16.868589,8.644584,14.388330,8.883357,13.880447,9.063838,13.299893,9.182531,14.959978,10.571363,14.380436,10.668758,15.553886,0,-0.01739,0.00373,-0.02281,-0.01438,0.00780,-0.01170,0.01046,0.00063,1.48306,0.09927,3.27696,6.565212,0.000000,7.311414,6.875065,6.565212,0.000000,4.894281,4.511741,4.588065,225.811584,16.926617,6.374535,3.588348,19.271229,14.556249,13.790981
0.209,0,0,0,0,0,0,0,0,0,0,0,0,0,0,0,0,0,0,0,0,175.720978,20.846661,71.960564,67.401443,16.305885,0,0,-6.559065,2.683765,6.559065,19.155502,0,0,16.917143,0,14.620666,0,13.795703,8.217498,16.853468,8.661304,14.462213,8.872611,13.936460,9.038347,13.332930,9.200669,15.001693,10.572676,14.391418,10.665821,15.559842,0,-0.01885,0.00348,-0.02034,-0.01379,0.01017,-0.01205,-0.01052,0.00033,1.48550,0.09947,3.27688,6.559726,0.000000,7.311800,6.874197,6.559726,0.000000,4.894804,4.518986,4.481734,225.660141,16.917143,6.374660,3.482761,19.256897,14.620666,13.792840
0.210,0,0,0,0,0,0,0,0,0,0,0,0,0,0,0,0,0,0,0,0,176.680603,21.026285,72.202927,65.771759,16.310238,0,0,-6.553361,2.804256,6.553361,19.155502,0,0,16.907669,0,14.685082,0,13.793844,8.220230,16.838348,8.678023,14.536095,8.861865,13.992471,9.012856,13.365967,9.218806,15.043406,10.573989,14.402398,10.662885,15.565799,0,-0.01896,0.00046,-0.02210,-0.01382,0.00656,-0.01189,0.00904,0.00399,1.48371,0.09952,3.27686,6.554240,0.000000,7.312186,6.873331,6.554240,0.000000,4.895327,4.526231,4.375403,225.508698,16.907669,6.374784,3.377173,19.242567,14.685082,13.794699
0.211,0,0,0,0,0,0,0,0,0,0,0,0,0,0,0,0,0,0,0,0,177.640244,21.205908,72.445290,64.142075,16.314590,0,0,-6.548305,2.924747,6.548305,19.155502,0,0,16.898195,0,14.749499,0,13.791986,8.222961,16.823227,8.694743,14.609978,8.851119,14.048483,8.987366,13.399003,9.236944,15.085121,10.575302,14.413380,10.659947,15.571755,0,-0.02219,0.00540,-0.01994,-0.01410,0.00870,-0.01295,0.00993,0.00914,1.48491,0.09932,3.27701,6.548754,0.000000,7.312572,6.872463,6.548754,0.000000,4.895850,4.533476,4.269072,225.357239,16.898195,6.374909,3.271585,19.228235,14.749499,13.796557
