"Time","59 Left DS","60 Right DS","37a CoMy (cm)","v5 L COP","28 HLy (cm)","33 FLy (cm)","67 xCoM","v3 R COP","35 FRy (cm)","30 HRy (cm)"
0.000,0,0,5.432780,0.000000,6.828129,5.724426,5.444472,0.000000,4.108985,3.974041
0.001,0,0,5.430887,0.000000,6.828958,5.722549,5.439712,0.000000,4.109463,3.971253
0.002,0,0,5.432815,0.000000,6.829822,5.720248,5.438555,0.000000,4.109833,3.968294
0.003,0,0,5.434743,0.000000,6.830686,5.717946,5.437398,0.000000,4.110203,3.965335
0.004,0,0,5.436671,0.000000,6.831551,5.715644,5.436242,0.000000,4.110573,3.962375
0.005,0,0,5.438644,0.000000,6.832407,5.713214,5.435106,0.000000,4.110939,3.959492
0.006,0,0,5.440900,0.000000,6.833210,5.709970,5.434099,0.000000,4.111280,3.957092
0.007,0,0,5.443157,0.000000,6.834014,5.706726,5.433092,0.000000,4.111622,3.954692
0.008,0,0,5.445413,0.000000,6.834818,5.703481,5.432085,0.000000,4.111964,3.952292
0.009,0,0,5.446882,0.000000,6.835585,5.700334,5.430248,0.000000,4.112330,3.949710
0.010,0,0,5.443346,0.000000,6.836114,5.697799,5.423139,0.000000,4.112852,3.945973
0.011,0,0,5.439810,0.000000,6.836643,5.695263,5.416030,0.000000,4.113375,3.942237
0.012,0,0,5.436275,0.000000,6.837172,5.692729,5.408921,0.000000,4.113897,3.938500
0.013,0,0,5.433791,0.000000,6.837744,5.690149,5.402850,0.000000,4.114425,3.934784
0.014,0,0,5.437997,0.000000,6.838592,5.687283,5.403372,0.000000,4.114988,3.931195
0.015,0,0,5.442203,0.000000,6.839439,5.684418,5.403893,0.000000,4.115552,3.927607
0.016,0,0,5.446408,0.000000,6.840286,5.681552,5.404416,0.000000,4.116115,3.924018
0.017,0,0,5.449891,0.000000,6.841119,5.678632,5.404187,0.000000,4.116680,3.920743
0.018,0,0,5.448784,0.000000,6.841857,5.675365,5.399189,0.000000,4.117255,3.919464
0.019,0,0,5.447676,0.000000,6.842595,5.672098,5.394191,0.000000,4.117830,3.918184
0.020,0,0,5.446569,0.000000,6.843333,5.668831,5.389193,0.000000,4.118405,3.916904
0.021,0,0,5.445899,0.000000,6.844033,5.665282,5.384651,0.000000,4.119001,3.916529
0.022,0,0,5.448010,0.000000,6.844496,5.659933,5.383010,0.000000,4.119729,3.921907
0.023,0,0,5.450121,0.000000,6.844958,5.654584,5.381369,0.000000,4.120456,3.927286
0.024,0,0,5.452232,0.000000,6.845420,5.649236,5.379727,0.000000,4.121184,3.932664
0.025,0,0,5.453254,0.000000,6.845864,5.643849,5.377038,0.000000,4.121937,3.937977
0.026,0,0,5.447359,0.000000,6.846192,5.638219,5.367696,0.000000,4.122854,3.942875
0.027,0,0,5.441464,0.000000,6.846520,5.632589,5.358354,0.000000,4.123771,3.947773
0.028,0,0,5.435569,0.000000,6.846848,5.626959,5.349012,0.000000,4.124688,3.952671
0.029,0,0,5.430403,0.000000,6.847160,5.621206,5.340455,0.000000,4.125614,3.957524
0.030,0,0,5.429869,0.000000,6.847372,5.614666,5.336886,0.000000,4.126598,3.962089
0.031,0,0,5.429336,0.000000,6.847584,5.608126,5.333318,0.000000,4.127583,3.966654
0.032,0,0,5.428802,0.000000,6.847796,5.601585,5.329749,0.000000,4.128567,3.971218
0.033,0,0,5.427583,0.000000,6.848026,5.595110,5.325555,0.000000,4.129533,3.975633
0.034,0,0,5.422013,0.000000,6.848365,5.589043,5.317385,0.000000,4.130385,3.979096
0.035,0,0,5.416443,0.000000,6.848705,5.582976,5.309216,0.000000,4.131238,3.982558
0.036,0,0,5.410873,0.000000,6.849045,5.576909,5.301046,0.000000,4.132091,3.986021
0.037,0,0,5.406035,0.000000,6.849384,5.570599,5.293650,0.000000,4.132965,3.989378
0.038,0,0,5.405853,0.000000,6.849723,5.562749,5.291164,0.000000,4.133973,3.992070
0.039,0,0,5.405671,0.000000,6.850063,5.554899,5.288679,0.000000,4.134982,3.994763
0.040,0,0,5.405488,0.000000,6.850402,5.547049,5.286194,0.000000,4.135991,3.997455
0.041,0,0,5.404747,0.000000,6.850672,5.539334,5.283195,0.000000,4.136953,4.000021
0.042,0,0,5.400455,0.000000,6.850500,5.532480,5.276930,0.000000,4.137621,4.001785
0.043,0,0,5.396163,0.000000,6.850328,5.525626,5.270665,0.000000,4.138288,4.003550
0.044,0,0,5.391870,0.000000,6.850156,5.518772,5.264400,0.000000,4.138957,4.005314
0.045,0,0,5.387985,0.000000,6.849949,5.511694,5.258563,0.000000,4.139569,4.006874
0.046,0,0,5.386679,0.000000,6.849521,5.503194,5.255444,0.000000,4.139830,4.007133
0.047,0,0,5.385373,0.000000,6.849093,5.494695,5.252324,0.000000,4.140090,4.007393
0.048,0,0,5.384067,0.000000,6.848665,5.486195,5.249205,0.000000,4.140351,4.007652
0.049,0,0,5.382082,0.000000,6.848270,5.477831,5.245451,0.000000,4.140588,4.007832
0.050,0,0,5.375776,0.000000,6.848087,5.470332,5.237672,0.000000,4.140675,4.007504
0.051,0,0,5.369472,0.000000,6.847905,5.462832,5.229894,0.000000,4.140762,4.007177
0.052,0,0,5.363166,0.000000,6.847723,5.455332,5.222115,0.000000,4.140849,4.006850
0.053,0,0,5.356994,0.000000,6.847545,5.447582,5.214505,0.000000,4.140963,4.006552
0.054,0,0,5.351664,0.000000,6.847399,5.438239,5.207970,0.000000,4.141245,4.006443
0.055,0,0,5.346334,0.000000,6.847252,5.428896,5.201435,0.000000,4.141527,4.006334
0.056,0,0,5.341003,0.000000,6.847106,5.419553,5.194900,0.000000,4.141809,4.006225
0.057,0,0,5.335878,0.000000,6.846951,5.410621,5.188628,0.000000,4.142082,4.006028
0.058,0,0,5.332061,0.000000,6.846743,5.404294,5.184034,0.000000,4.142298,4.005269
0.059,0,0,5.328244,0.000000,6.846534,5.397969,5.179440,0.000000,4.142515,4.004509
0.060,0,0,5.324427,0.000000,6.846325,5.391643,5.174845,0.000000,4.142731,4.003749
0.061,0,0,5.319787,0.665897,6.846086,5.385322,5.169495,0.000000,4.142968,4.002913
0.062,0,0,5.309914,3.720470,6.845649,5.379031,5.159341,0.000000,4.143336,4.001583
0.063,1,0,5.300042,6.108465,6.845213,5.372740,5.149188,0.000000,4.143705,4.000254
0.064,1,0,5.290169,6.105338,6.844777,5.366449,5.139034,0.000000,4.144073,3.998924
0.065,1,0,5.281425,6.102573,6.844348,5.360741,5.130080,0.000000,4.144464,3.996980
0.066,1,0,5.279852,6.101107,6.843970,5.358740,5.128744,0.000000,4.144996,3.991132
0.067,1,0,5.278279,6.099753,6.843591,5.356740,5.127408,0.000000,4.145529,3.985285
0.068,1,0,5.276706,6.098801,6.843213,5.354739,5.126071,0.000000,4.146061,3.979437
0.069,1,0,5.274875,6.097676,6.842868,5.352571,5.124527,0.000000,4.146599,3.973620
0.070,1,0,5.271399,6.095933,6.842737,5.349340,5.121661,0.000000,4.147176,3.967999
0.071,1,0,5.267922,6.094214,6.842606,5.346110,5.118795,0.000000,4.147753,3.962377
0.072,1,0,5.264446,6.092584,6.842474,5.342879,5.115929,0.000000,4.148329,3.956756
0.073,1,0,5.261172,6.091205,6.842375,5.339941,5.113299,0.000000,4.148901,3.950462
0.074,1,0,5.259180,6.090727,6.842480,5.338859,5.112175,0.000000,4.149444,3.939890
0.075,1,0,5.257188,6.090245,6.842586,5.337777,5.111051,0.000000,4.149986,3.929319
0.076,1,0,5.255196,6.089750,6.842690,5.336694,5.109926,0.000000,4.150528,3.918747
0.077,1,0,5.253482,6.088976,6.842740,5.335296,5.109109,0.000000,4.151095,3.908348
0.078,1,0,5.253539,6.087201,6.842434,5.331893,5.110243,0.000000,4.151820,3.899046
0.079,1,0,5.253595,6.085393,6.842129,5.328490,5.111377,0.000000,4.152545,3.889745
0.080,1,0,5.253652,6.083469,6.841824,5.325087,5.112511,0.000000,4.153271,3.880443
0.081,1,0,5.253116,6.081807,6.841543,5.322034,5.113066,0.000000,4.153952,3.871274
0.082,1,0,5.248820,6.081083,6.841415,5.321214,5.109940,0.000000,4.154352,3.862948
0.083,1,0,5.244525,6.080460,6.841288,5.320394,5.106815,0.000000,4.154752,3.854622
0.084,1,0,5.240229,6.080201,6.841160,5.319574,5.103690,0.000000,4.155152,3.846296
0.085,1,0,5.236004,6.079810,6.841051,5.318555,5.100652,0.000000,4.155558,3.838060
0.086,1,0,5.232230,6.078947,6.841058,5.316278,5.098173,0.000000,4.156003,3.830391
0.087,1,0,5.228455,6.077973,6.841064,5.314000,5.095694,0.000000,4.156449,3.822722
0.088,1,0,5.224679,6.076606,6.841071,5.311723,5.093215,0.000000,4.156895,3.815053
0.089,1,0,5.221442,6.075222,6.841058,5.309431,5.091262,0.000000,4.157288,3.807521
0.090,1,0,5.221618,6.073779,6.840922,5.307052,5.092656,0.000000,4.157348,3.800858
0.091,1,0,5.221794,6.072410,6.840785,5.304673,5.094049,0.000000,4.157408,3.794195
0.092,1,0,5.221970,6.071309,6.840649,5.302294,5.095441,0.000000,4.157467,3.787533
0.093,1,0,5.221643,6.070349,6.840623,5.300087,5.096301,0.000000,4.157374,3.781028
0.094,1,0,5.218122,6.069895,6.841303,5.298977,5.093769,0.000000,4.156308,3.775531
0.095,1,0,5.214601,6.069538,6.841983,5.297866,5.091237,0.000000,4.155241,3.770033
0.096,1,0,5.211080,6.069526,6.842663,5.296756,5.088705,0.000000,4.154175,3.764535
0.097,1,0,5.207640,6.069537,6.843351,5.295702,5.086198,0.000000,4.153040,3.759089
0.098,1,0,5.204720,6.069634,6.844086,5.295010,5.083848,0.000000,4.151474,3.753972
0.099,1,0,5.201799,6.069702,6.844821,5.294318,5.081498,0.000000,4.149909,3.748855
0.100,1,0,5.198878,6.069659,6.845557,5.293626,5.079147,0.000000,4.148343,3.743737
0.101,1,0,5.196423,6.069541,6.846305,5.292741,5.077182,0.000000,4.146571,3.738671
0.102,1,0,5.196925,6.069153,6.847138,5.290634,5.077664,0.000000,4.143490,3.733925
0.103,1,0,5.197426,6.068665,6.847972,5.288527,5.078146,0.000000,4.140409,3.729179
0.104,1,0,5.197927,6.067817,6.848805,5.286420,5.078628,0.000000,4.137329,3.724434
0.105,1,0,5.198371,6.066885,6.849579,5.284268,5.078945,0.000000,4.134104,3.719730
0.106,1,0,5.198449,6.065649,6.849971,5.281830,5.078212,0.000000,4.129962,3.715289
0.107,1,0,5.198527,6.064498,6.850363,5.279392,5.077480,0.000000,4.125821,3.710848
0.108,1,0,5.198605,6.063654,6.850755,5.276954,5.076747,0.000000,4.121679,3.706408
0.109,1,0,5.198558,6.063028,6.851099,5.274866,5.075776,0.000000,4.117306,3.702062
0.110,1,0,5.197725,6.063179,6.851139,5.274996,5.073285,0.000000,4.111457,3.698325
0.111,1,0,5.196892,6.063304,6.851179,5.275126,5.070794,0.000000,4.105608,3.694588
0.112,1,0,5.196059,6.063335,6.851218,5.275256,5.068303,0.000000,4.099759,3.690851
0.113,1,0,5.195388,6.063092,6.851260,5.274985,5.065893,0.000000,4.093904,3.687279
0.114,1,0,5.195749,6.061867,6.851318,5.272166,5.064001,0.000000,4.088010,3.684758
0.115,1,0,5.196110,6.060578,6.851376,5.269346,5.062109,0.000000,4.082116,3.682236
0.116,1,0,5.196471,6.059063,6.851434,5.266527,5.060218,0.000000,4.076221,3.679714
0.117,1,0,5.196198,6.057751,6.851489,5.264015,5.057655,0.000000,4.070263,3.677724
0.118,1,0,5.191902,6.057165,6.851527,5.263451,5.050826,0.000000,4.063894,3.679111
0.119,1,0,5.187605,6.056709,6.851564,5.262886,5.043997,0.000000,4.057525,3.680499
0.120,1,0,5.183308,6.056721,6.851602,5.262322,5.037168,0.000000,4.051157,3.681886
0.121,1,0,5.179794,6.056716,6.851635,5.261771,5.031106,0.000000,4.044806,3.683326
0.122,1,0,5.181253,6.056653,6.851634,5.261303,5.029919,0.000000,4.038570,3.685106
0.123,1,0,5.182713,6.056521,6.851634,5.260836,5.028731,0.000000,4.032335,3.686886
0.124,1,0,5.184172,6.056143,6.851633,5.260369,5.027544,0.000000,4.026100,3.688666
0.125,1,0,5.185175,6.055685,6.851625,5.259757,5.025908,0.000000,4.019964,3.690474
0.126,1,0,5.183287,6.054943,6.851569,5.258224,5.021419,0.000000,4.014457,3.692459
0.127,1,0,5.181399,6.054180,6.851513,5.256690,5.016930,0.000000,4.008951,3.694443
0.128,1,0,5.179511,6.053339,6.851457,5.255157,5.012442,0.000000,4.003444,3.696428
0.129,1,0,5.177955,6.052551,6.851427,5.253716,5.008314,0.000000,3.997905,3.698556
0.130,1,0,5.178510,6.051944,6.851558,5.252869,5.006480,0.000000,3.992156,3.701594
0.131,1,0,5.179066,6.051437,6.851689,5.252021,5.004645,0.000000,3.986408,3.704632
0.132,1,0,5.179621,6.051290,6.851820,5.251173,5.002810,0.000000,3.980659,3.707670
0.133,1,0,5.179594,6.051267,6.851946,5.250589,5.000413,0.000000,3.974899,3.710791
0.134,1,0,5.175863,6.051690,6.852043,5.251674,4.994442,0.000000,3.969059,3.714436
0.135,1,0,5.172132,6.052181,6.852139,5.252759,4.988470,0.000000,3.963218,3.718081
0.136,1,0,5.168401,6.052914,6.852234,5.253845,4.982498,0.000000,3.957378,3.721725
0.137,1,0,5.164435,6.053650,6.852324,5.254984,4.976282,0.000000,3.951481,3.725476
0.138,1,0,5.158971,6.054395,6.852368,5.256466,4.968519,0.000000,3.945220,3.729898
0.139,1,0,5.153508,6.055148,6.852412,5.257949,4.960757,0.000000,3.938959,3.734321
0.140,1,0,5.148045,6.055926,6.852457,5.259431,4.952994,0.000000,3.932698,3.738743
0.141,1,0,5.143418,6.056735,6.852561,5.260926,4.946065,0.000000,3.926384,3.743080
0.142,1,0,5.144109,6.057650,6.853051,5.262504,4.944435,0.000000,3.919729,3.746872
0.143,1,0,5.144799,6.058613,6.853541,5.264081,4.942804,0.000000,3.913075,3.750664
0.144,1,0,5.145490,6.059747,6.854031,5.265659,4.941174,0.000000,3.906421,3.754456
0.145,1,0,5.145286,6.060922,6.854522,5.267266,4.938639,0.000000,3.899761,3.758067
0.146,1,0,5.139394,6.062243,6.855025,5.269053,4.930358,0.000000,3.893065,3.760527
0.147,1,0,5.133503,6.063493,6.855528,5.270842,4.922078,0.000000,3.886369,3.762986
0.148,1,0,5.127612,6.064491,6.856031,5.272629,4.913797,0.000000,3.879674,3.765446
0.149,1,0,5.121845,6.065317,6.856475,5.274157,4.905645,0.000000,3.872870,3.767695
0.150,1,0,5.116867,6.065524,6.856540,5.274025,4.898308,0.000000,3.865377,3.768601
0.151,1,0,5.111889,6.065634,6.856606,5.273894,4.890972,0.000000,3.857884,3.769507
0.152,1,0,5.106912,6.065396,6.856671,5.273763,4.883636,0.000000,3.850392,3.770414
0.153,1,0,5.101096,6.065168,6.856763,5.273582,4.875471,0.000000,3.842787,3.771156
0.154,1,0,5.089962,6.064973,6.857028,5.273088,4.862046,0.000000,3.834470,3.770852
0.155,1,0,5.078828,6.064811,6.857292,5.272593,4.848621,0.000000,3.826154,3.770548
0.156,1,0,5.067694,6.064763,6.857557,5.272098,4.835196,0.000000,3.817837,3.770245
0.157,1,0,5.056776,6.064738,6.857924,5.271533,4.822020,0.000000,3.809519,3.769861
0.158,1,0,5.047237,6.064796,6.858945,5.270523,4.810424,0.000000,3.801189,3.768973
0.159,1,0,5.037698,6.064832,6.859967,5.269512,4.798829,0.000000,3.792860,3.768085
0.160,1,0,5.028159,6.064794,6.860988,5.268501,4.787234,0.000000,3.784531,3.767196
0.161,1,0,5.019245,6.064698,6.862053,5.267356,4.776314,0.000000,3.776160,3.766213
0.162,1,0,5.014304,6.064399,6.863400,5.265353,4.769680,0.000000,3.767523,3.764626
0.163,1,0,5.009364,6.064088,6.864746,5.263350,4.763047,0.000000,3.758887,3.763039
0.164,1,0,5.004424,6.063735,6.866092,5.261346,4.756413,0.000000,3.750250,3.761453
0.165,1,0,4.999206,6.063427,6.867488,5.259384,4.749543,0.000000,3.741663,3.759870
0.166,1,0,4.992225,6.063284,6.869196,5.257684,4.741172,0.000000,3.733388,3.758315
0.167,1,0,4.985244,6.063201,6.870904,5.255984,4.732800,0.000000,3.725113,3.756760
0.168,1,0,4.978263,6.063329,6.872613,5.254284,4.724429,0.000000,3.716839,3.755205
0.169,1,0,4.971106,6.063517,6.874395,5.252655,4.715952,0.000000,3.708580,3.753766
0.170,1,0,4.962822,6.063915,6.876645,5.251482,4.706807,0.000000,3.700428,3.753065
0.171,1,0,4.954539,6.064370,6.878894,5.250309,4.697661,0.000000,3.692276,3.752363
0.172,1,0,4.946256,6.065027,6.881144,5.249135,4.688515,0.000000,3.684123,3.751662
0.173,1,0,4.938993,6.065732,6.883469,5.247992,4.680467,0.000000,3.676036,3.750942
0.174,1,0,4.938216,6.066609,6.886274,5.247039,4.679390,0.000000,3.668365,3.750102
0.175,1,0,4.937439,6.067506,6.889080,5.246087,4.678313,0.000000,3.660693,3.749261
0.176,1,0,4.936662,6.068474,6.891885,5.245135,4.677237,0.000000,3.653021,3.748421
0.177,1,0,4.935128,6.069439,6.894697,5.244194,4.675499,0.000000,3.645481,3.747555
0.178,1,0,4.928788,6.070389,6.897553,5.243325,4.669561,0.000000,3.638776,3.746523
0.179,1,0,4.922448,6.071356,6.900410,5.242455,4.663623,0.000000,3.632071,3.745492
0.180,1,0,4.916109,6.072387,6.903267,5.241586,4.657686,0.000000,3.625366,3.744461
0.181,1,0,4.909611,6.073463,6.906114,5.240824,4.651690,0.000000,3.618757,3.743376
0.182,1,0,4.902110,6.074703,6.908899,5.240748,4.645331,0.000000,3.612762,3.741953
0.183,1,0,4.894608,6.075989,6.911684,5.240672,4.638972,0.000000,3.606767,3.740529
0.184,1,0,4.887107,6.077440,6.914469,5.240595,4.632613,0.000000,3.600772,3.739106
0.185,1,0,4.880072,6.078925,6.917241,5.240602,4.626808,0.000000,3.595047,3.737641
0.186,1,0,4.875999,6.080532,6.919931,5.241137,4.624520,0.000000,3.591042,3.735916
0.187,1,0,4.871927,6.082141,6.922622,5.241673,4.622232,0.000000,3.587036,3.734191
0.188,1,0,4.867854,6.083759,6.925312,5.242208,4.619945,0.000000,3.583031,3.732466
0.189,1,0,4.863886,6.085351,6.928009,5.242691,4.617835,0.000000,3.579180,3.730558
0.190,1,0,4.860578,6.086849,6.930748,5.242847,4.616854,0.000000,3.576313,3.727488
0.191,1,0,4.857270,6.088326,6.933486,5.243002,4.615873,0.000000,3.573445,3.724417
0.192,1,0,4.853962,6.089731,6.936225,5.243158,4.614892,0.000000,3.570578,3.721346
0.193,1,0,4.850315,6.091127,6.938981,5.243269,4.613617,0.000000,3.567906,3.718282
0.194,1,0,4.844510,6.092496,6.941842,5.243098,4.610483,0.000000,3.566477,3.715263
0.195,1,0,4.838705,6.093855,6.944703,5.242927,4.607348,0.000000,3.565048,3.712244
0.196,1,0,4.832900,6.095180,6.947564,5.242755,4.604214,0.000000,3.563619,3.709224
0.197,1,0,4.827125,6.096495,6.950452,5.242552,4.601114,0.000000,3.562224,3.706315
0.198,1,0,4.821541,6.097775,6.953516,5.242144,4.598233,0.000000,3.561041,3.704104
0.199,1,0,4.815957,6.099075,6.956580,5.241736,4.595352,0.000000,3.559859,3.701893
0.200,1,0,4.810373,6.100443,6.959643,5.241329,4.592471,0.000000,3.558677,3.699682
0.201,1,0,4.805220,6.101847,6.962711,5.240949,4.589966,0.000000,3.557589,3.697728
0.202,1,0,4.802802,6.103381,6.965809,5.240750,4.589851,0.000000,3.557105,3.697408
0.203,1,0,4.800384,6.104880,6.968906,5.240551,4.589736,0.000000,3.556622,3.697088
0.204,1,0,4.797966,6.106258,6.972003,5.240353,4.589622,0.000000,3.556138,3.696769
0.205,1,0,4.795210,6.107533,6.974944,5.240119,4.589131,0.000000,3.555650,3.696570
0.206,1,0,4.790314,6.108434,6.976890,5.239661,4.586252,0.000000,3.555136,3.697144
0.207,1,0,4.785417,6.109272,6.978836,5.239202,4.583373,0.000000,3.554622,3.697718
0.208,1,0,4.780520,6.109882,6.980783,5.238744,4.580493,0.000000,3.554108,3.698292
0.209,1,0,4.775954,6.110493,6.982589,5.238410,4.577903,0.000000,3.553557,3.698847
0.210,1,0,4.773486,6.111104,6.983506,5.238866,4.577149,0.000000,3.552765,3.699279
0.211,1,0,4.771018,6.111746,6.984424,5.239321,4.576396,0.000000,3.551973,3.699710
0.212,1,0,4.768550,6.112496,6.985341,5.239777,4.575643,0.000000,3.551181,3.700141
0.213,1,0,4.766207,6.113276,6.986260,5.240252,4.574976,0.000000,3.550510,3.700540
0.214,1,0,4.764658,6.114169,6.987191,5.240849,4.574865,0.000000,3.550605,3.700736
0.215,1,0,4.763109,6.115010,6.988122,5.241446,4.574754,0.000000,3.550700,3.700931
0.216,1,0,4.761560,6.115666,6.989053,5.242044,4.574643,0.000000,3.550795,3.701127
0.217,1,0,4.759440,6.116196,6.989792,5.242606,4.573951,0.000000,3.550895,3.701270
0.218,1,0,4.753687,6.116272,6.989310,5.242940,4.569571,0.000000,3.551025,3.701081
0.219,1,0,4.747934,6.116287,6.988829,5.243275,4.565191,0.000000,3.551156,3.700891
0.220,1,0,4.742180,6.116086,6.988347,5.243610,4.560812,0.000000,3.551287,3.700702
0.221,1,0,4.737119,6.115901,6.987824,5.243944,4.557160,0.000000,3.551474,3.700529
0.222,1,0,4.736448,6.115775,6.987041,5.244273,4.558140,0.000000,3.552023,3.700464
0.223,1,0,4.735778,6.115609,6.986258,5.244602,4.559120,0.000000,3.552571,3.700400
0.224,1,0,4.735108,6.115297,6.985475,5.244932,4.560100,0.000000,3.553120,3.700335
0.225,1,0,4.734255,6.114874,6.984470,5.245272,4.560961,0.000000,3.553747,3.700338
0.226,1,0,4.732238,6.114054,6.982059,5.245681,4.561071,0.000000,3.554872,3.700774
0.227,1,0,4.730221,6.113160,6.979647,5.246091,4.561181,0.000000,3.555996,3.701210
0.228,1,0,4.728204,6.112006,6.977236,5.246501,4.561291,0.000000,3.557121,3.701647
0.229,1,0,4.726786,6.110825,6.974711,5.246890,4.562046,0.000000,3.558262,3.702078
0.230,1,0,4.729172,6.109546,6.971463,5.247149,4.566897,0.000000,3.559507,3.702475
0.231,1,0,4.731558,6.108181,6.968215,5.247408,4.571749,0.000000,3.560753,3.702873
0.232,1,0,4.733944,6.106504,6.964967,5.247668,4.576602,0.000000,3.561998,3.703271
0.233,1,0,4.735658,6.104681,6.961498,5.247869,4.580843,0.000000,3.563342,3.703528
0.234,1,0,4.733096,6.102333,6.956624,5.247701,4.581210,0.000000,3.565315,3.702893
0.235,0,0,4.730534,5.435542,6.951749,5.247533,4.581577,0.000000,3.567288,3.702258
0.236,0,0,4.727971,2.385294,6.946874,5.247365,4.581944,0.000000,3.569261,3.701623
0.237,0,0,4.725244,0.000000,6.941874,5.247297,4.582199,0.000000,3.571364,3.700939
0.238,0,0,4.721467,0.000000,6.936074,5.247868,4.581747,0.000000,3.574295,3.699944
0.239,0,0,4.717689,0.000000,6.930274,5.248439,4.581295,0.000000,3.577226,3.698949
0.240,0,0,4.713912,0.000000,6.924474,5.249010,4.580843,0.000000,3.580157,3.697954
0.241,0,0,4.710790,0.000000,6.918481,5.249578,4.581083,0.000000,3.583115,3.696948
0.242,0,0,4.711833,0.000000,6.911262,5.250130,4.585718,0.000000,3.586245,3.695880
0.243,0,0,4.712876,0.000000,6.904042,5.250681,4.590353,0.000000,3.589375,3.694811
0.244,0,0,4.713919,0.000000,6.896823,5.251233,4.594988,0.000000,3.592505,3.693742
0.245,0,0,4.713548,0.000000,6.889296,5.251682,4.598225,0.000000,3.595748,3.692733
0.246,0,0,4.704199,0.000000,6.879813,5.251477,4.592582,0.000000,3.599708,3.692103
0.247,0,0,4.694850,0.000000,6.870330,5.251273,4.586939,0.000000,3.603668,3.691473
0.248,0,0,4.685501,0.000000,6.860847,5.251069,4.581295,0.000000,3.607628,3.690844
0.249,0,0,4.677441,0.000000,6.851189,5.250768,4.576945,0.000000,3.611664,3.690329
0.250,0,0,4.677573,0.000000,6.840421,5.249856,4.580803,0.000000,3.616180,3.690542
0.251,0,0,4.677705,0.000000,6.829653,5.248945,4.584662,0.000000,3.620696,3.690756
0.252,0,0,4.677837,0.000000,6.818884,5.248033,4.588521,0.000000,3.625212,3.690970
0.253,0,0,4.677083,0.000000,6.808064,5.247091,4.591464,0.000000,3.629765,3.691113
0.254,0,0,4.670702,0.000000,6.796913,5.245960,4.588597,0.000000,3.634552,3.690809
0.255,0,0,4.664321,0.000000,6.785762,5.244829,4.585730,0.000000,3.639339,3.690504
0.256,0,0,4.657939,0.000000,6.774611,5.243698,4.582863,0.000000,3.644127,3.690199
0.257,0,0,4.651926,0.000000,6.763434,5.242523,4.580324,0.000000,3.648977,3.689878
0.258,0,0,4.648244,0.000000,6.752100,5.241067,4.579865,0.000000,3.654227,3.689449
0.259,0,0,4.644563,0.000000,6.740766,5.239612,4.579406,0.000000,3.659478,3.689020
0.260,0,0,4.640882,0.000000,6.729432,5.238156,4.578947,0.000000,3.664728,3.688592
0.261,0,0,4.636772,0.000000,6.718045,5.236616,4.578020,0.000000,3.670026,3.688140
0.262,0,0,4.629940,0.000000,6.706323,5.234532,4.574116,0.000000,3.675623,3.687540
0.263,0,0,4.623108,0.000000,6.694601,5.232448,4.570213,0.000000,3.681220,3.686939
0.264,0,0,4.616276,0.000000,6.682879,5.230364,4.566309,0.000000,3.686817,3.686339
0.265,0,0,4.610267,0.000000,6.670995,5.228393,4.563178,0.000000,3.692425,3.685775
0.266,0,0,4.609490,0.000000,6.658085,5.227129,4.564947,0.000000,3.698103,3.685438
0.267,0,0,4.608714,0.000000,6.645175,5.225866,4.566716,0.000000,3.703781,3.685101
0.268,0,0,4.607937,0.000000,6.632264,5.224602,4.568485,0.000000,3.709458,3.684764
0.269,0,0,4.607343,0.000000,6.619480,5.223376,4.570416,0.000000,3.715070,3.684446
0.270,0,0,4.607915,0.000000,6.607496,5.222387,4.573381,0.000000,3.720261,3.684248
0.271,0,0,4.608488,0.000000,6.595513,5.221398,4.576346,0.000000,3.725451,3.684051
0.272,0,0,4.609060,0.000000,6.583530,5.220410,4.579311,0.000000,3.730642,3.683853
0.273,0,0,4.609369,0.000000,6.571465,5.219366,4.582025,0.000000,3.735865,3.683627
0.274,0,0,4.608002,0.000000,6.558886,5.217973,4.583141,0.000000,3.741287,3.683225
0.275,0,0,4.606635,0.000000,6.546307,5.216580,4.584257,0.000000,3.746708,3.682823
0.276,0,0,4.605268,0.000000,6.533728,5.215187,4.585373,0.000000,3.752130,3.682421
0.277,0,0,4.604208,0.000000,6.521321,5.213766,4.586848,0.000000,3.757593,3.681946
0.278,0,0,4.605091,0.000000,6.510012,5.212168,4.590607,0.000000,3.763313,3.681003
0.279,0,0,4.605974,0.000000,6.498703,5.210570,4.594365,0.000000,3.769032,3.680061
0.280,0,0,4.606857,0.000000,6.487394,5.208972,4.598124,0.000000,3.774752,3.679119
0.281,0,0,4.607595,0.000000,6.476282,5.207469,4.601792,0.000000,3.780465,3.678206
0.282,0,0,4.607414,0.000000,6.466421,5.206581,4.604887,0.000000,3.786128,3.677480
0.283,0,0,4.607234,0.000000,6.456559,5.205692,4.607982,0.000000,3.791791,3.676753
0.284,0,0,4.607053,0.000000,6.446698,5.204803,4.611076,0.000000,3.797455,3.676027
0.285,0,0,4.607267,0.000000,6.437200,5.204033,4.614647,0.000000,3.803112,3.675380
0.286,0,0,4.609988,0.000000,6.430007,5.204016,4.621244,0.000000,3.808726,3.675236
0.287,0,0,4.612710,0.000000,6.422814,5.204000,4.627841,0.000000,3.814339,3.675093
0.288,0,0,4.615431,0.000000,6.415622,5.203982,4.634438,0.000000,3.819953,3.674950
0.289,0,0,4.618374,0.000000,6.408660,5.203955,4.641331,0.000000,3.825579,3.674843
0.290,0,0,4.622724,0.000000,6.403162,5.203858,4.650111,0.000000,3.831277,3.674962
0.291,0,0,4.627074,0.000000,6.397664,5.203761,4.658890,0.000000,3.836974,3.675081
0.292,0,0,4.631424,0.000000,6.392167,5.203664,4.667670,0.000000,3.842672,3.675200
0.293,0,0,4.635578,0.000000,6.386871,5.203668,4.676307,0.000000,3.848306,3.675442
0.294,0,0,4.638479,0.000000,6.382861,5.204304,4.684038,0.000000,3.853535,3.676469
0.295,0,0,4.641381,0.000000,6.378851,5.204941,4.691770,0.000000,3.858763,3.677496
0.296,0,0,4.644283,0.000000,6.374841,5.205578,4.699502,0.000000,3.863992,3.678523
0.297,0,0,4.647063,0.000000,6.371068,5.206257,4.707165,0.000000,3.869141,3.679556
0.298,0,0,4.649069,0.000000,6.368798,5.207201,4.714399,0.000000,3.873784,3.680629
0.299,0,0,4.651076,0.000000,6.366529,5.208147,4.721633,0.000000,3.878428,3.681700
0.300,0,0,4.653082,0.000000,6.364259,5.209092,4.728867,0.000000,3.883071,3.682772
0.301,0,0,4.655234,0.000000,6.362040,5.209895,4.736256,0.000000,3.887752,3.683672
0.302,0,0,4.658311,0.000000,6.360145,5.209798,4.744630,0.000000,3.892665,3.683475
0.303,0,0,4.661389,0.000000,6.358250,5.209701,4.753005,0.000000,3.897578,3.683277
0.304,0,0,4.664466,0.000000,6.356355,5.209604,4.761379,0.000000,3.902491,3.683080
0.305,0,0,4.667553,0.000000,6.354442,5.209454,4.769747,0.000000,3.907412,3.682962
0.306,0,0,4.670698,0.000000,6.352407,5.208965,4.778069,0.000000,3.912377,3.683352
0.307,0,0,4.673842,0.000000,6.350373,5.208476,4.786392,0.000000,3.917341,3.683740
0.308,0,0,4.676987,0.000000,6.348339,5.207987,4.794714,0.000000,3.922307,3.684129
0.309,0,0,4.679867,0.000000,6.346269,5.207586,4.802703,0.000000,3.927278,3.684618
0.310,0,0,4.681064,0.000000,6.343976,5.207738,4.808568,0.000000,3.932295,3.685743
0.311,0,0,4.682261,0.000000,6.341682,5.207891,4.814433,0.000000,3.937311,3.686868
0.312,0,0,4.683457,0.000000,6.339389,5.208043,4.820297,0.000000,3.942327,3.687992
0.313,0,0,4.684672,0.000000,6.337157,5.208082,4.826106,0.000000,3.947326,3.689147
0.314,0,0,4.685996,0.000000,6.335312,5.207405,4.831560,0.000000,3.952219,3.690496
0.315,0,0,4.687320,0.000000,6.333467,5.206727,4.837013,0.000000,3.957111,3.691844
0.316,0,0,4.688644,0.000000,6.331621,5.206049,4.842467,0.000000,3.962004,3.693192
0.317,0,0,4.689875,0.000000,6.329853,5.205320,4.847678,0.418130,3.966869,3.694611
0.318,0,0,4.690519,0.000000,6.328571,5.204260,4.851352,2.336159,3.971559,3.696476
0.319,0,1,4.691162,0.000000,6.327290,5.203201,4.855027,3.836823,3.976249,3.698342
0.320,0,1,4.691805,0.000000,6.326008,5.202142,4.858701,3.840331,3.980940,3.700207
0.321,0,1,4.692613,0.000000,6.324680,5.201113,4.862360,3.844043,3.985638,3.702369
0.322,0,1,4.694464,0.000000,6.323058,5.200274,4.865918,3.848483,3.990383,3.706415
0.323,0,1,4.696314,0.000000,6.321435,5.199435,4.869477,3.852906,3.995129,3.710461
0.324,0,1,4.698165,0.000000,6.319812,5.198596,4.873035,3.857266,3.999875,3.714507
0.325,0,1,4.700312,0.000000,6.318242,5.197627,4.876745,3.861378,4.004559,3.718211
0.326,0,1,4.704343,0.000000,6.317005,5.195837,4.881411,3.864600,4.008852,3.719740
0.327,0,1,4.708374,0.000000,6.315768,5.194046,4.886077,3.867696,4.013144,3.721269
0.328,0,1,4.712404,0.000000,6.314531,5.192255,4.890743,3.870342,4.017437,3.722798
0.329,0,1,4.716357,0.000000,6.313314,5.190305,4.895233,3.873040,4.021669,3.724400
0.330,0,1,4.719814,0.000000,6.312225,5.187342,4.898598,3.875925,4.025519,3.726461
0.331,0,1,4.723270,0.000000,6.311135,5.184379,4.901964,3.878839,4.029369,3.728521
0.332,0,1,4.726727,0.000000,6.310046,5.181416,4.905330,3.881854,4.033218,3.730582
0.333,0,1,4.730332,0.000000,6.308816,5.178553,4.908792,3.884829,4.036997,3.732647
0.334,0,1,4.734883,0.000000,6.306696,5.176328,4.912867,3.887659,4.040321,3.734736
0.335,0,1,4.739434,0.000000,6.304577,5.174104,4.916941,3.890440,4.043645,3.736826
0.336,0,1,4.743985,0.000000,6.302457,5.171879,4.921015,3.893042,4.046968,3.738916
0.337,0,1,4.748564,0.000000,6.300282,5.169594,4.925129,3.895603,4.050256,3.740951
0.338,0,1,4.753321,0.000000,6.297752,5.166924,4.929498,3.898020,4.053308,3.742635
0.339,0,1,4.758078,0.000000,6.295222,5.164254,4.933867,3.900417,4.056360,3.744320
0.340,0,1,4.762835,0.000000,6.292692,5.161583,4.938236,3.902745,4.059412,3.746004
0.341,0,1,4.767209,0.000000,6.290045,5.158862,4.942346,3.905073,4.062411,3.747736
0.342,0,1,4.769150,0.000000,6.286650,5.155814,4.944811,3.907405,4.065069,3.749767
0.343,0,1,4.771091,0.000000,6.283256,5.152766,4.947277,3.909742,4.067726,3.751798
0.344,0,1,4.773032,0.000000,6.279861,5.149718,4.949743,3.912097,4.070384,3.753829
0.345,0,1,4.775039,0.000000,6.276418,5.146780,4.952419,3.914455,4.073004,3.755908
0.346,0,1,4.777468,0.000000,6.272663,5.144532,4.956428,3.916829,4.075386,3.758292
0.347,0,1,4.779896,0.000000,6.268908,5.142285,4.960438,3.919207,4.077769,3.760676
0.348,0,1,4.782325,0.000000,6.265152,5.140038,4.964447,3.921598,4.080151,3.763060
0.349,0,1,4.785652,0.000000,6.261389,5.137725,4.969472,3.924004,4.082489,3.765563
0.350,0,1,4.794687,0.000000,6.257574,5.135003,4.980946,3.926464,4.084538,3.768823
0.351,0,1,4.803722,0.000000,6.253758,5.132280,4.992419,3.929003,4.086588,3.772082
0.352,0,1,4.812758,0.000000,6.249943,5.129557,5.003893,3.931822,4.088637,3.775342
0.353,0,1,4.821556,0.000000,6.246146,5.126907,5.015220,3.934759,4.090672,3.778800
0.354,0,1,4.828843,0.000000,6.242465,5.124714,5.025612,3.938121,4.092610,3.783513
0.355,0,1,4.836131,0.000000,6.238785,5.122522,5.036005,3.941468,4.094548,3.788227
0.356,0,1,4.843418,0.000000,6.235105,5.120330,5.046398,3.944765,4.096487,3.792941
0.357,0,1,4.851773,0.000000,6.231599,5.118382,5.057915,3.947910,4.098374,3.797438
0.358,0,1,4.866909,0.000000,6.229197,5.117987,5.076572,3.950505,4.099942,3.800562
0.359,0,1,4.882044,0.000000,6.226795,5.117591,5.095229,3.953001,4.101509,3.803686
0.360,0,1,4.897180,0.000000,6.224392,5.117196,5.113886,3.955133,4.103076,3.806809
0.361,0,1,4.910103,0.000000,6.222165,5.117381,5.130315,3.957251,4.104645,3.809850
0.362,0,1,4.908971,0.000000,6.221044,5.121252,5.132594,3.959320,4.106221,3.812361
0.363,0,1,4.907838,0.000000,6.219923,5.125123,5.134872,3.961379,4.107798,3.814872
0.364,0,1,4.906706,0.000000,6.218801,5.128994,5.137151,3.963401,4.109375,3.817382
0.365,0,1,4.905744,0.000000,6.217775,5.133240,5.139529,3.965402,4.110925,3.819885
0.366,0,1,4.905867,0.000000,6.217351,5.139866,5.142534,3.967322,4.112308,3.822336
0.367,0,1,4.905989,0.000000,6.216927,5.146492,5.145540,3.969242,4.113690,3.824787
0.368,0,1,4.906112,0.000000,6.216503,5.153119,5.148546,3.971155,4.115073,3.827238
0.369,0,1,4.906257,0.000000,6.216136,5.159886,5.151503,3.973068,4.116459,3.829596
0.370,0,1,4.906539,0.000000,6.216134,5.167551,5.154154,3.974979,4.117870,3.831364
0.371,0,1,4.906822,0.000000,6.216132,5.175216,5.156806,3.976761,4.119280,3.833133
0.372,0,1,4.907105,0.000000,6.216130,5.182881,5.159456,3.978078,4.120690,3.834901
0.373,0,1,4.908261,0.000000,6.216173,5.191659,5.162900,3.979171,4.122037,3.836381
0.374,0,1,4.914966,0.000000,6.216496,5.207510,5.171379,3.979460,4.122983,3.836033
0.375,0,1,4.921670,0.000000,6.216820,5.223360,5.179858,3.979752,4.123928,3.835684
0.376,0,1,4.928375,0.000000,6.217144,5.239211,5.188337,3.980056,4.124874,3.835335
0.377,0,1,4.933509,0.000000,6.217410,5.255505,5.195141,3.980604,4.125868,3.835330
0.378,0,1,4.928665,0.000000,6.217314,5.274615,5.191309,3.982025,4.127171,3.837501
0.379,0,1,4.923821,0.000000,6.217218,5.293725,5.187478,3.983574,4.128473,3.839672
0.380,0,1,4.918977,0.000000,6.217122,5.312835,5.183646,3.985580,4.129776,3.841843
0.381,0,1,4.914071,0.000000,6.217055,5.332554,5.179628,3.987526,4.131067,3.843938
0.382,0,1,4.908778,0.000000,6.217170,5.356144,5.174428,3.989252,4.132288,3.845545
0.383,0,1,4.903484,0.000000,6.217285,5.379734,5.169227,3.990852,4.133508,3.847151
0.384,0,1,4.898191,0.000000,6.217401,5.403324,5.164027,3.992001,4.134729,3.848758
0.385,0,1,4.894654,0.000000,6.217553,5.427047,5.160490,3.993007,4.135908,3.850087
0.386,0,1,4.902274,0.000000,6.217944,5.451618,5.167514,3.993501,4.136825,3.849654
0.387,0,1,4.909894,0.000000,6.218334,5.476188,5.174539,3.993894,4.137743,3.849221
0.388,0,1,4.917515,0.000000,6.218725,5.500759,5.181563,3.993922,4.138660,3.848788
0.389,0,1,4.925210,0.000000,6.219034,5.525640,5.188593,3.993893,4.139551,3.848212
0.390,0,1,4.933374,0.000000,6.218829,5.552489,5.195658,3.993663,4.140271,3.846725
0.391,0,1,4.941538,0.000000,6.218624,5.579338,5.202723,3.993371,4.140992,3.845237
0.392,0,1,4.949703,0.000000,6.218419,5.606188,5.209787,3.992858,4.141712,3.843750
0.393,0,1,4.957772,0.000000,6.218220,5.632223,5.216693,3.992273,4.142392,3.842153
0.394,0,1,4.965235,0.000000,6.218063,5.653087,5.222589,3.991430,4.142814,3.839855
0.395,0,1,4.972698,0.000000,6.217906,5.673951,5.228485,3.990549,4.143236,3.837556
0.396,0,1,4.980161,0.000000,6.217750,5.694814,5.234381,3.989529,4.143658,3.835258
0.397,0,1,4.988198,0.000000,6.217585,5.715345,5.240827,3.988503,4.144068,3.832914
0.398,0,1,4.999887,0.000000,6.217369,5.733760,5.250761,3.987453,4.144400,3.830281
0.399,0,1,5.011577,0.000000,6.217153,5.752175,5.260695,3.986362,4.144732,3.827648
0.400,0,1,5.023266,0.000000,6.216937,5.770591,5.270628,3.985127,4.145063,3.825015
0.401,0,1,5.034481,0.000000,6.216698,5.788300,5.280148,3.983807,4.145412,3.822169
0.402,0,1,5.042674,0.000000,6.216314,5.801523,5.287034,3.982182,4.145866,3.817967
0.403,0,1,5.050868,0.000000,6.215931,5.814746,5.293919,3.980456,4.146321,3.813766
0.404,0,1,5.059062,0.000000,6.215548,5.827970,5.300805,3.978372,4.146775,3.809564
0.405,0,1,5.067218,0.000000,6.215251,5.840824,5.307762,3.976202,4.147208,3.805234
0.406,0,1,5.075139,0.000000,6.215510,5.851333,5.315176,3.973724,4.147510,3.800092
0.407,0,1,5.083059,0.000000,6.215769,5.861842,5.322590,3.971269,4.147810,3.794949
0.408,0,1,5.090980,0.000000,6.216028,5.872352,5.330004,3.968896,4.148112,3.789806
0.409,0,1,5.098347,0.000000,6.216280,5.882732,5.336929,3.966651,4.148448,3.784872
0.410,0,1,5.102200,0.000000,6.216492,5.892295,5.340753,3.964869,4.149011,3.781260
0.411,0,1,5.106052,0.000000,6.216703,5.901858,5.344576,3.963190,4.149573,3.777649
0.412,0,1,5.109905,0.000000,6.216915,5.911421,5.348400,3.961885,4.150136,3.774038
0.413,0,1,5.114340,0.000000,6.217057,5.920831,5.352848,3.960624,4.150686,3.770548
0.414,0,1,5.122478,0.000000,6.216753,5.929268,5.361266,3.959521,4.151161,3.767829
0.415,0,1,5.130615,0.000000,6.216450,5.937706,5.369683,3.958411,4.151636,3.765110
0.416,0,1,5.138752,0.000000,6.216146,5.946144,5.378101,3.957273,4.152111,3.762391
0.417,0,1,5.146727,0.000000,6.215828,5.954610,5.386401,3.956082,4.152606,3.759532
0.418,0,1,5.153675,0.000000,6.215421,5.963255,5.393951,3.954705,4.153229,3.755785
0.419,0,1,5.160622,0.000000,6.215013,5.971901,5.401502,3.953253,4.153852,3.752038
0.420,0,1,5.167570,0.000000,6.214605,5.980547,5.409052,3.951535,4.154474,3.748291
0.421,0,1,5.174315,0.000000,6.214269,5.989092,5.416392,3.949738,4.155081,3.744403
0.422,0,1,5.179780,0.000000,6.214388,5.996999,5.422395,3.947664,4.155595,3.739616
0.423,0,1,5.185244,0.000000,6.214507,6.004906,5.428397,3.945564,4.156108,3.734829
0.424,0,1,5.190708,0.000000,6.214625,6.012813,5.434400,3.943373,4.156621,3.730042
0.425,0,1,5.195841,0.000000,6.214714,6.020690,5.439981,3.941208,4.157134,3.725270
0.426,0,1,5.198872,0.000000,6.214607,6.028385,5.442886,3.939134,4.157640,3.720594
0.427,0,1,5.201902,0.000000,6.214501,6.036080,5.445791,3.937056,4.158148,3.715918
0.428,0,1,5.204933,0.000000,6.214395,6.043776,5.448696,3.934963,4.158655,3.711241
0.429,0,1,5.208153,0.000000,6.214394,6.051705,5.451689,3.932827,4.159132,3.706525
0.430,0,1,5.212573,0.000000,6.215063,6.061128,5.455248,3.930539,4.159425,3.701555
0.431,0,1,5.216992,0.000000,6.215732,6.070549,5.458807,3.928230,4.159717,3.696584
0.432,0,1,5.221412,0.000000,6.216402,6.079971,5.462366,3.925848,4.160009,3.691614
0.433,0,1,5.225876,0.000000,6.217019,6.089649,5.465919,3.496270,4.160313,3.686740
0.434,0,0,5.230615,0.000000,6.217308,6.100953,5.469441,1.534278,4.160697,3.682481
0.435,0,0,5.235354,0.000000,6.217597,6.112256,5.472962,0.000000,4.161080,3.678222
0.436,0,0,5.240093,0.000000,6.217885,6.123559,5.476483,0.000000,4.161463,3.673962
0.437,0,0,5.244211,0.000000,6.218187,6.134826,5.479324,0.000000,4.161867,3.670141
0.438,0,0,5.244379,0.000000,6.218570,6.145859,5.477844,0.000000,4.162401,3.669108
0.439,0,0,5.244547,0.000000,6.218953,6.156892,5.476364,0.000000,4.162936,3.668074
0.440,0,0,5.244715,0.000000,6.219336,6.167925,5.474883,0.000000,4.163470,3.667040
0.441,0,0,5.244913,0.000000,6.219709,6.178976,5.473376,0.000000,4.163992,3.666339
0.442,0,0,5.245298,0.000000,6.220018,6.190141,5.471697,0.000000,4.164432,3.667758
0.443,0,0,5.245684,0.000000,6.220327,6.201305,5.470018,0.000000,4.164872,3.669177
0.444,0,0,5.246069,0.000000,6.220636,6.212471,5.468338,0.000000,4.165311,3.670596
0.445,0,0,5.246954,0.000000,6.220951,6.223561,5.467139,0.000000,4.165730,3.672115
0.446,0,0,5.251008,0.000000,6.221300,6.234181,5.468987,0.000000,4.166017,3.674263
0.447,0,0,5.255062,0.000000,6.221650,6.244801,5.470835,0.000000,4.166304,3.676412
0.448,0,0,5.259116,0.000000,6.221999,6.255421,5.472683,0.000000,4.166590,3.678561
0.449,0,0,5.263418,0.000000,6.222431,6.266101,5.474808,0.000000,4.166869,3.680751
0.450,0,0,5.269302,0.000000,6.223387,6.277160,5.478694,0.000000,4.167097,3.683204
0.451,0,0,5.275187,0.000000,6.224343,6.288218,5.482580,0.000000,4.167324,3.685657
0.452,0,0,5.281071,0.000000,6.225299,6.299277,5.486466,0.000000,4.167552,3.688110
0.453,0,0,5.286146,0.000000,6.226360,6.310116,5.489566,0.000000,4.167782,3.690712
0.454,0,0,5.286081,0.000000,6.228094,6.319566,5.487671,0.000000,4.168023,3.694259
0.455,0,0,5.286016,0.000000,6.229827,6.329016,5.485775,0.000000,4.168264,3.697807
0.456,0,0,5.285952,0.000000,6.231560,6.338466,5.483881,0.000000,4.168506,3.701354
0.457,0,0,5.286411,0.000000,6.233265,6.347758,5.482525,0.000000,4.168789,3.704894
0.458,0,0,5.290197,0.000000,6.234785,6.356052,5.484602,0.000000,4.169340,3.708389
0.459,0,0,5.293984,0.000000,6.236306,6.364347,5.486679,0.000000,4.169891,3.711884
0.460,0,0,5.297771,0.000000,6.237826,6.372641,5.488755,0.000000,4.170443,3.715380
0.461,0,0,5.301187,0.000000,6.239298,6.380841,5.490513,0.000000,4.170939,3.718904
0.462,0,0,5.302252,0.000000,6.240464,6.388439,5.490247,0.000000,4.171089,3.722618
0.463,0,0,5.303318,0.000000,6.241629,6.396037,5.489981,0.000000,4.171239,3.726331
0.464,0,0,5.304383,0.000000,6.242795,6.403635,5.489714,0.000000,4.171389,3.730044
0.465,0,0,5.305470,0.000000,6.244018,6.411219,5.489513,0.000000,4.171556,3.733694
0.466,0,0,5.306694,0.000000,6.245608,6.418718,5.489723,0.000000,4.171825,3.736944
0.467,0,0,5.307918,0.000000,6.247199,6.426218,5.489933,0.000000,4.172094,3.740194
0.468,0,0,5.309142,0.000000,6.248789,6.433717,5.490143,0.000000,4.172364,3.743443
0.469,0,0,5.310487,0.000000,6.250396,6.440814,5.490510,0.000000,4.172649,3.746800
0.470,0,0,5.312606,0.000000,6.252109,6.445356,5.491877,0.000000,4.173032,3.750834
0.471,0,0,5.314724,0.000000,6.253822,6.449899,5.493243,0.000000,4.173415,3.754869
0.472,0,0,5.316843,0.000000,6.255535,6.454441,5.494610,0.000000,4.173799,3.758904
0.473,0,0,5.319166,0.000000,6.257184,6.458768,5.496180,0.000000,4.174234,3.763154
0.474,0,0,5.322787,0.000000,6.258423,6.461731,5.499046,0.000000,4.175002,3.768771
0.475,0,0,5.326408,0.000000,6.259663,6.464694,5.501912,0.000000,4.175770,3.774389
0.476,0,0,5.330029,0.000000,6.260903,6.467656,5.504777,0.000000,4.176538,3.780007
0.477,0,0,5.334397,0.000000,6.262186,6.470409,5.508408,0.000000,4.177326,3.785584
0.478,0,0,5.343511,0.000000,6.263744,6.471828,5.516895,0.000000,4.178235,3.790904
0.479,0,0,5.352624,0.000000,6.265302,6.473248,5.525383,0.000000,4.179143,3.796224
0.480,0,0,5.361738,0.000000,6.266860,6.474668,5.533870,0.000000,4.180052,3.801545
0.481,0,0,5.370077,0.000000,6.268381,6.475847,5.541572,0.000000,4.180995,3.806816
0.482,0,0,5.373497,0.000000,6.269670,6.475502,5.544290,0.000000,4.182161,3.811779
0.483,0,0,5.376916,0.000000,6.270957,6.475156,5.547007,0.000000,4.183326,3.816741
0.484,0,0,5.380335,0.000000,6.272245,6.474811,5.549724,0.000000,4.184492,3.821703
0.485,0,0,5.384237,0.000000,6.273496,6.474360,5.552904,0.000000,4.185632,3.826778
0.486,0,0,5.391205,0.000000,6.274504,6.473232,5.559024,0.000000,4.186607,3.832568
0.487,0,0,5.398172,0.000000,6.275512,6.472106,5.565144,0.000000,4.187582,3.838359
0.488,0,0,5.405139,0.000000,6.276520,6.470979,5.571264,0.000000,4.188557,3.844149
0.489,0,0,5.411209,0.000000,6.277488,6.469595,5.576470,0.000000,4.189516,3.849494
0.490,0,0,5.411569,0.000000,6.278196,6.466581,5.575872,0.000000,4.190372,3.852011
0.491,0,0,5.411929,0.000000,6.278905,6.463567,5.575274,0.000000,4.191227,3.854528
0.492,0,0,5.412289,0.000000,6.279614,6.460554,5.574677,0.000000,4.192083,3.857045
0.493,0,0,5.413414,0.000000,6.280308,6.457508,5.574867,0.000000,4.192939,3.859500
0.494,0,0,5.419403,0.000000,6.280909,6.454261,5.580067,0.000000,4.193796,3.861562
0.495,0,0,5.425391,0.000000,6.281509,6.451014,5.585267,0.000000,4.194653,3.863624
0.496,0,0,5.431379,0.000000,6.282110,6.447766,5.590467,0.000000,4.195510,3.865685
0.497,0,0,5.436840,0.000000,6.282676,6.444623,5.595170,0.000000,4.196362,3.867563
0.498,0,0,5.438951,0.000000,6.283020,6.442136,5.596711,0.000000,4.197179,3.868273
0.499,0,0,5.441062,0.000000,6.283365,6.439651,5.598252,0.000000,4.197997,3.868983
0.500,0,0,5.443173,0.000000,6.283709,6.437164,5.599794,0.000000,4.198814,3.869693
0.501,0,0,5.445529,0.000000,6.284015,6.434669,5.601596,0.000000,4.199613,3.870352
0.502,0,0,5.449440,0.000000,6.284076,6.432109,5.605055,0.000000,4.200290,3.870684
0.503,0,0,5.453351,0.000000,6.284138,6.429551,5.608515,0.000000,4.200967,3.871017
0.504,0,0,5.457263,0.000000,6.284199,6.426991,5.611974,0.000000,4.201644,3.871350
0.505,0,0,5.461065,0.000000,6.284262,6.424448,5.615346,0.000000,4.202328,3.871683
0.506,0,0,5.464180,0.000000,6.284335,6.422009,5.618169,0.000000,4.203058,3.872023
0.507,0,0,5.467296,0.000000,6.284408,6.419569,5.620993,0.000000,4.203788,3.872362
0.508,0,0,5.470411,0.000000,6.284480,6.417130,5.623816,0.000000,4.204518,3.872702
0.509,0,0,5.473681,0.000000,6.284534,6.414436,5.626788,0.000000,4.205202,3.873082
0.510,0,0,5.477939,0.000000,6.284467,6.410127,5.630707,0.000000,4.205596,3.873725
0.511,0,0,5.482196,0.000000,6.284400,6.405818,5.634627,0.000000,4.205991,3.874367
0.512,0,0,5.486454,0.000000,6.284332,6.401510,5.638546,0.000000,4.206386,3.875010
0.513,0,0,5.490488,0.000000,6.284247,6.397121,5.642214,0.000000,4.206850,3.875381
0.514,0,0,5.493102,0.000000,6.284045,6.392222,5.644280,0.000000,4.207752,3.874029
0.515,0,0,5.495716,0.690085,6.283844,6.387323,5.646347,0.000000,4.208655,3.872678
0.516,0,0,5.498331,3.855615,6.283643,6.382424,5.648413,0.000000,4.209558,3.871326
0.517,1,0,5.501016,6.330424,6.283398,6.377476,5.650487,0.000000,4.210458,3.870011
0.518,1,0,5.504154,6.327514,6.282876,6.372209,5.652613,0.000000,4.211343,3.868932
0.519,1,0,5.507293,6.324609,6.282353,6.366941,5.654739,0.000000,4.212228,3.867852
0.520,1,0,5.510431,6.321727,6.281831,6.361675,5.656865,0.000000,4.213114,3.866773
0.521,1,0,5.513373,6.318917,6.281320,6.356487,5.658745,0.000000,4.213988,3.865674
0.522,1,0,5.515071,6.316361,6.280882,6.351806,5.659066,0.000000,4.214793,3.864447
0.523,1,0,5.516769,6.313805,6.280444,6.347125,5.659387,0.000000,4.215598,3.863221
0.524,1,0,5.518467,6.311242,6.280006,6.342443,5.659708,0.000000,4.216403,3.861994
0.525,1,0,5.519990,6.308617,6.279573,6.337746,5.659810,0.000000,4.217184,3.860765
0.526,1,0,5.520397,6.305766,6.279171,6.332947,5.658520,0.000000,4.217815,3.859514
0.527,1,0,5.520803,6.303015,6.278769,6.328147,5.657229,0.000000,4.218446,3.858263
0.528,1,0,5.521210,6.300625,6.278366,6.323348,5.655939,0.000000,4.219078,3.857013
0.529,1,0,5.521761,6.298499,6.277984,6.319011,5.654764,0.000000,4.219651,3.855794
0.530,1,0,5.523228,6.297322,6.277733,6.317615,5.654324,0.000000,4.219858,3.854777
0.531,1,0,5.524695,6.296288,6.277483,6.316218,5.653883,0.000000,4.220065,3.853760
0.532,1,0,5.526163,6.295766,6.277233,6.314822,5.653443,0.000000,4.220271,3.852743
0.533,1,0,5.527476,6.295231,6.276941,6.313562,5.652813,0.000000,4.220474,3.851667
0.534,1,0,5.527815,6.294652,6.276392,6.313172,5.650978,0.000000,4.220655,3.850214
0.535,1,0,5.528153,6.294116,6.275843,6.312781,5.649142,0.000000,4.220835,3.848762
0.536,1,0,5.528492,6.293739,6.275294,6.312391,5.647306,0.000000,4.221015,3.847310
0.537,1,0,5.528871,6.293487,6.274734,6.312228,5.645476,0.000000,4.221210,3.845520
0.538,1,0,5.529501,6.293687,6.274101,6.313513,5.643682,0.000000,4.221496,3.841590
0.539,1,0,5.530132,6.293937,6.273468,6.314797,5.641887,0.000000,4.221781,3.837661
0.540,1,0,5.530763,6.294372,6.272836,6.316082,5.640092,0.000000,4.222066,3.833731
0.541,1,0,5.531313,6.294769,6.272236,6.317328,5.638177,0.000000,4.222385,3.830054
0.542,1,0,5.531351,6.295034,6.271849,6.318327,5.635494,0.000000,4.222918,3.827990
0.543,1,0,5.531388,6.295315,6.271461,6.319327,5.632812,0.000000,4.223450,3.825925
0.544,1,0,5.531426,6.295655,6.271074,6.320326,5.630129,0.000000,4.223983,3.823860
0.545,1,0,5.531779,6.296080,6.270754,6.321402,5.627709,0.000000,4.224514,3.821685
0.546,1,0,5.534139,6.296810,6.270866,6.322961,5.626953,0.000000,4.225032,3.818809
0.547,1,0,5.536500,6.297582,6.270977,6.324521,5.626198,0.000000,4.225550,3.815933
0.548,1,0,5.538859,6.298508,6.271090,6.326080,5.625442,0.000000,4.226069,3.813057
0.549,1,0,5.541260,6.299422,6.271220,6.327644,5.624679,0.000000,4.226612,3.810366
0.550,1,0,5.543920,6.300295,6.271473,6.329237,5.623868,0.000000,4.227314,3.808847
0.551,1,0,5.546580,6.301188,6.271726,6.330832,5.623058,0.000000,4.228016,3.807329
0.552,1,0,5.549241,6.302154,6.271978,6.332426,5.622248,0.000000,4.228718,3.805810
0.553,1,0,5.552361,6.303166,6.272265,6.334013,5.621871,0.000000,4.229452,3.804289
0.554,1,0,5.558410,6.304347,6.272772,6.335562,5.624243,0.000000,4.230383,3.802751
0.555,1,0,5.564459,6.305465,6.273279,6.337111,5.626616,0.000000,4.231314,3.801213
0.556,1,0,5.570508,6.306365,6.273786,6.338660,5.628989,0.000000,4.232245,3.799675
0.557,1,0,5.576128,6.307103,6.274219,6.340007,5.630939,0.000000,4.233282,3.798151
0.558,1,0,5.579028,6.307261,6.274182,6.340077,5.630202,0.000000,4.234989,3.796716
0.559,1,0,5.581927,6.307363,6.274146,6.340147,5.629465,0.000000,4.236696,3.795281
0.560,1,0,5.584826,6.307258,6.274110,6.340217,5.628727,0.000000,4.238402,3.793846
0.561,1,0,5.587721,6.307227,6.274083,6.340381,5.628013,0.000000,4.240241,3.792434
0.562,1,0,5.590585,6.307461,6.274114,6.341144,5.627446,0.000000,4.242913,3.791165
0.563,1,0,5.593448,6.307761,6.274144,6.341907,5.626879,0.000000,4.245585,3.789897
0.564,1,0,5.596312,6.308296,6.274175,6.342670,5.626312,0.000000,4.248257,3.788629
0.565,1,0,5.598982,6.308850,6.274252,6.343431,5.625599,0.000000,4.251033,3.787609
0.566,1,0,5.600427,6.309471,6.274623,6.344176,5.623964,0.000000,4.254464,3.788163
0.567,1,0,5.601871,6.310067,6.274993,6.344921,5.622329,0.000000,4.257895,3.788718
0.568,1,0,5.603316,6.310571,6.275364,6.345665,5.620694,0.000000,4.261325,3.789273
0.569,1,0,5.604555,6.311013,6.275828,6.346176,5.618903,0.000000,4.264815,3.789701
0.570,1,0,5.604483,6.311233,6.276889,6.345196,5.616117,0.000000,4.268679,3.789330
0.571,1,0,5.604412,6.311379,6.277950,6.344215,5.613330,0.000000,4.272543,3.788959
0.572,1,0,5.604340,6.311268,6.279010,6.343235,5.610544,0.000000,4.276407,3.788588
0.573,1,0,5.604346,6.311098,6.280045,6.342184,5.607882,0.000000,4.280202,3.788381
0.574,1,0,5.604844,6.310718,6.280909,6.340685,5.606012,0.000000,4.283562,3.789215
0.575,1,0,5.605343,6.310363,6.281774,6.339186,5.604143,0.000000,4.286921,3.790049
0.576,1,0,5.605841,6.310098,6.282638,6.337687,5.602273,0.000000,4.290281,3.790883
0.577,1,0,5.606640,6.309922,6.283503,6.336292,5.600708,0.000000,4.293710,3.791629
0.578,1,0,5.609350,6.310061,6.284367,6.335557,5.601076,0.000000,4.297581,3.791820
0.579,1,0,5.612059,6.310172,6.285232,6.334823,5.601443,0.000000,4.301452,3.792010
0.580,1,0,5.614769,6.310175,6.286097,6.334089,5.601811,0.000000,4.305323,3.792201
0.581,1,0,5.616994,6.310024,6.286963,6.333096,5.601687,0.000000,4.309253,3.792441
0.582,1,0,5.616147,6.309323,6.287837,6.330460,5.598438,0.000000,4.313555,3.792997
0.583,1,0,5.615300,6.308548,6.288711,6.327824,5.595188,0.000000,4.317857,3.793553
0.584,1,0,5.614453,6.307515,6.289586,6.325188,5.591938,0.000000,4.322159,3.794108
0.585,1,0,5.613934,6.306536,6.290427,6.322703,5.588968,0.000000,4.326436,3.794954
0.586,1,0,5.615497,6.305758,6.291063,6.321181,5.587776,0.000000,4.330549,3.797641
0.587,1,0,5.617060,6.305115,6.291698,6.319660,5.586585,0.000000,4.334663,3.800328
0.588,1,0,5.618623,6.304956,6.292334,6.318139,5.585392,0.000000,4.338776,3.803015
0.589,1,0,5.619705,6.304967,6.293010,6.316917,5.583654,0.000000,4.342864,3.805630
0.590,1,0,5.617722,6.305591,6.293943,6.317603,5.578444,0.000000,4.346785,3.807789
0.591,1,0,5.615740,6.306289,6.294876,6.318289,5.573233,0.000000,4.350705,3.809948
0.592,1,0,5.613758,6.307257,6.295808,6.318974,5.568023,0.000000,4.354626,3.812107
0.593,1,0,5.611122,6.308183,6.296757,6.319577,5.562094,0.000000,4.358575,3.814243
0.594,1,0,5.604335,6.308960,6.297809,6.319653,5.551598,0.000000,4.362700,3.816238
0.595,1,0,5.597548,6.309651,6.298860,6.319728,5.541102,0.000000,4.366825,3.818233
0.596,1,0,5.590761,6.310034,6.299912,6.319804,5.530607,0.000000,4.370950,3.820227
0.597,1,0,5.584396,6.310333,6.301038,6.319675,5.520490,0.000000,4.375033,3.822257
0.598,1,0,5.580713,6.310331,6.302641,6.318248,5.512782,0.000000,4.378850,3.824508
0.599,1,0,5.577030,6.310366,6.304245,6.316821,5.505073,0.000000,4.382666,3.826758
0.600,1,0,5.573347,6.310528,6.305848,6.315393,5.497365,0.000000,4.386482,3.829009
0.601,1,0,5.569558,6.310832,6.307439,6.314193,5.489532,0.000000,4.390275,3.831281
0.602,1,0,5.565097,6.311640,6.308952,6.314434,5.480908,0.000000,4.393925,3.833689
0.603,1,0,5.560636,6.312476,6.310466,6.314674,5.472284,0.000000,4.397574,3.836098
0.604,1,0,5.556175,6.313413,6.311980,6.314915,5.463661,0.000000,4.401223,3.838506
0.605,1,0,5.552031,6.314240,6.313477,6.314989,5.455362,0.000000,4.404832,3.840852
0.606,1,0,5.549900,6.314669,6.314867,6.314004,5.449132,0.000000,4.408186,3.842804
0.607,1,0,5.547770,6.315006,6.316258,6.313018,5.442902,0.000000,4.411541,3.844756
0.608,1,0,5.545639,6.315017,6.317649,6.312033,5.436672,0.000000,4.414896,3.846709
0.609,1,0,5.543371,6.315001,6.319028,6.311004,5.430369,0.000000,4.418257,3.848454
0.610,1,0,5.540233,6.314892,6.320336,6.309696,5.423604,0.000000,4.421662,3.848882
0.611,1,0,5.537095,6.314827,6.321644,6.308387,5.416840,0.000000,4.425067,3.849310
0.612,1,0,5.533957,6.314919,6.322952,6.307079,5.410075,0.000000,4.428472,3.849739
0.613,1,0,5.531172,6.315097,6.324273,6.305896,5.403753,0.000000,4.431970,3.850093
0.614,1,0,5.530632,6.315588,6.325677,6.305509,5.400249,0.000000,4.436058,3.849972
0.615,1,0,5.530092,6.316086,6.327082,6.305122,5.396744,0.000000,4.440146,3.849851
0.616,1,0,5.529552,6.316610,6.328486,6.304735,5.393239,0.000000,4.444234,3.849730
0.617,1,0,5.528329,6.317059,6.329818,6.304320,5.389183,0.000000,4.448362,3.849464
0.618,1,0,5.522769,6.317236,6.330686,6.303733,5.381626,0.000000,4.452744,3.848268
0.619,1,0,5.517210,6.317399,6.331553,6.303146,5.374068,0.000000,4.457126,3.847072
0.620,1,0,5.511651,6.317508,6.332421,6.302559,5.366510,0.000000,4.461508,3.845876
0.621,1,0,5.506567,6.317667,6.333304,6.301981,5.359556,0.000000,4.465906,3.844708
0.622,1,0,5.504508,6.318007,6.334277,6.301458,5.356436,0.000000,4.470406,3.843716
0.623,1,0,5.502449,6.318301,6.335250,6.300936,5.353317,0.000000,4.474905,3.842725
0.624,1,0,5.500389,6.318429,6.336223,6.300414,5.350197,0.000000,4.479405,3.841733
0.625,1,0,5.498398,6.318414,6.337259,6.299595,5.347291,0.000000,4.483915,3.840584
0.626,1,0,5.496836,6.317884,6.338697,6.296901,5.345741,0.000000,4.488492,3.838441
0.627,1,0,5.495275,6.317314,6.340135,6.294206,5.344191,0.000000,4.493070,3.836298
0.628,1,0,5.493713,6.316601,6.341572,6.291512,5.342640,0.000000,4.497647,3.834154
0.629,1,0,5.492090,6.315981,6.343280,6.288701,5.341163,0.000000,4.502298,3.832061
0.630,1,0,5.490080,6.315691,6.346705,6.285156,5.340147,0.000000,4.507422,3.830289
0.631,1,0,5.488070,6.315494,6.350130,6.281611,5.339132,0.000000,4.512547,3.828516
0.632,1,0,5.486061,6.315629,6.353555,6.278066,5.338117,0.000000,4.517671,3.826744
0.633,1,0,5.484506,6.315838,6.357197,6.274550,5.337655,0.000000,4.522799,3.824985
0.634,1,0,5.485841,6.316317,6.362219,6.271218,5.340706,0.000000,4.527959,3.823313
0.635,1,0,5.487175,6.316944,6.367242,6.267886,5.343757,0.000000,4.533119,3.821641
0.636,1,0,5.488510,6.318099,6.372265,6.264555,5.346807,0.000000,4.538279,3.819968
0.637,1,0,5.488852,5.630232,6.377603,6.261337,5.348930,0.000000,4.543386,3.818037
0.638,0,0,5.482885,2.470730,6.384936,6.258844,5.345155,0.000000,4.548151,3.814453
0.639,0,0,5.476919,0.000000,6.392270,6.256351,5.341380,0.000000,4.552917,3.810869
0.640,0,0,5.470952,0.000000,6.399603,6.253858,5.337605,0.000000,4.557682,3.807285
0.641,0,0,5.465310,0.000000,6.407021,6.251405,5.334195,0.000000,4.562329,3.803939
0.642,0,0,5.461728,0.000000,6.414968,6.249204,5.333108,0.000000,4.566229,3.802109
0.643,0,0,5.458147,0.000000,6.422916,6.247004,5.332023,0.000000,4.570128,3.800278
0.644,0,0,5.454566,0.000000,6.430863,6.244803,5.330936,0.000000,4.574028,3.798448
0.645,0,0,5.450434,0.000000,6.438821,6.242804,5.329317,0.000000,4.577785,3.796679
0.646,0,0,5.442801,0.000000,6.446842,6.242085,5.324312,0.000000,4.580647,3.795309
0.647,0,0,5.435169,0.000000,6.454863,6.241366,5.319306,0.000000,4.583508,3.793939
0.648,0,0,5.427537,0.000000,6.462884,6.240647,5.314301,0.000000,4.586370,3.792568
0.649,0,0,5.420073,0.000000,6.470869,6.240041,5.309448,0.000000,4.589097,3.791221
0.650,0,0,5.413674,0.000000,6.478627,6.240145,5.305564,0.000000,4.590977,3.790024
0.651,0,0,5.407276,0.000000,6.486386,6.240250,5.301681,0.000000,4.592857,3.788826
0.652,0,0,5.400877,0.000000,6.494144,6.240354,5.297797,0.000000,4.594736,3.787628
0.653,0,0,5.394997,0.000000,6.501893,6.240543,5.294415,0.000000,4.596569,3.786352
0.654,0,0,5.392401,0.000000,6.509583,6.241270,5.294226,0.000000,4.598103,3.784581
0.655,0,0,5.389805,0.000000,6.517272,6.241997,5.294037,0.000000,4.599637,3.782811
0.656,0,0,5.387210,0.000000,6.524962,6.242724,5.293848,0.000000,4.601171,3.781040
0.657,0,0,5.384552,0.000000,6.532605,6.243422,5.293586,0.000000,4.602799,3.779217
0.658,0,0,5.381503,0.000000,6.539948,6.243929,5.292861,0.000000,4.605023,3.777055
0.659,0,0,5.378454,0.000000,6.547293,6.244436,5.292136,0.000000,4.607246,3.774894
0.660,0,0,5.375404,0.000000,6.554637,6.244943,5.291411,0.000000,4.609470,3.772732
0.661,0,0,5.372577,0.000000,6.562013,6.245446,5.290908,0.000000,4.611629,3.770746
0.662,0,0,5.371161,0.000000,6.569590,6.245928,5.291808,0.000000,4.613373,3.769871
0.663,0,0,5.369744,0.000000,6.577167,6.246410,5.292708,0.000000,4.615118,3.768996
0.664,0,0,5.368328,0.000000,6.584744,6.246892,5.293609,0.000000,4.616862,3.768121
0.665,0,0,5.366344,0.000000,6.592315,6.247428,5.293938,0.000000,4.618543,3.767254
0.666,0,0,5.360760,0.000000,6.599848,6.248300,5.290639,0.000000,4.619817,3.766440
0.667,0,0,5.355176,0.000000,6.607381,6.249171,5.287340,0.000000,4.621090,3.765625
0.668,0,0,5.349592,0.000000,6.614914,6.250043,5.284041,0.000000,4.622365,3.764811
0.669,0,0,5.345342,0.000000,6.622520,6.250968,5.282091,0.000000,4.623661,3.764101
0.670,0,0,5.349569,0.000000,6.630595,6.252230,5.288711,0.000000,4.625098,3.764060
0.671,0,0,5.353796,0.000000,6.638670,6.253493,5.295331,0.000000,4.626535,3.764019
0.672,0,0,5.358023,0.000000,6.646745,6.254756,5.301951,0.000000,4.627973,3.763978
0.673,0,0,5.361812,0.000000,6.654699,6.256012,5.308182,0.000000,4.629420,3.763977
0.674,0,0,5.362820,0.000000,6.661885,6.257230,5.311944,0.000000,4.630934,3.764235
0.675,0,0,5.363828,0.000000,6.669071,6.258448,5.315707,0.000000,4.632447,3.764492
0.676,0,0,5.364836,0.000000,6.676257,6.259665,5.319468,0.000000,4.633961,3.764750
0.677,0,0,5.366100,0.000000,6.683447,6.260987,5.323534,0.000000,4.635480,3.765075
0.678,0,0,5.368997,0.000000,6.690664,6.262974,5.329532,0.000000,4.637038,3.765828
0.679,0,0,5.371893,0.000000,6.697881,6.264961,5.335528,0.000000,4.638596,3.766580
0.680,0,0,5.374790,0.000000,6.705097,6.266948,5.341526,0.000000,4.640154,3.767333
0.681,0,0,5.377198,0.000000,6.712192,6.268750,5.347082,0.000000,4.641703,3.768136
0.682,0,0,5.376502,0.000000,6.718509,6.269379,5.349836,0.000000,4.643192,3.769259
0.683,0,0,5.375807,0.000000,6.724827,6.270008,5.352590,0.000000,4.644681,3.770382
0.684,0,0,5.375112,0.000000,6.731145,6.270638,5.355344,0.000000,4.646171,3.771505
0.685,0,0,5.374442,0.000000,6.737254,6.271334,5.358154,0.000000,4.647639,3.772635
0.686,0,0,5.373939,0.000000,6.742035,6.272460,5.361317,0.000000,4.648967,3.773803
0.687,0,0,5.373435,0.000000,6.746817,6.273587,5.364480,0.000000,4.650295,3.774972
0.688,0,0,5.372931,0.000000,6.751598,6.274713,5.367643,0.000000,4.651623,3.776140
0.689,0,0,5.372782,0.000000,6.756192,6.275661,5.371171,0.000000,4.652924,3.777395
0.690,0,0,5.374883,0.000000,6.759589,6.275483,5.377024,0.000000,4.654044,3.779197
0.691,0,0,5.376985,0.000000,6.762986,6.275305,5.382875,0.000000,4.655165,3.780999
0.692,0,0,5.379086,0.000000,6.766383,6.275126,5.388728,0.000000,4.656286,3.782801
0.693,0,0,5.380621,0.000000,6.769802,6.274827,5.393979,0.000000,4.657382,3.784470
0.694,0,0,5.378561,0.000000,6.773361,6.273760,5.395413,0.000000,4.658322,3.785295
0.695,0,0,5.376501,0.000000,6.776920,6.272693,5.396847,0.000000,4.659262,3.786119
0.696,0,0,5.374441,0.000000,6.780478,6.271626,5.398281,0.000000,4.660202,3.786944
0.697,0,0,5.373068,0.000000,6.784086,6.270653,5.400328,0.000000,4.661077,3.787772
0.698,0,0,5.376068,0.000000,6.788004,6.270281,5.406266,0.000000,4.661547,3.788621
0.699,0,0,5.379067,0.000000,6.791922,6.269908,5.412204,0.000000,4.662016,3.789471
0.700,0,0,5.382066,0.000000,6.795839,6.269536,5.418142,0.000000,4.662486,3.790320
0.701,0,0,5.384998,0.000000,6.799770,6.269292,5.423920,0.000000,4.662991,3.791074
0.702,0,0,5.387499,0.000000,6.803783,6.269873,5.428683,0.000000,4.663722,3.791219
0.703,0,0,5.390001,0.000000,6.807796,6.270453,5.433445,0.000000,4.664452,3.791364
0.704,0,0,5.392503,0.000000,6.811808,6.271033,5.438208,0.000000,4.665182,3.791510
0.705,0,0,5.394783,0.000000,6.815790,6.271523,5.442683,0.000000,4.665861,3.791706
0.706,0,0,5.395651,0.000000,6.819575,6.271439,5.445335,0.000000,4.666214,3.792225
0.707,0,0,5.396519,0.000000,6.823360,6.271356,5.447987,0.000000,4.666567,3.792744
0.708,0,0,5.397388,0.000000,6.827146,6.271272,5.450639,0.000000,4.666920,3.793263
0.709,0,0,5.398109,0.000000,6.830947,6.271201,5.453090,0.000000,4.667202,3.793899
0.710,0,0,5.397902,0.000000,6.834850,6.271213,5.454258,0.000000,4.667029,3.795274
0.711,0,0,5.397695,0.000000,6.838752,6.271224,5.455426,0.000000,4.666856,3.796650
0.712,0,0,5.397488,0.000000,6.842655,6.271236,5.456594,0.000000,4.666683,3.798025
0.713,0,0,5.397421,0.000000,6.846482,6.271284,5.457853,0.000000,4.666483,3.799417
0.714,0,0,5.398252,0.000000,6.849831,6.271555,5.459688,0.000000,4.666113,3.800910
0.715,0,0,5.399082,0.000000,6.853180,6.271826,5.461523,0.000000,4.665744,3.802404
0.716,0,0,5.399913,0.000000,6.856528,6.272097,5.463358,0.000000,4.665374,3.803898
0.717,0,0,5.401204,0.000000,6.859858,6.272265,5.465653,0.000000,4.664970,3.805284
0.718,0,0,5.405423,0.000000,6.863062,6.271783,5.470870,0.000000,4.664354,3.805984
0.719,0,0,5.409641,0.000000,6.866267,6.271301,5.476088,0.000000,4.663737,3.806685
0.720,0,0,5.413859,0.000000,6.869472,6.270818,5.481305,0.000000,4.663120,3.807386
0.721,0,0,5.417428,0.000000,6.872479,6.270412,5.485875,0.000000,4.662537,3.808052
0.722,0,0,5.416865,0.000000,6.874231,6.270493,5.486327,0.000000,4.662168,3.808496
0.723,0,0,5.416303,0.000000,6.875983,6.270573,5.486780,0.000000,4.661798,3.808940
0.724,0,0,5.415741,0.000000,6.877735,6.270654,5.487232,0.000000,4.661429,3.809385
0.725,0,0,5.415706,0.000000,6.879444,6.270786,5.488193,0.000000,4.661113,3.809825
0.726,0,0,5.419024,0.000000,6.880875,6.271249,5.492382,0.000000,4.661139,3.810236
0.727,0,0,5.422343,0.000000,6.882307,6.271712,5.496570,0.000000,4.661165,3.810648
0.728,0,0,5.425661,0.000000,6.883738,6.272174,5.500759,0.000000,4.661191,3.811059
0.729,0,0,5.428430,0.000000,6.885030,6.272633,5.504353,0.000000,4.661191,3.811474
0.730,0,0,5.427706,0.000000,6.885436,6.273066,5.504172,0.000000,4.661036,3.811910
0.731,0,0,5.426983,0.000000,6.885842,6.273498,5.503992,0.000000,4.660881,3.812345
0.732,0,0,5.426260,0.000000,6.886248,6.273930,5.503811,0.000000,4.660725,3.812780
0.733,0,0,5.426398,0.000000,6.886520,6.274251,5.504486,0.000000,4.660550,3.813134
0.734,0,0,5.432003,0.000000,6.885944,6.273867,5.510599,0.000000,4.660253,3.812967
0.735,0,0,5.437608,0.000000,6.885367,6.273483,5.516711,0.000000,4.659956,3.812799
0.736,0,0,5.443213,0.000000,6.884791,6.273099,5.522824,0.000000,4.659658,3.812632
0.737,0,0,5.448237,0.000000,6.884177,6.272827,5.528355,0.461583,4.659345,3.812344
0.738,0,0,5.449564,0.000000,6.883326,6.273262,5.530188,2.578934,4.658929,3.811291
0.739,0,1,5.450890,0.000000,6.882475,6.273696,5.532021,4.234526,4.658513,3.810238
0.740,0,1,5.452216,0.000000,6.881623,6.274131,5.533854,4.233712,4.658097,3.809185
0.741,0,1,5.453613,0.000000,6.880653,6.274416,5.535750,4.232894,4.657675,3.808125
0.742,0,1,5.455457,0.000000,6.878925,6.273747,5.538050,4.232064,4.657213,3.807028
0.743,0,1,5.457301,0.000000,6.877198,6.273078,5.540351,4.231254,4.656751,3.805931
0.744,0,1,5.459145,0.000000,6.875470,6.272409,5.542651,4.230517,4.656289,3.804834
0.745,0,1,5.460268,0.000000,6.873703,6.271710,5.544282,4.229815,4.655830,3.803801
0.746,0,1,5.456813,0.000000,6.871680,6.270819,5.541660,4.229240,4.655400,3.803176
0.747,0,1,5.453359,0.000000,6.869657,6.269928,5.539038,4.228684,4.654969,3.802552
0.748,0,1,5.449904,0.000000,6.867634,6.269037,5.536415,4.228197,4.654539,3.801928
0.749,0,1,5.446784,0.000000,6.865504,6.268464,5.534221,4.227710,4.654148,3.801276
0.750,0,1,5.445797,0.000000,6.862688,6.269913,5.534743,4.227223,4.654010,3.800451
0.751,0,1,5.444810,0.000000,6.859872,6.271362,5.535265,4.226738,4.653872,3.799625
0.752,0,1,5.443823,0.000000,6.857056,6.272812,5.535788,4.226261,4.653734,3.798800
0.753,0,1,5.443737,0.000000,6.854163,6.274299,5.537286,4.225793,4.653577,3.798007
0.754,0,1,5.449378,0.000000,6.850778,6.276027,5.544981,4.225355,4.653299,3.797420
0.755,0,1,5.455018,0.000000,6.847393,6.277754,5.552677,4.224919,4.653021,3.796833
0.756,0,1,5.460659,0.000000,6.844008,6.279482,5.560372,4.224491,4.652743,3.796246
0.757,0,1,5.465518,0.000000,6.840696,6.281069,5.567309,4.224056,4.652455,3.795649
0.758,0,1,5.465412,0.000000,6.837844,6.281759,5.569429,4.223595,4.652098,3.794990
0.759,0,1,5.465307,0.000000,6.834992,6.282449,5.571549,4.223114,4.651741,3.794331
0.760,0,1,5.465201,0.000000,6.832141,6.283139,5.573668,4.222567,4.651383,3.793672
0.761,0,1,5.465519,0.000000,6.829262,6.283887,5.576227,4.221994,4.651018,3.792973
0.762,0,1,5.468526,0.000000,6.826211,6.284997,5.581573,4.221331,4.650599,3.792020
0.763,0,1,5.471534,0.000000,6.823160,6.286108,5.586919,4.220658,4.650181,3.791067
0.764,0,1,5.474541,0.000000,6.820109,6.287219,5.592266,4.219953,4.649762,3.790114
0.765,0,1,5.477999,0.000000,6.817117,6.288455,5.598040,4.219263,4.649344,3.789202
0.766,0,1,5.484322,0.000000,6.814502,6.290485,5.606532,4.218626,4.648932,3.788550
0.767,0,1,5.490644,0.000000,6.811886,6.292515,5.615025,4.218032,4.648521,3.787898
0.768,0,1,5.496967,0.000000,6.809271,6.294546,5.623517,4.217589,4.648109,3.787246
0.769,0,1,5.502210,0.000000,6.806652,6.296607,5.630874,4.217212,4.647717,3.786728
0.770,0,1,5.500591,0.000000,6.804009,6.298867,5.631021,4.217072,4.647452,3.787057
0.771,0,1,5.498973,0.000000,6.801366,6.301127,5.631168,4.217001,4.647187,3.787386
0.772,0,1,5.497355,0.000000,6.798724,6.303387,5.631315,4.217179,4.646922,3.787715
0.773,0,1,5.496362,0.000000,6.796231,6.305740,5.632038,4.217421,4.646723,3.788127
0.774,0,1,5.499350,0.000000,6.794693,6.308686,5.636418,4.217890,4.646948,3.789061
0.775,0,1,5.502338,0.000000,6.793154,6.311633,5.640798,4.218404,4.647172,3.789995
0.776,0,1,5.505326,0.000000,6.791615,6.314579,5.645178,4.219077,4.647398,3.790929
0.777,0,1,5.508393,0.000000,6.790171,6.317619,5.649598,4.219775,4.647673,3.791882
0.778,0,1,5.511962,0.000000,6.789326,6.321256,5.654273,4.220561,4.648271,3.792949
0.779,0,1,5.515532,0.000000,6.788481,6.324893,5.658947,4.221365,4.648869,3.794016
0.780,0,1,5.519101,0.000000,6.787636,6.328529,5.663622,4.222237,4.649467,3.795083
0.781,0,1,5.522059,0.000000,6.786817,6.332317,5.667687,4.223124,4.650091,3.796154
0.782,0,1,5.521135,0.000000,6.786158,6.337060,5.667877,4.224065,4.650888,3.797255
0.783,0,1,5.520211,0.000000,6.785499,6.341804,5.668067,4.225008,4.651685,3.798356
0.784,0,1,5.519287,0.000000,6.784841,6.346547,5.668257,4.225965,4.652482,3.799457
0.785,0,1,5.518100,0.000000,6.784222,6.351504,5.668191,4.226914,4.653213,3.800621
0.786,0,1,5.515250,0.000000,6.783858,6.357820,5.666506,4.227842,4.653526,3.802185
0.787,0,1,5.512399,0.000000,6.783494,6.364135,5.664820,4.228774,4.653840,3.803748
0.788,0,1,5.509548,0.000000,6.783130,6.370451,5.663134,4.229722,4.654154,3.805312
0.789,0,1,5.507098,0.000000,6.782796,6.376227,5.661856,4.230688,4.654474,3.806907
0.790,0,1,5.507191,0.000000,6.782650,6.378574,5.663167,4.231717,4.654836,3.808701
0.791,0,1,5.507285,0.000000,6.782503,6.380922,5.664479,4.232767,4.655199,3.810495
0.792,0,1,5.507378,0.000000,6.782356,6.383269,5.665790,4.233886,4.655561,3.812289
0.793,0,1,5.508666,0.000000,6.782247,6.385781,5.668285,4.235021,4.655935,3.814108
0.794,0,1,5.517544,0.000000,6.782375,6.389338,5.678298,4.236216,4.656386,3.816089
0.795,0,1,5.526422,0.000000,6.782502,6.392893,5.688310,4.237419,4.656837,3.818069
0.796,0,1,5.535300,0.000000,6.782629,6.396450,5.698323,4.238653,4.657287,3.820050
0.797,0,1,5.543995,0.000000,6.782636,6.399981,5.708152,4.239888,4.657712,3.822070
0.798,0,1,5.551528,0.000000,6.781877,6.403357,5.716815,4.241130,4.657971,3.824337
0.799,0,1,5.559062,0.000000,6.781117,6.406733,5.725478,4.242381,4.658230,3.826605
0.800,0,1,5.566595,0.000000,6.780358,6.410110,5.734141,4.243662,4.658489,3.828873
0.801,0,1,5.573744,0.000000,6.779637,6.412922,5.742414,4.244960,4.658776,3.831149
0.802,0,1,5.578452,0.000000,6.779158,6.412155,5.748206,4.246319,4.659235,3.833478
0.803,0,1,5.583160,0.000000,6.778679,6.411388,5.753997,4.247693,4.659696,3.835808
0.804,0,1,5.587868,0.000000,6.778201,6.410622,5.759789,4.249118,4.660155,3.838138
0.805,0,1,5.593333,0.000000,6.777718,6.409355,5.766321,4.250546,4.660583,3.840486
0.806,0,1,5.603609,0.000000,6.777209,6.404916,5.777549,4.251984,4.660809,3.842951
0.807,0,1,5.613885,0.000000,6.776701,6.400478,5.788776,4.253385,4.661035,3.845416
0.808,0,1,5.624161,0.000000,6.776192,6.396039,5.800004,4.254652,4.661261,3.847881
0.809,0,1,5.633643,0.000000,6.775703,6.391965,5.810435,4.255856,4.661415,3.850321
0.810,0,1,5.638081,0.000000,6.775334,6.390208,5.815798,4.256831,4.661111,3.852601
0.811,0,1,5.642519,0.000000,6.774966,6.388451,5.821161,4.257811,4.660807,3.854880
0.812,0,1,5.646957,0.000000,6.774597,6.386693,5.826525,4.258809,4.660503,3.857160
0.813,0,1,5.651124,0.000000,6.774296,6.384618,5.831630,4.259878,4.660263,3.859466
0.814,0,1,5.653573,0.000000,6.774423,6.380525,5.835094,4.261200,4.660424,3.861943
0.815,0,1,5.656022,0.000000,6.774550,6.376431,5.838558,4.262521,4.660585,3.864419
0.816,0,1,5.658471,0.000000,6.774678,6.372337,5.842022,4.263837,4.660747,3.866895
0.817,0,1,5.660959,0.000000,6.774786,6.368249,5.845516,4.265070,4.660890,3.869257
0.818,0,1,5.663689,0.000000,6.774777,6.364200,5.849196,4.266003,4.660921,3.870890
0.819,0,1,5.666419,0.000000,6.774768,6.360150,5.852877,4.266894,4.660951,3.872524
0.820,0,1,5.669148,0.000000,6.774759,6.356101,5.856557,4.267641,4.660982,3.874157
0.821,0,1,5.671534,0.000000,6.774763,6.352325,5.859855,4.268408,4.661022,3.875782
0.822,0,1,5.671734,0.000000,6.774847,6.350294,5.860722,4.269247,4.661127,3.877352
0.823,0,1,5.671935,0.000000,6.774930,6.348261,5.861588,4.270086,4.661232,3.878922
0.824,0,1,5.672135,0.000000,6.775015,6.346229,5.862455,4.270922,4.661336,3.880492
0.825,0,1,5.672808,0.000000,6.775170,6.344506,5.863744,4.271726,4.661409,3.882053
0.826,0,1,5.676481,0.000000,6.775777,6.344745,5.867713,4.272417,4.661278,3.883553
0.827,0,1,5.680155,0.000000,6.776385,6.344985,5.871684,4.273105,4.661147,3.885052
0.828,0,1,5.683828,0.000000,6.776992,6.345223,5.875653,4.273784,4.661016,3.886552
0.829,0,1,5.687372,0.000000,6.777587,6.345504,5.879412,4.274487,4.660861,3.888082
0.830,0,1,5.690092,0.000000,6.778100,6.346046,5.881833,4.275278,4.660558,3.889802
0.831,0,1,5.692812,0.000000,6.778614,6.346588,5.884254,4.276036,4.660254,3.891521
0.832,0,1,5.695532,0.000000,6.779127,6.347130,5.886674,4.276673,4.659949,3.893241
0.833,0,1,5.698636,0.000000,6.779735,6.348038,5.889366,4.277215,4.659605,3.894818
0.834,0,1,5.704176,0.000000,6.780950,6.351274,5.893785,4.277415,4.659008,3.895485
0.835,0,1,5.709717,0.000000,6.782165,6.354511,5.898205,4.277548,4.658410,3.896153
0.836,0,1,5.715258,0.000000,6.783380,6.357748,5.902624,4.277442,4.657812,3.896821
0.837,0,1,5.720176,0.000000,6.784587,6.361199,5.906337,4.277323,4.657244,3.897418
0.838,0,1,5.721142,0.000000,6.785749,6.366018,5.905568,4.277151,4.656865,3.897566
0.839,0,1,5.722107,0.000000,6.786912,6.370837,5.904798,4.277001,4.656486,3.897715
0.840,0,1,5.723073,0.000000,6.788074,6.375656,5.904028,4.276935,4.656107,3.897864
0.841,0,1,5.724340,0.000000,6.789204,6.380786,5.903504,4.276909,4.655775,3.898021
0.842,0,1,5.727519,0.000000,6.790121,6.387894,5.904536,4.277029,4.655737,3.898231
0.843,0,1,5.730698,0.000000,6.791039,6.395002,5.905569,4.277136,4.655700,3.898442
0.844,0,1,5.733876,0.000000,6.791956,6.402111,5.906602,4.277194,4.655662,3.898652
0.845,0,1,5.737336,0.000000,6.792856,6.409341,5.907882,4.277186,4.655607,3.898780
0.846,0,1,5.742577,0.000000,6.793636,6.417346,5.910734,4.276943,4.655437,3.898382
0.847,0,1,5.747819,0.000000,6.794417,6.425352,5.913586,4.276684,4.655267,3.897984
0.848,0,1,5.753060,0.000000,6.795197,6.433357,5.916438,4.276365,4.655097,3.897586
0.849,0,1,5.758077,0.000000,6.796050,6.441524,5.919070,3.810019,4.654929,3.897303
0.850,0,0,5.761665,0.000000,6.797353,6.450716,5.920309,1.671961,4.654770,3.897743
0.851,0,0,5.765253,0.000000,6.798656,6.459909,5.921546,0.000000,4.654612,3.898184
0.852,0,0,5.768841,0.000000,6.799960,6.469101,5.922785,0.000000,4.654454,3.898625
0.853,0,0,5.772416,0.000000,6.801257,6.478276,5.924051,0.000000,4.654300,3.899279
0.854,0,0,5.775908,0.000000,6.802514,6.487339,5.925497,0.000000,4.654170,3.901288
0.855,0,0,5.779400,0.000000,6.803770,6.496402,5.926942,0.000000,4.654039,3.903297
0.856,0,0,5.782892,0.000000,6.805027,6.505465,5.928388,0.000000,4.653910,3.905305
0.857,0,0,5.786643,0.000000,6.806298,6.514481,5.930135,0.000000,4.653783,3.907338
0.858,0,0,5.792037,0.000000,6.807667,6.523199,5.933798,0.000000,4.653682,3.909522
0.859,0,0,5.797431,0.000000,6.809035,6.531917,5.937461,0.000000,4.653580,3.911705
0.860,0,0,5.802824,0.000000,6.810404,6.540635,5.941125,0.000000,4.653479,3.913889
0.861,0,0,5.807909,0.000000,6.811757,6.549224,5.944517,0.000000,4.653346,3.916031
0.862,0,0,5.811027,0.000000,6.813014,6.556993,5.946182,0.000000,4.653015,3.917912
0.863,0,0,5.814146,0.000000,6.814271,6.564763,5.947847,0.000000,4.652684,3.919793
0.864,0,0,5.817264,0.000000,6.815528,6.572532,5.949512,0.000000,4.652353,3.921674
0.865,0,0,5.820179,0.000000,6.816738,6.579930,5.950999,0.000000,4.652051,3.923757
0.866,0,0,5.821802,0.000000,6.817643,6.584968,5.951350,0.000000,4.651940,3.927121
0.867,0,0,5.823425,0.000000,6.818548,6.590006,5.951701,0.000000,4.651829,3.930485
0.868,0,0,5.825048,0.000000,6.819454,6.595044,5.952053,0.000000,4.651718,3.933850
0.869,0,0,5.826425,0.000000,6.820379,6.599704,5.952171,0.000000,4.651610,3.937207
0.870,0,0,5.826240,0.000000,6.821434,6.601971,5.950814,0.000000,4.651518,3.940521
0.871,0,0,5.826055,0.000000,6.822488,6.604237,5.949456,0.000000,4.651426,3.943835
0.872,0,0,5.825871,0.000000,6.823542,6.606503,5.948099,0.000000,4.651334,3.947149
0.873,0,0,5.825959,0.000000,6.824605,6.608428,5.947018,0.000000,4.651257,3.950521
0.874,0,0,5.827784,0.000000,6.825723,6.608175,5.947690,0.000000,4.651268,3.954254
0.875,0,0,5.829609,0.000000,6.826841,6.607922,5.948361,0.000000,4.651280,3.957987
0.876,0,0,5.831434,0.000000,6.827959,6.607669,5.949033,0.000000,4.651291,3.961721
0.877,0,0,5.833357,0.000000,6.829040,6.607134,5.949803,0.000000,4.651312,3.965441
0.878,0,0,5.835904,0.000000,6.829886,6.604803,5.951192,0.000000,4.651389,3.969080
0.879,0,0,5.838451,0.000000,6.830733,6.602472,5.952582,0.000000,4.651465,3.972718
0.880,0,0,5.840998,0.000000,6.831580,6.600141,5.953971,0.000000,4.651543,3.976357
0.881,0,0,5.843707,0.000000,6.832454,6.597883,5.955520,0.000000,4.651618,3.980100
0.882,0,0,5.847439,0.000000,6.833505,6.596095,5.958081,0.000000,4.651685,3.984508
0.883,0,0,5.851172,0.000000,6.834556,6.594306,5.960642,0.000000,4.651753,3.988916
0.884,0,0,5.854905,0.000000,6.835606,6.592518,5.963203,0.000000,4.651820,3.993324
0.885,0,0,5.858058,0.000000,6.836554,6.590672,5.965172,0.000000,4.651835,3.998134
0.886,0,0,5.857530,0.000000,6.836845,6.588464,5.963374,0.000000,4.651518,4.005497
0.887,0,0,5.857002,0.000000,6.837136,6.586256,5.961576,0.000000,4.651202,4.012860
0.888,0,0,5.856474,0.000000,6.837427,6.584048,5.959778,0.000000,4.650885,4.020224
0.889,0,0,5.856361,0.000000,6.837667,6.581846,5.958387,0.000000,4.650587,4.027535
0.890,0,0,5.858881,0.000000,6.837582,6.579682,5.959575,0.000000,4.650409,4.034518
0.891,0,0,5.861402,0.000000,6.837497,6.577518,5.960763,0.000000,4.650230,4.041501
0.892,0,0,5.863923,0.000000,6.837412,6.575355,5.961951,0.000000,4.650052,4.048483
0.893,0,0,5.866218,0.000000,6.837310,6.573276,5.962907,0.000000,4.649893,4.055503
0.894,0,0,5.867076,0.000000,6.837104,6.571738,5.962391,0.000000,4.649858,4.062762
0.895,0,0,5.867934,0.000000,6.836898,6.570199,5.961875,0.000000,4.649822,4.070022
0.896,0,0,5.868793,0.000000,6.836692,6.568662,5.961360,0.000000,4.649786,4.077281
0.897,0,0,5.869890,0.000000,6.836453,6.567121,5.961076,0.000000,4.649734,4.084664
0.898,0,0,5.872503,0.000000,6.836010,6.565561,5.962268,0.000000,4.649580,4.092833
0.899,0,0,5.875117,0.000000,6.835565,6.564002,5.963460,0.000000,4.649425,4.101002
0.900,0,0,5.877730,0.000000,6.835121,6.562443,5.964653,0.000000,4.649271,4.109170
0.901,0,0,5.879963,0.000000,6.834666,6.560503,5.965453,0.000000,4.649178,4.117159
0.902,0,0,5.879778,0.000000,6.834139,6.556148,5.963767,0.000000,4.649474,4.124005
0.903,0,0,5.879593,0.000000,6.833613,6.551793,5.962080,0.000000,4.649770,4.130850
0.904,0,0,5.879407,0.000000,6.833086,6.547437,5.960393,0.000000,4.650066,4.137696
0.905,0,0,5.879187,0.000000,6.832561,6.543180,5.958671,0.000000,4.650364,4.144315
0.906,0,0,5.878738,0.000000,6.832043,6.539549,5.956719,0.000000,4.650669,4.149497
0.907,0,0,5.878289,0.000000,6.831525,6.535918,5.954768,0.000000,4.650974,4.154679
0.908,0,0,5.877840,0.000000,6.831007,6.532288,5.952817,0.000000,4.651278,4.159861
0.909,0,0,5.877665,0.000000,6.830458,6.528759,5.951143,0.000000,4.651609,4.164787
0.910,0,0,5.879230,0.000000,6.829703,6.525882,5.951231,0.000000,4.652102,4.168091
0.911,0,0,5.880795,0.727329,6.828949,6.523005,5.951320,0.000000,4.652596,4.171395
0.912,1,0,5.882360,4.063699,6.828195,6.520128,5.951408,0.000000,4.653089,4.174700
0.913,1,0,5.883879,6.672349,6.827401,6.517302,5.951445,0.000000,4.653604,4.177961
0.914,1,0,5.885107,6.670559,6.826356,6.514802,5.951154,0.000000,4.654256,4.180947
0.915,1,0,5.886335,6.668776,6.825313,6.512302,5.950863,0.000000,4.654910,4.183933
0.916,1,0,5.887562,6.667019,6.824268,6.509802,5.950572,0.000000,4.655562,4.186920
0.917,1,0,5.888759,6.665293,6.823264,6.507391,5.950248,0.000000,4.656221,4.189614
0.918,1,0,5.889759,6.663677,6.822514,6.505552,5.949712,0.000000,4.656914,4.190454
0.919,1,0,5.890759,6.662190,6.821763,6.503712,5.949176,0.000000,4.657608,4.191295
0.920,1,0,5.891759,6.661167,6.821012,6.501873,5.948641,0.000000,4.658301,4.192135
0.921,1,0,5.892989,6.660347,6.820275,6.500401,5.948338,0.000000,4.659004,4.193006
0.922,1,0,5.895674,6.660261,6.819628,6.501275,5.949516,0.000000,4.659771,4.194072
0.923,1,0,5.898359,6.660255,6.818981,6.502149,5.950694,0.000000,4.660539,4.195137
0.924,1,0,5.901044,6.660539,6.818334,6.503022,5.951871,0.000000,4.661306,4.196203
0.925,1,0,5.903214,6.660772,6.817688,6.503906,5.952549,0.000000,4.662074,4.197134
0.926,1,0,5.902112,6.660825,6.817054,6.504858,5.950052,0.000000,4.662841,4.197208
0.927,1,0,5.901010,6.660921,6.816420,6.505809,5.947556,0.000000,4.663608,4.197282
0.928,1,0,5.899908,6.661168,6.815785,6.506760,5.945058,0.000000,4.664375,4.197357
0.929,1,0,5.899471,6.661563,6.815182,6.507910,5.943255,0.000000,4.665164,4.197429
0.930,1,0,5.903267,6.662490,6.814772,6.510324,5.945861,0.000000,4.666087,4.197487
0.931,1,0,5.907062,6.663448,6.814362,6.512736,5.948467,0.000000,4.667010,4.197546
0.932,1,0,5.910857,6.664514,6.813951,6.515150,5.951073,0.000000,4.667933,4.197605
0.933,1,0,5.914677,6.665482,6.813495,6.517520,5.953727,0.000000,4.668835,4.197579
0.934,1,0,5.918651,6.666102,6.812742,6.519625,5.956694,0.000000,4.669594,4.197021
0.935,1,0,5.922624,6.666745,6.811988,6.521729,5.959661,0.000000,4.670354,4.196464
0.936,1,0,5.926598,6.667466,6.811235,6.523834,5.962627,0.000000,4.671113,4.195906
0.937,1,0,5.930018,6.668334,6.810501,6.526101,5.965059,0.000000,4.671857,4.195054
0.938,1,0,5.929923,6.669727,6.809889,6.529402,5.964087,0.000000,4.672504,4.192333
0.939,1,0,5.929827,6.671101,6.809278,6.532703,5.963116,0.000000,4.673150,4.189613
0.940,1,0,5.929731,6.672405,6.808666,6.536004,5.962144,0.000000,4.673796,4.186892
0.941,1,0,5.929913,6.673513,6.808090,6.538975,5.961438,0.000000,4.674403,4.184236
0.942,1,0,5.931854,6.673916,6.807747,6.539852,5.962416,0.000000,4.674763,4.181988
0.943,1,0,5.933795,6.674263,6.807404,6.540730,5.963393,0.000000,4.675122,4.179739
0.944,1,0,5.935737,6.674414,6.807061,6.541607,5.964371,0.000000,4.675481,4.177491
0.945,1,0,5.937346,6.674682,6.806745,6.542581,5.964958,0.000000,4.675842,4.175173
0.946,1,0,5.936844,6.675368,6.806602,6.544166,5.963057,0.000000,4.676212,4.172409
0.947,1,0,5.936342,6.676068,6.806460,6.545752,5.961155,0.000000,4.676582,4.169644
0.948,1,0,5.935840,6.676821,6.806318,6.547337,5.959255,0.000000,4.676952,4.166880
0.949,1,0,5.935163,6.677442,6.806209,6.548644,5.957095,0.000000,4.677238,4.164113
0.950,1,0,5.933379,6.677589,6.806309,6.548186,5.953294,0.000000,4.676985,4.161326
0.951,1,0,5.931594,6.677605,6.806409,6.547728,5.949493,0.000000,4.676732,4.158538
0.952,1,0,5.929810,6.677149,6.806509,6.547269,5.945692,0.000000,4.676480,4.155751
0.953,1,0,5.928523,6.676607,6.806630,6.546588,5.942272,0.000000,4.676208,4.152997
0.954,1,0,5.930394,6.675756,6.806883,6.544491,5.941278,0.000000,4.675811,4.150456
0.955,1,0,5.932266,6.674876,6.807136,6.542394,5.940283,0.000000,4.675414,4.147915
0.956,1,0,5.934138,6.673893,6.807389,6.540297,5.939288,0.000000,4.675018,4.145373
0.957,1,0,5.935734,6.672924,6.807653,6.538174,5.937896,0.000000,4.674583,4.142852
0.958,1,0,5.935578,6.672005,6.807990,6.535887,5.933979,0.000000,4.673912,4.140457
0.959,1,0,5.935423,6.671063,6.808327,6.533601,5.930062,0.000000,4.673241,4.138062
0.960,1,0,5.935267,6.670042,6.808664,6.531315,5.926145,0.000000,4.672569,4.135667
0.961,1,0,5.934929,6.668966,6.808977,6.528990,5.921959,0.000000,4.671735,4.133563
0.962,1,0,5.933428,6.667690,6.809134,6.526417,5.916066,0.000000,4.669868,4.133306
0.963,1,0,5.931926,6.666442,6.809292,6.523843,5.910173,0.000000,4.668000,4.133049
0.964,1,0,5.930425,6.665290,6.809449,6.521270,5.904280,0.000000,4.666133,4.132793
0.965,1,0,5.928948,6.664242,6.809635,6.518815,5.898367,0.000000,4.664289,4.132655
0.966,1,0,5.927622,6.663563,6.810004,6.517110,5.892333,0.000000,4.662592,4.133268
0.967,1,0,5.926297,6.662889,6.810372,6.515405,5.886298,0.000000,4.660895,4.133881
0.968,1,0,5.924971,6.662230,6.810740,6.513700,5.880263,0.000000,4.659198,4.134494
0.969,1,0,5.923556,6.661477,6.811094,6.511913,5.874127,0.000000,4.657601,4.135134
0.970,1,0,5.921570,6.660383,6.811353,6.509609,5.867345,0.000000,4.656635,4.135946
0.971,1,0,5.919584,6.659317,6.811612,6.507304,5.860563,0.000000,4.655670,4.136758
0.972,1,0,5.917599,6.658354,6.811871,6.505000,5.853781,0.000000,4.654704,4.137571
0.973,1,0,5.915800,6.657535,6.812080,6.502903,5.847206,0.000000,4.653762,4.138468
0.974,1,0,5.915189,6.657235,6.811970,6.502118,5.841940,0.000000,4.652966,4.139905
0.975,1,0,5.914579,6.656876,6.811861,6.501334,5.836674,0.000000,4.652170,4.141343
0.976,1,0,5.913968,6.656306,6.811750,6.500549,5.831409,0.000000,4.651373,4.142780
0.977,1,0,5.913676,6.655482,6.811617,6.499434,5.826515,0.000000,4.650483,4.144219
0.978,1,0,5.915403,6.653749,6.811338,6.496213,5.823988,0.000000,4.648993,4.145669
0.979,1,0,5.917130,6.652008,6.811059,6.492993,5.821460,0.000000,4.647503,4.147120
0.980,1,0,5.918857,6.650242,6.810780,6.489772,5.818933,0.000000,4.646013,4.148570
0.981,1,0,5.920667,6.648730,6.810429,6.486945,5.816547,0.000000,4.644526,4.150089
0.982,1,0,5.923007,6.648130,6.809623,6.486618,5.815059,0.000000,4.643054,4.152042
0.983,1,0,5.925345,6.647543,6.808817,6.486290,5.813571,0.000000,4.641581,4.153996
0.984,1,0,5.927685,6.647007,6.808011,6.485961,5.812083,0.000000,4.640109,4.155949
0.985,1,0,5.929453,6.646213,6.807185,6.485312,5.810085,0.000000,4.638642,4.157898
0.986,1,0,5.927600,6.644490,6.806234,6.482624,5.804842,0.000000,4.637213,4.159827
0.987,1,0,5.925746,6.642727,6.805284,6.479936,5.799599,0.000000,4.635784,4.161756
0.988,1,0,5.923892,6.640823,6.804333,6.477247,5.794355,0.000000,4.634355,4.163684
0.989,1,0,5.922433,6.639152,6.803451,6.474840,5.789565,0.000000,4.632953,4.165619
0.990,1,0,5.923481,6.638319,6.803003,6.474219,5.787649,0.000000,4.631720,4.167592
0.991,1,0,5.924530,6.637608,6.802555,6.473599,5.785734,0.000000,4.630486,4.169565
0.992,1,0,5.925578,6.637328,6.802107,6.472978,5.783818,0.000000,4.629253,4.171537
0.993,1,0,5.926391,6.637005,6.801676,6.472393,5.781731,0.000000,4.627969,4.173453
0.994,1,0,5.925706,6.636526,6.801354,6.472028,5.778559,0.000000,4.626363,4.175007
0.995,1,0,5.925022,6.636101,6.801033,6.471663,5.775386,0.000000,4.624757,4.176561
0.996,1,0,5.924337,6.635872,6.800712,6.471298,5.772214,0.000000,4.623152,4.178115
0.997,1,0,5.922992,6.635803,6.800416,6.471108,5.768424,0.000000,4.621469,4.179723
0.998,1,0,5.917452,6.636303,6.800287,6.472026,5.760709,0.000000,4.619300,4.181673
0.999,1,0,5.911912,6.636762,6.800158,6.472944,5.752994,0.000000,4.617132,4.183623
1.000,1,0,5.906373,6.637068,6.800028,6.473862,5.745279,0.000000,4.614963,4.185573
1.001,1,0,5.900663,6.637142,6.799960,6.474422,5.737425,0.000000,4.612829,4.187390
1.002,1,0,5.893878,6.636385,6.800276,6.472713,5.728686,0.000000,4.610910,4.188365
1.003,1,0,5.887092,6.635652,6.800593,6.471004,5.719947,0.000000,4.608993,4.189339
1.004,1,0,5.880306,6.635005,6.800910,6.469296,5.711208,0.000000,4.607074,4.190313
1.005,1,0,5.872849,6.634650,6.801233,6.467992,5.701817,0.000000,4.605088,4.191317
1.006,1,0,5.861127,6.635345,6.801600,6.469264,5.688285,0.000000,4.602668,4.192514
1.007,1,0,5.849405,6.636090,6.801967,6.470535,5.674752,0.000000,4.600248,4.193711
1.008,1,0,5.837684,6.637018,6.802333,6.471806,5.661220,0.000000,4.597827,4.194909
1.009,1,0,5.826898,6.637712,6.802761,6.472716,5.648612,0.000000,4.595308,4.196035
1.010,1,0,5.822061,6.637567,6.803576,6.471332,5.641876,0.000000,4.592159,4.196711
1.011,1,0,5.817223,6.637365,6.804390,6.469947,5.635140,0.000000,4.589009,4.197388
1.012,1,0,5.812385,6.636959,6.805205,6.468563,5.628404,0.000000,4.585860,4.198064
1.013,1,0,5.807318,6.636733,6.806114,6.467343,5.621408,0.000000,4.582690,4.198735
1.014,1,0,5.800797,6.637151,6.807621,6.467167,5.612754,0.000000,4.579392,4.199373
1.015,1,0,5.794277,6.637670,6.809128,6.466990,5.604101,0.000000,4.576094,4.200012
1.016,1,0,5.787756,6.638546,6.810635,6.466815,5.595448,0.000000,4.572796,4.200650
1.017,1,0,5.781570,6.639389,6.812174,6.466624,5.587103,0.000000,4.569501,4.201155
1.018,1,0,5.777511,6.640114,6.813915,6.466346,5.580719,0.000000,4.566226,4.200818
1.019,1,0,5.773451,6.640841,6.815657,6.466067,5.574335,0.000000,4.562950,4.200481
1.020,1,0,5.769391,6.641578,6.817398,6.465788,5.567951,0.000000,4.559674,4.200144
1.021,1,0,5.765479,6.642375,6.819037,6.465697,5.561718,0.000000,4.556476,4.199856
1.022,1,0,5.762511,6.643392,6.820027,6.466798,5.556449,0.000000,4.553769,4.199872
1.023,1,0,5.759542,6.644420,6.821016,6.467898,5.551180,0.000000,4.551063,4.199889
1.024,1,0,5.756573,6.645490,6.822006,6.468999,5.545911,0.000000,4.548356,4.199906
1.025,1,0,5.753313,6.646511,6.823093,6.469934,5.540383,0.000000,4.545673,4.199771
1.026,1,0,5.748201,6.647357,6.824802,6.469816,5.533214,0.000000,4.543141,4.198669
1.027,1,0,5.743090,6.648181,6.826510,6.469697,5.526045,0.000000,4.540609,4.197567
1.028,1,0,5.737978,6.648933,6.828219,6.469578,5.518876,0.000000,4.538078,4.196465
1.029,1,0,5.732737,6.649712,6.829814,6.469628,5.511657,0.000000,4.535575,4.195498
1.030,1,0,5.726672,6.650588,6.830686,6.470757,5.504126,0.000000,4.533256,4.195386
1.031,1,0,5.720607,6.651515,6.831557,6.471886,5.496594,0.000000,4.530937,4.195274
1.032,1,0,5.714542,6.652619,6.832429,6.473014,5.489063,0.000000,4.528617,4.195163
1.033,1,0,5.708415,6.653787,6.833588,6.474004,5.481581,0.000000,4.526350,4.195060
1.034,1,0,5.701891,6.655178,6.836572,6.474114,5.474419,0.000000,4.524406,4.195009
1.035,1,0,5.695368,6.656632,6.839556,6.474224,5.467256,0.000000,4.522464,4.194959
1.036,1,0,5.688844,6.658311,6.842539,6.474334,5.460093,0.000000,4.520521,4.194909
1.037,1,0,5.682948,6.660060,6.845716,6.474461,5.453700,0.000000,4.518624,4.194753
1.038,1,0,5.681036,6.662061,6.850112,6.474696,5.452192,0.000000,4.517020,4.193927
1.039,1,0,5.679125,6.664189,6.854509,6.474931,5.450684,0.000000,4.515415,4.193102
1.040,1,0,5.677213,6.666771,6.858906,6.475166,5.449176,0.000000,4.513811,4.192276
1.041,1,0,5.675150,6.669510,6.863455,6.475512,5.447642,0.000000,4.512289,4.191474
1.042,1,0,5.672128,6.672805,6.868969,6.476560,5.445941,0.000000,4.511292,4.190819
1.043,1,0,5.669105,5.947766,6.874483,6.477607,5.444241,0.000000,4.510295,4.190163
1.044,0,0,5.666082,2.610075,6.879996,6.478655,5.442540,0.000000,4.509298,4.189508
1.045,0,0,5.663041,0.000000,6.885355,6.479566,5.440923,0.000000,4.508510,4.188900
1.046,0,0,5.659883,0.000000,6.889733,6.479603,5.439833,0.000000,4.509048,4.188601
1.047,0,0,5.656725,0.000000,6.894112,6.479640,5.438743,0.000000,4.509587,4.188300
1.048,0,0,5.653567,0.000000,6.898490,6.479677,5.437653,0.000000,4.510125,4.188000
1.049,0,0,5.650824,0.000000,6.902820,6.479664,5.437033,0.000000,4.510691,4.187719
1.050,0,0,5.650712,0.000000,6.906841,6.479333,5.439405,0.000000,4.511425,4.187556
1.051,0,0,5.650601,0.000000,6.910862,6.479002,5.441777,0.000000,4.512160,4.187394
1.052,0,0,5.650490,0.000000,6.914884,6.478671,5.444149,0.000000,4.512895,4.187231
1.053,0,0,5.649556,0.000000,6.918807,6.478301,5.445740,0.000000,4.513560,4.187150
1.054,0,0,5.643395,0.000000,6.922106,6.477689,5.442378,0.000000,4.513777,4.187588
1.055,0,0,5.637234,0.000000,6.925405,6.477077,5.439016,0.000000,4.513994,4.188025
1.056,0,0,5.631073,0.000000,6.928703,6.476464,5.435653,0.000000,4.514211,4.188463
1.057,0,0,5.624859,0.000000,6.931925,6.475738,5.432256,0.000000,4.514361,4.188894
1.058,0,0,5.618311,0.000000,6.934661,6.474291,5.428637,0.000000,4.514084,4.189283
1.059,0,0,5.611763,0.000000,6.937397,6.472844,5.425018,0.000000,4.513807,4.189672
1.060,0,0,5.605215,0.000000,6.940134,6.471397,5.421399,0.000000,4.513530,4.190062
1.061,0,0,5.599393,0.000000,6.942742,6.469926,5.418505,0.000000,4.513304,4.190470
1.062,0,0,5.598190,0.000000,6.944541,6.468304,5.420217,0.000000,4.513397,4.191002
1.063,0,0,5.596987,0.000000,6.946339,6.466681,5.421928,0.000000,4.513491,4.191534
1.064,0,0,5.595784,0.000000,6.948137,6.465059,5.423640,0.000000,4.513585,4.192066
1.065,0,0,5.594324,0.000000,6.949929,6.463590,5.425103,0.000000,4.513736,4.192525
1.066,0,0,5.591236,0.000000,6.951684,6.463093,5.424978,0.000000,4.514252,4.192522
1.067,0,0,5.588148,0.000000,6.953440,6.462597,5.424854,0.000000,4.514769,4.192519
1.068,0,0,5.585060,0.000000,6.955195,6.462101,5.424730,0.000000,4.515285,4.192516
1.069,0,0,5.581558,0.000000,6.956912,6.461718,5.424196,0.000000,4.515806,4.192586
1.070,0,0,5.575426,0.000000,6.958385,6.462054,5.421059,0.000000,4.516362,4.193128
1.071,0,0,5.569294,0.000000,6.959857,6.462390,5.417922,0.000000,4.516918,4.193670
1.072,0,0,5.563162,0.000000,6.961329,6.462727,5.414785,0.000000,4.517473,4.194211
1.073,0,0,5.557411,0.000000,6.962935,6.462910,5.412022,0.000000,4.518050,4.194840
1.074,0,0,5.554080,0.000000,6.965386,6.462124,5.411632,0.000000,4.518762,4.196020
1.075,0,0,5.550750,0.000000,6.967837,6.461338,5.411242,0.000000,4.519473,4.197200
1.076,0,0,5.547420,0.000000,6.970287,6.460552,5.410851,0.000000,4.520184,4.198380
1.077,0,0,5.543995,0.000000,6.972659,6.459901,5.410353,0.000000,4.520921,4.199554
1.078,0,0,5.539974,0.000000,6.974526,6.460107,5.409167,0.000000,4.521821,4.200692
1.079,0,0,5.535953,0.000000,6.976393,6.460313,5.407982,0.000000,4.522722,4.201829
1.080,0,0,5.531931,0.000000,6.978260,6.460519,5.406796,0.000000,4.523623,4.202967
1.081,0,0,5.528398,0.000000,6.980330,6.460754,5.406104,0.000000,4.524578,4.204121
1.082,0,0,5.527968,0.000000,6.983689,6.461167,5.408541,0.000000,4.525877,4.205376
1.083,0,0,5.527538,0.000000,6.987047,6.461580,5.410979,0.000000,4.527176,4.206631
1.084,0,0,5.527109,0.000000,6.990406,6.461994,5.413416,0.000000,4.528476,4.207886
1.085,0,0,5.526484,0.000000,6.993536,6.462379,5.415651,0.000000,4.529755,4.208968
1.086,0,0,5.524623,0.000000,6.995208,6.462581,5.416596,0.000000,4.530908,4.208951
1.087,0,0,5.522762,0.000000,6.996881,6.462783,5.417541,0.000000,4.532061,4.208933
1.088,0,0,5.520902,0.000000,6.998554,6.462986,5.418486,0.000000,4.533215,4.208916
1.089,0,0,5.518849,0.000000,7.000111,6.463194,5.419231,0.000000,4.534466,4.208959
1.090,0,0,5.515577,0.000000,7.000930,6.463440,5.418707,0.000000,4.536345,4.209388
1.091,0,0,5.512305,0.000000,7.001750,6.463686,5.418184,0.000000,4.538225,4.209817
1.092,0,0,5.509033,0.000000,7.002570,6.463931,5.417660,0.000000,4.540104,4.210247
1.093,0,0,5.505731,0.000000,7.003251,6.464417,5.417130,0.000000,4.542082,4.210679
1.094,0,0,5.502236,0.000000,7.003047,6.466424,5.416552,0.000000,4.544687,4.211128
1.095,0,0,5.498742,0.000000,7.002843,6.468433,5.415975,0.000000,4.547293,4.211578
1.096,0,0,5.495247,0.000000,7.002639,6.470441,5.415397,0.000000,4.549898,4.212027
1.097,0,0,5.492251,0.000000,7.002629,6.472239,5.415348,0.000000,4.552495,4.212563
1.098,0,0,5.492420,0.000000,7.003856,6.472699,5.418659,0.000000,4.555050,4.213644
1.099,0,0,5.492589,0.000000,7.005083,6.473160,5.421970,0.000000,4.557604,4.214725
1.100,0,0,5.492758,0.000000,7.006310,6.473620,5.425282,0.000000,4.560158,4.215806
1.101,0,0,5.492594,0.000000,7.007538,6.474088,5.428273,0.000000,4.562690,4.216800
1.102,0,0,5.490311,0.000000,7.008768,6.474600,5.429232,0.000000,4.565083,4.217236
1.103,0,0,5.488029,0.000000,7.009999,6.475112,5.430192,0.000000,4.567474,4.217671
1.104,0,0,5.485746,0.000000,7.011229,6.475624,5.431151,0.000000,4.569867,4.218107
1.105,0,0,5.484024,0.000000,7.012510,6.476051,5.432656,0.000000,4.572190,4.218583
1.106,0,0,5.485861,0.000000,7.014114,6.475938,5.437630,0.000000,4.574075,4.219307
1.107,0,0,5.487698,0.000000,7.015718,6.475825,5.442603,0.000000,4.575961,4.220032
1.108,0,0,5.489535,0.000000,7.017321,6.475712,5.447576,0.000000,4.577846,4.220756
1.109,0,0,5.490849,0.000000,7.018927,6.475592,5.452009,0.000000,4.579779,4.221472
1.110,0,0,5.488841,0.000000,7.020542,6.475431,5.453014,0.000000,4.582016,4.222134
1.111,0,0,5.486832,0.000000,7.022157,6.475271,5.454020,0.000000,4.584252,4.222795
1.112,0,0,5.484824,0.000000,7.023772,6.475110,5.455025,0.000000,4.586489,4.223456
1.113,0,0,5.483539,0.000000,7.025401,6.474830,5.456727,0.000000,4.588769,4.224146
1.114,0,0,5.486847,0.000000,7.027113,6.473797,5.462851,0.000000,4.591327,4.225018
1.115,0,0,5.490156,0.000000,7.028825,6.472763,5.468976,0.000000,4.593884,4.225890
1.116,0,0,5.493464,0.000000,7.030537,6.471730,5.475100,0.000000,4.596442,4.226761
1.117,0,0,5.495926,0.000000,7.032108,6.470849,5.480313,0.000000,4.599044,4.227626
1.118,0,0,5.493014,0.000000,7.032784,6.470937,5.479735,0.000000,4.601926,4.228448
1.119,0,0,5.490102,0.000000,7.033461,6.471025,5.479157,0.000000,4.604808,4.229270
1.120,0,0,5.487190,0.000000,7.034137,6.471113,5.478579,0.000000,4.607690,4.230092
1.121,0,0,5.485088,0.000000,7.034703,6.471175,5.478739,0.000000,4.610530,4.230944
1.122,0,0,5.488131,0.000000,7.034564,6.471071,5.483584,0.000000,4.613103,4.231985
1.123,0,0,5.491174,0.000000,7.034424,6.470968,5.488430,0.482608,4.615676,4.233025
1.124,0,0,5.494217,0.000000,7.034285,6.470865,5.493275,2.696404,4.618248,4.234066
1.125,0,1,5.497041,0.000000,7.034030,6.470823,5.497862,4.427884,4.620777,4.234984
1.126,0,1,5.498476,0.000000,7.033039,6.471175,5.500809,4.429215,4.623025,4.235121
1.127,0,1,5.499911,0.000000,7.032048,6.471527,5.503755,4.430491,4.625272,4.235258
1.128,0,1,5.501346,0.000000,7.031056,6.471879,5.506701,4.431565,4.627520,4.235395
1.129,0,1,5.502450,0.000000,7.029971,6.472211,5.509318,4.432616,4.629673,4.235528
1.130,0,1,5.501457,0.000000,7.028287,6.472415,5.509845,4.433587,4.631227,4.235629
1.131,0,1,5.500463,0.000000,7.026603,6.472620,5.510372,4.434500,4.632781,4.235730
1.132,0,1,5.499469,0.000000,7.024919,6.472824,5.510899,4.435206,4.634335,4.235831
1.133,0,1,5.498584,0.000000,7.023064,6.473095,5.511549,4.435820,4.635821,4.235824
1.134,0,1,5.498389,0.000000,7.020120,6.473788,5.512978,4.436099,4.636883,4.235130
1.135,0,1,5.498193,0.000000,7.017175,6.474481,5.514407,4.436339,4.637944,4.234435
1.136,0,1,5.497997,0.000000,7.014231,6.475173,5.515836,4.436441,4.639006,4.233741
1.137,0,1,5.498257,0.000000,7.011294,6.475938,5.517757,4.436567,4.640022,4.233109
1.138,0,1,5.501408,0.000000,7.008407,6.477157,5.522805,4.436781,4.640752,4.232874
1.139,0,1,5.504559,0.000000,7.005519,6.478377,5.527854,4.437008,4.641481,4.232638
1.140,0,1,5.507710,0.000000,7.002632,6.479596,5.532902,4.437284,4.642210,4.232403
1.141,0,1,5.510673,0.000000,6.999723,6.480790,5.537847,4.437548,4.642981,4.232116
1.142,0,1,5.512445,0.000000,6.996677,6.481821,5.542131,4.437771,4.644016,4.231495
1.143,0,1,5.514217,0.000000,6.993631,6.482851,5.546415,4.437988,4.645051,4.230874
1.144,0,1,5.515989,0.000000,6.990585,6.483882,5.550699,4.438181,4.646087,4.230253
1.145,0,1,5.517793,0.000000,6.987601,6.485033,5.555104,4.438375,4.647135,4.229600
1.146,0,1,5.519794,0.000000,6.985009,6.486952,5.560277,4.438570,4.648268,4.228746
1.147,0,1,5.521796,0.000000,6.982416,6.488871,5.565451,4.438743,4.649401,4.227892
1.148,0,1,5.523798,0.000000,6.979824,6.490789,5.570624,4.438835,4.650534,4.227037
1.149,0,1,5.525384,0.000000,6.977144,6.492861,5.575428,4.438882,4.651624,4.226137
1.150,0,1,5.524328,0.000000,6.973910,6.495903,5.577887,4.438769,4.652442,4.224946
1.151,0,1,5.523273,0.000000,6.970676,6.498945,5.580345,4.438625,4.653261,4.223754
1.152,0,1,5.522216,0.000000,6.967443,6.501987,5.582802,4.438376,4.654079,4.222563
1.153,0,1,5.521787,0.000000,6.964300,6.504930,5.585912,4.438120,4.654849,4.221387
1.154,0,1,5.525339,0.000000,6.961740,6.507242,5.593161,4.437835,4.655313,4.220312
1.155,0,1,5.528890,0.000000,6.959180,6.509554,5.600410,4.437542,4.655778,4.219236
1.156,0,1,5.532441,0.000000,6.956620,6.511866,5.607659,4.437219,4.656243,4.218161
1.157,0,1,5.535401,0.000000,6.954105,6.514179,5.614343,4.436883,4.656699,4.217065
1.158,0,1,5.534605,0.000000,6.951879,6.516498,5.617441,4.436499,4.657094,4.215837
1.159,0,1,5.533808,0.000000,6.949651,6.518816,5.620538,4.436102,4.657489,4.214609
1.160,0,1,5.533012,0.000000,6.947424,6.521135,5.623635,4.435658,4.657884,4.213380
1.161,0,1,5.532878,0.000000,6.945225,6.523366,5.627375,4.435209,4.658304,4.212130
1.162,0,1,5.536958,0.000000,6.943201,6.525040,5.635201,4.434738,4.658882,4.210735
1.163,0,1,5.541037,0.000000,6.941177,6.526714,5.643026,4.434293,4.659461,4.209340
1.164,0,1,5.545116,0.000000,6.939153,6.528388,5.650851,4.433937,4.660038,4.207945
1.165,0,1,5.548144,0.000000,6.937231,6.529881,5.657571,4.433632,4.660635,4.206630
1.166,0,1,5.544494,0.000000,6.935954,6.530226,5.657265,4.433512,4.661352,4.205824
1.167,0,1,5.540844,0.000000,6.934677,6.530571,5.656960,4.433423,4.662069,4.205019
1.168,0,1,5.537194,0.000000,6.933401,6.530915,5.656654,4.433443,4.662786,4.204214
1.169,0,1,5.533792,0.000000,6.932254,6.531250,5.656555,4.433459,4.663476,4.203423
1.170,0,1,5.531960,0.000000,6.931931,6.531522,5.657769,4.433461,4.663999,4.202726
1.171,0,1,5.530128,0.000000,6.931608,6.531793,5.658982,4.433428,4.664522,4.202029
1.172,0,1,5.528296,0.000000,6.931285,6.532064,5.660196,4.433266,4.665045,4.201333
1.173,0,1,5.527078,0.000000,6.931113,6.532166,5.661977,4.433047,4.665515,4.200583
1.174,0,1,5.529764,0.000000,6.931898,6.531190,5.667359,4.432628,4.665650,4.199491
1.175,0,1,5.532451,0.000000,6.932684,6.530214,5.672742,4.432185,4.665785,4.198399
1.176,0,1,5.535137,0.000000,6.933469,6.529237,5.678124,4.431656,4.665920,4.197308
1.177,0,1,5.536824,0.000000,6.934339,6.528458,5.682440,4.431146,4.666023,4.196289
1.178,0,1,5.532167,0.000000,6.935741,6.528930,5.679979,4.430706,4.665924,4.195731
1.179,0,1,5.527510,0.000000,6.937143,6.529403,5.677518,4.430310,4.665824,4.195174
1.180,0,1,5.522852,0.000000,6.938545,6.529875,5.675057,4.430076,4.665724,4.194616
1.181,0,1,5.518711,0.000000,6.940023,6.530257,5.673039,4.429901,4.665638,4.194168
1.182,0,1,5.517845,0.000000,6.941985,6.530066,5.673832,4.429935,4.665641,4.194411
1.183,0,1,5.516980,0.000000,6.943946,6.529875,5.674625,4.430006,4.665644,4.194654
1.184,0,1,5.516115,0.000000,6.945908,6.529684,5.675417,4.430204,4.665647,4.194897
1.185,0,1,5.516139,0.000000,6.947981,6.529702,5.677050,4.430414,4.665681,4.195160
1.186,0,1,5.521811,0.000000,6.950761,6.531044,5.684013,4.430665,4.665921,4.195549
1.187,0,1,5.527483,0.000000,6.953541,6.532386,5.690977,4.430942,4.666161,4.195939
1.188,0,1,5.533155,0.000000,6.956321,6.533729,5.697940,4.431310,4.666400,4.196328
1.189,0,1,5.539372,0.000000,6.959114,6.534756,5.705404,4.431721,4.666650,4.196801
1.190,0,1,5.549056,0.000000,6.961986,6.533782,5.716048,4.432291,4.666961,4.197806
1.191,0,1,5.558739,0.000000,6.964857,6.532808,5.726692,4.432897,4.667272,4.198812
1.192,0,1,5.568422,0.000000,6.967728,6.531833,5.737335,4.433630,4.667583,4.199818
1.193,0,1,5.577664,0.000000,6.970518,6.531164,5.747498,4.434389,4.667904,4.200889
1.194,0,1,5.584108,0.000000,6.972789,6.532433,5.754603,4.435235,4.668282,4.202375
1.195,0,1,5.590551,0.000000,6.975060,6.533702,5.761708,4.436116,4.668661,4.203861
1.196,0,1,5.596995,0.000000,6.977331,6.534971,5.768813,4.437121,4.669039,4.205347
1.197,0,1,5.603438,0.000000,6.979497,6.535387,5.775891,4.438160,4.669425,4.206857
1.198,0,1,5.609881,0.000000,6.980998,6.530378,5.782797,4.439320,4.669866,4.208517
1.199,0,1,5.616325,0.000000,6.982498,6.525371,5.789703,4.440435,4.670305,4.210176
1.200,0,1,5.622768,0.000000,6.983998,6.520362,5.796609,4.441392,4.670745,4.211836
1.201,0,1,5.629498,0.000000,6.985526,6.515229,5.803804,4.442237,4.671082,4.213404
1.202,0,1,5.638042,0.000000,6.987228,6.509295,5.812838,4.442677,4.670765,4.214385
1.203,0,1,5.646586,0.000000,6.988930,6.503361,5.821872,4.443073,4.670448,4.215366
1.204,0,1,5.655131,0.000000,6.990632,6.497427,5.830905,4.443313,4.670131,4.216347
1.205,0,1,5.663058,0.000000,6.992247,6.491302,5.839340,4.443593,4.669853,4.217321
1.206,0,1,5.667060,0.000000,6.993308,6.483955,5.843966,4.444015,4.669818,4.218246
1.207,0,1,5.671063,0.000000,6.994369,6.476608,5.848593,4.444446,4.669784,4.219171
1.208,0,1,5.675066,0.000000,6.995430,6.469261,5.853219,4.444911,4.669750,4.220096
1.209,0,1,5.679261,0.000000,6.996403,6.462072,5.858036,4.445342,4.669730,4.220963
1.210,0,1,5.684674,0.000000,6.996812,6.455885,5.864058,4.445642,4.669801,4.221460
1.211,0,1,5.690087,0.000000,6.997221,6.449699,5.870081,4.445936,4.669872,4.221957
1.212,0,1,5.695499,0.000000,6.997630,6.443512,5.876104,4.446206,4.669944,4.222454
1.213,0,1,5.701230,0.000000,6.998017,6.437601,5.882407,4.446503,4.670036,4.222950
1.214,0,1,5.708979,0.000000,6.998269,6.433440,5.890490,4.446896,4.670261,4.223445
1.215,0,1,5.716728,0.000000,6.998520,6.429278,5.898571,4.447275,4.670487,4.223940
1.216,0,1,5.724477,0.000000,6.998772,6.425117,5.906654,4.447608,4.670712,4.224436
1.217,0,1,5.731991,0.000000,6.998857,6.421565,5.914444,4.447888,4.670949,4.224844
1.218,0,1,5.738012,0.000000,6.997884,6.421886,5.920381,4.447975,4.671256,4.224703
1.219,0,1,5.744033,0.000000,6.996911,6.422207,5.926318,4.448060,4.671564,4.224562
1.220,0,1,5.750053,0.000000,6.995937,6.422529,5.932255,4.448139,4.671871,4.224421
1.221,0,1,5.755611,0.000000,6.994994,6.423273,5.937659,4.448263,4.672222,4.224250
1.222,0,1,5.758223,0.000000,6.994240,6.426704,5.939671,4.448544,4.672855,4.223894
1.223,0,1,5.760834,0.000000,6.993486,6.430136,5.941682,4.448768,4.673488,4.223537
1.224,0,1,5.763446,0.000000,6.992732,6.433568,5.943694,4.448785,4.674120,4.223180
1.225,0,1,5.766132,0.000000,6.991889,6.437122,5.945670,4.448641,4.674715,4.222570
1.226,0,1,5.769289,0.000000,6.990488,6.441456,5.947420,4.447918,4.675064,4.220352
1.227,0,1,5.772446,0.000000,6.989086,6.445790,5.949170,4.447111,4.675413,4.218134
1.228,0,1,5.775603,0.000000,6.987684,6.450124,5.950920,4.445995,4.675762,4.215916
1.229,0,1,5.778860,0.000000,6.986340,6.454615,5.952647,4.444880,4.676106,4.213594
1.230,0,1,5.782747,0.000000,6.985363,6.460105,5.954229,4.443770,4.676413,4.210618
1.231,0,1,5.786633,0.000000,6.984385,6.465595,5.955812,4.442569,4.676720,4.207642
1.232,0,1,5.790520,0.000000,6.983408,6.471086,5.957395,4.441045,4.677027,4.204665
1.233,0,1,5.794071,0.000000,6.982458,6.476340,5.958567,4.439339,4.677303,4.201404
1.234,0,1,5.795482,0.000000,6.981678,6.480096,5.957131,4.436978,4.677387,4.196337
1.235,0,1,5.796894,0.000000,6.980900,6.483853,5.955696,4.434565,4.677471,4.191270
1.236,0,1,5.798306,0.000000,6.980121,6.487609,5.954260,4.431961,4.677555,4.186203
1.237,0,1,5.799922,0.000000,6.979295,6.491394,5.952984,4.429456,4.677674,4.181241
1.238,0,1,5.802838,0.000000,6.978169,6.495358,5.952721,4.427307,4.678017,4.176944
1.239,0,1,5.805754,0.000000,6.977044,6.499321,5.952458,3.943233,4.678359,4.172647
1.240,0,0,5.808669,0.000000,6.975918,6.503284,5.952196,1.730420,4.678701,4.168351
1.241,0,0,5.811179,0.000000,6.974747,6.507295,5.951490,0.000000,4.679000,4.164263
1.242,0,0,5.811112,0.000000,6.973287,6.511600,5.947970,0.000000,4.679020,4.161498
1.243,0,0,5.811045,0.000000,6.971827,6.515904,5.944451,0.000000,4.679040,4.158732
1.244,0,0,5.810978,0.000000,6.970367,6.520210,5.940931,0.000000,4.679060,4.155967
1.245,0,0,5.811137,0.000000,6.969024,6.524441,5.937626,0.000000,4.679077,4.153600
1.246,0,0,5.812731,0.000000,6.968429,6.528203,5.935688,0.000000,4.679076,4.153759
1.247,0,0,5.814325,0.000000,6.967834,6.531965,5.933749,0.000000,4.679076,4.153917
1.248,0,0,5.815919,0.000000,6.967238,6.535728,5.931810,0.000000,4.679076,4.154076
1.249,0,0,5.817347,0.000000,6.966639,6.539401,5.929722,0.000000,4.679069,4.154146
1.250,0,0,5.817715,0.000000,6.966019,6.542511,5.926688,0.000000,4.679021,4.153652
1.251,0,0,5.818084,0.000000,6.965399,6.545619,5.923653,0.000000,4.678973,4.153158
1.252,0,0,5.818452,0.000000,6.964779,6.548729,5.920618,0.000000,4.678926,4.152664
1.253,0,0,5.818777,0.000000,6.964211,6.551902,5.917539,0.000000,4.678860,4.152825
1.254,0,0,5.818825,0.000000,6.963981,6.555480,5.914178,0.000000,4.678683,4.157149
1.255,0,0,5.818872,0.000000,6.963750,6.559057,5.910817,0.000000,4.678506,4.161473
1.256,0,0,5.818920,0.000000,6.963520,6.562634,5.907456,0.000000,4.678329,4.165796
1.257,0,0,5.819034,0.000000,6.963348,6.566302,5.904164,0.000000,4.678200,4.169755
1.258,0,0,5.819561,0.000000,6.963555,6.570546,5.901309,0.000000,4.678380,4.171390
1.259,0,0,5.820089,0.000000,6.963763,6.574790,5.898454,0.000000,4.678560,4.173025
1.260,0,0,5.820617,0.000000,6.963970,6.579033,5.895598,0.000000,4.678740,4.174660
1.261,0,0,5.821061,0.000000,6.964208,6.583013,5.892677,0.000000,4.678897,4.176253
1.262,0,0,5.820973,0.000000,6.964645,6.585318,5.889335,0.000000,4.678910,4.177581
1.263,0,0,5.820887,0.000000,6.965082,6.587622,5.885993,0.000000,4.678923,4.178908
1.264,0,0,5.820799,0.000000,6.965519,6.589926,5.882651,0.000000,4.678936,4.180236
1.265,0,0,5.821135,0.000000,6.965952,6.592267,5.879768,0.000000,4.678967,4.181594
1.266,0,0,5.824152,0.000000,6.966361,6.594835,5.879802,0.000000,4.679115,4.183150
1.267,0,0,5.827168,0.000000,6.966768,6.597404,5.879837,0.000000,4.679263,4.184706
1.268,0,0,5.830185,0.000000,6.967176,6.599972,5.879871,0.000000,4.679410,4.186261
1.269,0,0,5.832633,0.000000,6.967779,6.602543,5.879388,0.000000,4.679562,4.187834
1.270,0,0,5.831459,0.000000,6.969615,6.605129,5.875614,0.000000,4.679736,4.189514
1.271,0,0,5.830285,0.000000,6.971452,6.607716,5.871841,0.000000,4.679910,4.191194
1.272,0,0,5.829110,0.000000,6.973289,6.610302,5.868067,0.000000,4.680083,4.192873
1.273,0,0,5.828259,0.000000,6.975093,6.612538,5.864689,0.000000,4.680270,4.194604
1.274,0,0,5.829461,0.000000,6.976687,6.612547,5.863818,0.000000,4.680537,4.196658
1.275,0,0,5.830663,0.000000,6.978282,6.612557,5.862947,0.000000,4.680803,4.198711
1.276,0,0,5.831865,0.000000,6.979877,6.612567,5.862075,0.000000,4.681070,4.200765
1.277,0,0,5.832502,0.000000,6.981502,6.612609,5.860731,0.000000,4.681310,4.203098
1.278,0,0,5.829551,0.000000,6.983321,6.612857,5.856379,0.000000,4.681376,4.207208
1.279,0,0,5.826600,0.000000,6.985140,6.613105,5.852026,0.000000,4.681441,4.211318
1.280,0,0,5.823648,0.000000,6.986959,6.613352,5.847674,0.000000,4.681507,4.215427
1.281,0,0,5.821749,0.000000,6.988734,6.613613,5.844456,0.000000,4.681533,4.219599
1.282,0,0,5.826529,0.000000,6.990225,6.613956,5.848443,0.000000,4.681306,4.224160
1.283,0,0,5.831308,0.000000,6.991716,6.614300,5.852429,0.000000,4.681080,4.228721
1.284,0,0,5.836088,0.000000,6.993207,6.614643,5.856415,0.000000,4.680853,4.233283
1.285,0,0,5.840557,0.000000,6.994689,6.614898,5.860155,0.000000,4.680663,4.237963
1.286,0,0,5.843046,0.000000,6.996111,6.614593,5.862324,0.000000,4.680704,4.243401
1.287,0,0,5.845536,0.000000,6.997532,6.614286,5.864493,0.000000,4.680745,4.248838
1.288,0,0,5.848025,0.000000,6.998954,6.613981,5.866662,0.000000,4.680786,4.254276
1.289,0,0,5.850072,0.000000,7.000350,6.613585,5.868425,0.000000,4.680833,4.259490
1.290,0,0,5.849308,0.000000,7.001580,6.612615,5.867609,0.000000,4.680916,4.263279
1.291,0,0,5.848545,0.000000,7.002810,6.611645,5.866792,0.000000,4.681000,4.267069
1.292,0,0,5.847780,0.000000,7.004040,6.610675,5.865975,0.000000,4.681083,4.270860
1.293,0,0,5.847511,0.000000,7.005322,6.609881,5.865666,0.000000,4.681125,4.274360
1.294,0,0,5.850385,0.000000,7.006935,6.610204,5.868579,0.000000,4.680900,4.276024
1.295,0,0,5.853259,0.000000,7.008548,6.610527,5.871492,0.000000,4.680675,4.277687
1.296,0,0,5.856133,0.000000,7.010160,6.610849,5.874405,0.000000,4.680450,4.279350
1.297,0,0,5.858349,0.000000,7.011683,6.611124,5.876645,0.000000,4.680219,4.280607
1.298,0,0,5.856388,0.000000,7.012638,6.611088,5.874603,0.000000,4.679944,4.279283
1.299,0,0,5.854427,0.000000,7.013592,6.611053,5.872562,0.000000,4.679668,4.277958
1.300,0,0,5.852466,0.000000,7.014545,6.611018,5.870521,0.000000,4.679393,4.276634
1.301,0,0,5.850746,0.000000,7.015565,6.610838,5.868672,0.000000,4.679146,4.275304
1.302,0,0,5.850555,0.000000,7.017005,6.609740,5.868043,0.000000,4.679073,4.273944
1.303,0,0,5.850365,0.000000,7.018444,6.608643,5.867414,0.000000,4.679001,4.272584
1.304,0,0,5.850175,0.000000,7.019883,6.607545,5.866786,0.000000,4.678928,4.271224
1.305,0,0,5.849948,0.000000,7.021256,6.606362,5.866049,0.000000,4.678872,4.269303
1.306,0,0,5.849483,0.000000,7.022204,6.604630,5.864633,0.000000,4.678915,4.263816
1.307,0,0,5.849019,0.000000,7.023153,6.602898,5.863215,0.000000,4.678958,4.258330
1.308,0,0,5.848554,0.000000,7.024102,6.601165,5.861799,0.000000,4.679002,4.252843
1.309,0,0,5.847935,0.000000,7.024979,6.599626,5.860164,0.000000,4.679080,4.247684
1.310,0,0,5.846334,0.000000,7.025395,6.599310,5.857146,0.000000,4.679380,4.244607
1.311,0,0,5.844733,0.000000,7.025813,6.598994,5.854128,0.000000,4.679680,4.241530
1.312,0,0,5.843132,0.000000,7.026229,6.598678,5.851110,0.000000,4.679980,4.238453
1.313,0,0,5.841343,0.000000,7.026597,6.598313,5.847870,0.000000,4.680307,4.235313
1.314,0,0,5.838357,0.000000,7.026649,6.597638,5.843225,0.000000,4.680801,4.231772
1.315,0,0,5.835372,0.000000,7.026701,6.596963,5.838579,0.000000,4.681296,4.228231
1.316,0,0,5.832386,0.000000,7.026754,6.596288,5.833933,0.000000,4.681790,4.224690
1.317,0,0,5.829690,0.000000,7.026826,6.595315,5.829535,0.000000,4.682306,4.221173
1.318,0,0,5.828835,0.000000,7.027022,6.592455,5.826710,0.000000,4.682956,4.217809
1.319,0,0,5.827979,0.000000,7.027218,6.589594,5.823885,0.000000,4.683605,4.214445
1.320,0,0,5.827123,0.000000,7.027414,6.586733,5.821061,0.000000,4.684255,4.211080
1.321,0,0,5.826550,0.000000,7.027523,6.583866,5.818513,0.000000,4.684898,4.207589
1.322,0,0,5.827767,0.000000,7.027079,6.580955,5.817731,0.000000,4.685498,4.203296
1.323,0,0,5.828985,0.000000,7.026635,6.578043,5.816949,0.000000,4.686098,4.199002
1.324,0,0,5.830202,0.000000,7.026191,6.575132,5.816167,0.000000,4.686698,4.194708
1.325,0,0,5.831141,0.000000,7.025733,6.572030,5.815150,0.000000,4.687318,4.190372
1.326,0,0,5.830310,0.000000,7.025183,6.567711,5.812645,0.000000,4.688064,4.185770
1.327,0,0,5.829479,0.000000,7.024633,6.563392,5.810140,0.000000,4.688809,4.181168
1.328,0,0,5.828648,0.000000,7.024083,6.559073,5.807634,0.000000,4.689555,4.176565
1.329,0,0,5.828618,0.000000,7.023545,6.554371,5.805988,0.000000,4.690251,4.171933
1.330,0,0,5.833681,0.000000,7.023078,6.547241,5.809799,0.000000,4.690628,4.167111
1.331,0,0,5.838744,0.000000,7.022612,6.540110,5.813610,0.000000,4.691006,4.162289
1.332,0,0,5.843806,0.000000,7.022146,6.532979,5.817421,0.000000,4.691383,4.157466
1.333,0,0,5.848222,0.000000,7.021690,6.525844,5.820614,0.000000,4.691725,4.152686
1.334,0,0,5.848525,0.000000,7.021303,6.518680,5.819878,0.000000,4.691838,4.148175
1.335,0,0,5.848828,0.000000,7.020916,6.511516,5.819141,0.000000,4.691951,4.143663
1.336,0,0,5.849132,0.000000,7.020530,6.504353,5.818405,0.000000,4.692065,4.139152
1.337,0,0,5.849441,0.000000,7.020127,6.497183,5.817707,0.000000,4.692163,4.134771
1.338,0,0,5.849785,0.000000,7.019626,6.489973,5.817253,0.000000,4.692164,4.131219
1.339,0,0,5.850129,0.000000,7.019124,6.482763,5.816799,0.000000,4.692165,4.127667
1.340,0,0,5.850473,0.000000,7.018622,6.475553,5.816345,0.000000,4.692166,4.124115
1.341,0,0,5.851208,0.000000,7.018130,6.468630,5.816297,0.000000,4.692108,4.120688
1.342,0,0,5.854432,0.000000,7.017700,6.463537,5.818834,0.000000,4.691675,4.118050
1.343,0,0,5.857655,0.000000,7.017269,6.458444,5.821370,0.000000,4.691241,4.115413
1.344,0,0,5.860878,0.000000,7.016839,6.453350,5.823906,0.000000,4.690808,4.112775
1.345,0,0,5.863291,0.733282,7.016281,6.448385,5.825597,0.000000,4.690362,4.110105
1.346,0,0,5.860561,4.096963,7.014915,6.444232,5.821915,0.000000,4.689840,4.107231
1.347,1,0,5.857831,6.726765,7.013550,6.440080,5.818233,0.000000,4.689318,4.104356
1.348,1,0,5.855102,6.724025,7.012185,6.435927,5.814551,0.000000,4.688796,4.101481
1.349,1,0,5.852619,6.721365,7.010795,6.431937,5.811049,0.000000,4.688218,4.098603
1.350,1,0,5.851703,6.718997,7.009249,6.428983,5.808694,0.000000,4.687291,4.095699
1.351,1,0,5.850787,6.716677,7.007704,6.426028,5.806338,0.000000,4.686363,4.092794
1.352,1,0,5.849871,6.714528,7.006158,6.423073,5.803983,0.000000,4.685435,4.089890
1.353,1,0,5.848892,6.712380,7.004541,6.420247,5.801490,0.000000,4.684472,4.087055
1.354,1,0,5.847511,6.710242,7.002465,6.418235,5.798125,0.000000,4.683289,4.084660
1.355,1,0,5.846131,6.708142,7.000389,6.416224,5.794759,0.000000,4.682105,4.082265
1.356,1,0,5.844750,6.706179,6.998313,6.414212,5.791393,0.000000,4.680921,4.079870
1.357,1,0,5.843328,6.704293,6.996191,6.412388,5.787935,0.000000,4.679785,4.077448
1.358,1,0,5.841646,6.702686,6.993776,6.411757,5.783893,0.000000,4.678956,4.074851
1.359,1,0,5.839963,6.701114,6.991362,6.411127,5.779851,0.000000,4.678126,4.072254
1.360,1,0,5.838280,6.699662,6.988947,6.410495,5.775808,0.000000,4.677297,4.069657
1.361,1,0,5.835593,6.698200,6.986592,6.409848,5.770711,0.000000,4.676438,4.067171
1.362,1,0,5.826524,6.696701,6.984622,6.409098,5.758908,0.000000,4.675388,4.065393
1.363,1,0,5.817456,6.695258,6.982652,6.408348,5.747105,0.000000,4.674339,4.063616
1.364,1,0,5.808387,6.694015,6.980681,6.407598,5.735301,0.000000,4.673289,4.061839
1.365,1,0,5.800443,6.692900,6.978791,6.407022,5.724590,0.000000,4.672156,4.060367
1.366,1,0,5.799645,6.692247,6.977411,6.407546,5.720819,0.000000,4.670490,4.060840
1.367,1,0,5.798847,6.691685,6.976030,6.408071,5.717048,0.000000,4.668824,4.061313
1.368,1,0,5.798049,6.691448,6.974649,6.408596,5.713277,0.000000,4.667157,4.061786
1.369,1,0,5.797222,6.691246,6.973345,6.409156,5.709473,0.000000,4.665592,4.062262
1.370,1,0,5.796209,6.691162,6.972528,6.409937,5.705458,0.000000,4.664667,4.062754
1.371,1,0,5.795197,6.691104,6.971710,6.410719,5.701442,0.000000,4.663743,4.063247
1.372,1,0,5.794183,6.691142,6.970893,6.411500,5.697427,0.000000,4.662818,4.063739
1.373,1,0,5.793598,6.691217,6.970061,6.412401,5.693854,0.000000,4.661874,4.064380
1.374,1,0,5.795732,6.691427,6.969136,6.414054,5.693098,0.000000,4.660806,4.065960
1.375,1,0,5.797865,6.691700,6.968211,6.415709,5.692341,0.000000,4.659739,4.067541
1.376,1,0,5.799999,6.692195,6.967286,6.417362,5.691585,0.000000,4.658671,4.069122
1.377,1,0,5.801398,6.692769,6.966319,6.419215,5.690108,0.000000,4.657629,4.070780
1.378,1,0,5.798129,6.693623,6.965090,6.422331,5.684059,0.000000,4.656751,4.072930
1.379,1,0,5.794859,6.694514,6.963861,6.425447,5.678009,0.000000,4.655873,4.075080
1.380,1,0,5.791590,6.695532,6.962632,6.428562,5.671959,0.000000,4.654994,4.077229
1.381,1,0,5.789032,6.696536,6.961451,6.431609,5.666628,0.000000,4.654171,4.079408
1.382,1,0,5.790987,6.697483,6.960577,6.434219,5.665856,0.000000,4.653692,4.081772
1.383,1,0,5.792943,6.698399,6.959703,6.436829,5.665085,0.000000,4.653214,4.084136
1.384,1,0,5.794899,6.699200,6.958829,6.439439,5.664313,0.000000,4.652736,4.086501
1.385,1,0,5.796899,6.699966,6.957970,6.441962,5.663616,0.000000,4.652139,4.088851
1.386,1,0,5.799185,6.700611,6.957199,6.443928,5.663392,0.000000,4.650788,4.091118
1.387,1,0,5.801472,6.701236,6.956429,6.445894,5.663167,0.000000,4.649437,4.093385
1.388,1,0,5.803758,6.701794,6.955658,6.447859,5.662942,0.000000,4.648087,4.095652
1.389,1,0,5.805421,6.702348,6.954920,6.449767,5.662121,0.000000,4.646640,4.097905
1.390,1,0,5.803132,6.702888,6.954388,6.451304,5.657509,0.000000,4.644584,4.100068
1.391,1,0,5.800843,6.703413,6.953856,6.452842,5.652898,0.000000,4.642527,4.102231
1.392,1,0,5.798553,6.703885,6.953325,6.454380,5.648286,0.000000,4.640470,4.104393
1.393,1,0,5.795453,6.704324,6.952849,6.455785,5.642886,0.000000,4.638357,4.106488
1.394,1,0,5.787198,6.704651,6.952726,6.456351,5.632476,0.000000,4.635887,4.108151
1.395,1,0,5.778944,6.704936,6.952604,6.456918,5.622065,0.000000,4.633418,4.109814
1.396,1,0,5.770689,6.705069,6.952482,6.457484,5.611655,0.000000,4.630949,4.111477
1.397,1,0,5.762926,6.705161,6.952520,6.457817,5.601733,0.000000,4.628475,4.113197
1.398,1,0,5.758285,6.705105,6.953583,6.456666,5.594919,0.000000,4.625971,4.115276
1.399,1,0,5.753644,6.705054,6.954646,6.455516,5.588104,0.000000,4.623468,4.117356
1.400,1,0,5.749003,6.705020,6.955709,6.454366,5.581290,0.000000,4.620965,4.119435
1.401,1,0,5.744130,6.705035,6.956812,6.453260,5.574259,0.000000,4.618441,4.121444
1.402,1,0,5.737783,6.705226,6.958171,6.452431,5.565852,0.000000,4.615787,4.123003
1.403,1,0,5.731438,6.705448,6.959531,6.451603,5.557445,0.000000,4.613133,4.124562
1.404,1,0,5.725091,6.705777,6.960891,6.450775,5.549038,0.000000,4.610479,4.126122
1.405,1,0,5.719040,6.706110,6.962266,6.449978,5.540947,0.000000,4.607818,4.127657
1.406,1,0,5.714864,6.706463,6.963741,6.449381,5.534863,0.000000,4.605106,4.129038
1.407,1,0,5.710687,6.706851,6.965216,6.448784,5.528779,0.000000,4.602396,4.130419
1.408,1,0,5.706511,6.707364,6.966691,6.448188,5.522695,0.000000,4.599684,4.131800
1.409,1,0,5.702210,6.707951,6.968290,6.447639,5.516484,0.000000,4.596972,4.133174
1.410,1,0,5.697122,6.708803,6.970669,6.447397,5.509469,0.000000,4.594248,4.134501
1.411,1,0,5.692035,6.709743,6.973048,6.447155,5.502453,0.000000,4.591525,4.135827
1.412,1,0,5.686947,6.710994,6.975428,6.446912,5.495438,0.000000,4.588802,4.137153
1.413,1,0,5.682184,6.712333,6.977829,6.446849,5.488781,0.000000,4.586106,4.138465
1.414,1,0,5.679481,6.713984,6.980370,6.447924,5.484409,0.000000,4.583588,4.139692
1.415,1,0,5.676778,6.715698,6.982910,6.448999,5.480036,0.000000,4.581069,4.140920
1.416,1,0,5.674076,6.717639,6.985451,6.450075,5.475663,0.000000,4.578550,4.142147
1.417,1,0,5.671365,6.719613,6.988024,6.451195,5.471375,0.000000,4.576049,4.143227
1.418,1,0,5.668607,6.721704,6.990805,6.452604,5.467627,0.000000,4.573663,4.143375
1.419,1,0,5.665849,6.723797,6.993586,6.454014,5.463878,0.000000,4.571276,4.143524
1.420,1,0,5.663091,6.725896,6.996367,6.455423,5.460129,0.000000,4.568890,4.143672
1.421,1,0,5.660610,6.727962,6.999056,6.456828,5.456781,0.000000,4.566591,4.143769
1.422,1,0,5.659889,6.729908,7.001166,6.458207,5.455980,0.000000,4.564851,4.143540
1.423,1,0,5.659169,6.731773,7.003276,6.459586,5.455178,0.000000,4.563110,4.143311
1.424,1,0,5.658449,6.733346,7.005386,6.460965,5.454377,0.000000,4.561370,4.143081
1.425,1,0,5.657135,6.734815,7.007519,6.462151,5.453111,0.000000,4.559661,4.142782
1.426,1,0,5.652051,6.735912,7.009792,6.462117,5.448892,0.000000,4.558156,4.142036
1.427,1,0,5.646966,6.737018,7.012066,6.462082,5.444674,0.000000,4.556650,4.141290
1.428,1,0,5.641881,6.738156,7.014340,6.462048,5.440455,0.000000,4.555144,4.140544
1.429,1,0,5.636817,6.739398,7.016634,6.462089,5.436410,0.000000,4.553745,4.139819
1.430,1,0,5.631875,6.741012,7.019051,6.462604,5.433465,0.000000,4.553022,4.139227
1.431,1,0,5.626934,6.742567,7.021469,6.463119,5.430521,0.000000,4.552300,4.138635
1.432,1,0,5.621993,6.743910,7.023886,6.463634,5.427576,0.000000,4.551577,4.138043
1.433,1,0,5.617126,6.745017,7.026264,6.463765,5.424839,0.000000,4.550935,4.137465
1.434,1,0,5.612737,6.745280,7.028390,6.461456,5.423422,0.000000,4.550802,4.136975
1.435,1,0,5.608347,6.745400,7.030516,6.459148,5.422006,0.000000,4.550670,4.136484
1.436,1,0,5.603958,6.745007,7.032641,6.456839,5.420589,0.000000,4.550538,4.135993
1.437,1,0,5.599391,6.744601,7.034861,6.454306,5.419074,0.000000,4.550446,4.135441
1.438,1,0,5.593699,6.744152,7.037671,6.450347,5.416930,0.000000,4.550616,4.134493
1.439,1,0,5.588007,6.743652,7.040481,6.446388,5.414787,0.000000,4.550785,4.133545
1.440,1,0,5.582315,6.742972,7.043291,6.442429,5.412643,0.000000,4.550954,4.132598
1.441,1,0,5.576470,6.742188,7.045888,6.438517,5.410358,0.000000,4.551095,4.131617
1.442,1,0,5.569659,6.741033,7.047131,6.434903,5.407166,0.000000,4.551051,4.130420
1.443,1,0,5.562848,6.739864,7.048373,6.431289,5.403974,0.000000,4.551006,4.129224
