"Time","59 Left DS","60 Memory","v5 L COP","67 xCoM","v3 R COP","3 Platform"
0.000,0,0,0.000000,6.569948,0.000000,1.48361
0.001,0,0,0.000000,6.568896,0.000000,1.48589
0.002,0,0,0.000000,6.567843,0.000000,1.48383
0.003,0,0,0.000000,6.566791,0.000000,1.48315
0.004,0,0,0.000000,6.565742,0.000000,1.48516
0.005,0,0,0.000000,6.564695,0.000000,1.48456
0.006,0,0,0.000000,6.563650,0.000000,1.48255
0.007,0,0,0.000000,6.562603,0.000000,1.48345
0.008,0,0,0.000000,6.560972,0.000000,1.48115
0.009,0,0,0.000000,6.558691,0.000000,1.48374
0.010,0,0,0.000000,6.556409,0.000000,1.48343
0.011,0,0,0.000000,6.554128,0.000000,1.48267
0.012,0,0,0.000000,6.551444,0.000000,1.48413
0.013,0,0,0.000000,6.548315,0.000000,1.48010
0.014,0,0,0.000000,6.545185,0.000000,1.48333
0.015,0,0,0.000000,6.542056,0.000000,1.48466
0.016,0,0,0.000000,6.538731,0.000000,1.48318
0.017,0,0,0.000000,6.535189,0.000000,1.48411
0.018,0,0,0.000000,6.531648,0.000000,1.48235
0.019,0,0,0.000000,6.528106,0.000000,1.48441
0.020,0,0,0.000000,6.524354,0.000000,1.48338
0.021,0,0,0.000000,6.520368,0.000000,1.48303
0.022,0,0,0.000000,6.516382,0.000000,1.48287
0.023,0,0,0.000000,6.512395,0.000000,1.48386
0.024,0,0,0.000000,6.508142,0.000000,1.48442
0.025,0,0,0.000000,6.503593,0.000000,1.48425
0.026,0,0,0.000000,6.499044,0.000000,1.48452
0.027,0,0,0.000000,6.494495,0.000000,1.48107
0.028,0,0,0.000000,6.490487,0.000000,1.48437
0.029,0,0,0.000000,6.487079,0.000000,1.48502
0.030,0,0,0.000000,6.483670,0.000000,1.48340
0.031,0,0,0.000000,6.480262,0.000000,1.48552
0.032,0,0,0.000000,6.476875,0.000000,1.48475
0.033,0,0,0.000000,6.473513,0.000000,1.48350
0.034,0,0,0.000000,6.470150,0.000000,1.48870
0.035,0,0,0.000000,6.466787,0.000000,1.48414
0.036,0,0,0.000000,6.463154,0.000000,1.48549
0.037,0,0,0.000000,6.459223,0.000000,1.48315
0.038,0,0,0.000000,6.455292,0.000000,1.48434
0.039,0,0,0.000000,6.451361,0.000000,1.48373
0.040,0,0,0.000000,6.447227,0.000000,1.48367
0.041,0,0,0.000000,6.442866,0.000000,1.48297
0.042,0,0,0.000000,6.438505,0.000000,1.48458
0.043,0,0,0.000000,6.434144,0.000000,1.48531
0.044,0,0,0.000000,6.429844,0.000000,1.48337
0.045,0,0,0.000000,6.425612,0.000000,1.48453
0.046,0,0,0.000000,6.421380,0.000000,1.48416
0.047,0,0,0.000000,6.417148,0.000000,1.48358
0.048,0,0,0.000000,6.413027,0.000000,1.48710
0.049,0,0,0.000000,6.409030,0.000000,1.48425
0.050,0,0,0.000000,6.405033,0.000000,1.48063
0.051,0,0,0.000000,6.401036,0.000000,1.48427
0.052,0,0,0.000000,6.397282,0.000000,1.48403
0.053,0,0,0.000000,6.393798,0.000000,1.48355
0.054,0,0,0.000000,6.390314,0.000000,1.48321
0.055,0,0,0.000000,6.386830,0.000000,1.48558
0.056,0,0,0.000000,6.383401,0.000000,1.48266
0.057,0,0,0.000000,6.380033,0.000000,1.48447
0.058,0,0,0.000000,6.376666,0.000000,1.48500
0.059,0,0,0.000000,6.373297,0.000000,1.48504
0.060,0,0,0.000000,6.370835,0.000000,1.48334
0.061,0,0,0.000000,6.369379,0.000000,1.48348
0.062,0,0,0.000000,6.367922,0.000000,1.48464
0.063,0,0,0.000000,6.366465,0.000000,1.48359
0.064,0,0,0.000000,6.364566,0.000000,1.48509
0.065,0,0,0.000000,6.362177,0.000000,1.48419
0.066,0,0,0.000000,6.359787,0.000000,1.48436
0.067,0,0,0.000000,6.357399,0.000000,1.48470
0.068,0,0,0.000000,6.355434,0.000000,1.48390
0.069,0,0,0.000000,6.353942,0.000000,1.48217
0.070,0,0,0.000000,6.352450,0.000000,1.48234
0.071,0,0,0.000000,6.350957,0.000000,1.48392
0.072,0,0,0.000000,6.349911,0.000000,1.48444
0.073,0,0,0.000000,6.349359,0.000000,1.48282
0.074,0,0,0.000000,6.348807,0.000000,1.48343
0.075,0,0,0.000000,6.348256,0.000000,1.48550
0.076,0,0,1.953971,6.347703,0.000000,1.48443
0.077,0,0,5.468308,6.347151,0.000000,1.48295
0.078,1,0,7.028674,6.346598,0.000000,1.48353
0.079,1,0,7.028674,6.346046,0.000000,1.48303
0.080,1,0,7.028674,6.345997,0.000000,1.48370
0.081,1,0,7.028674,6.346509,0.000000,1.48158
0.082,1,0,7.028674,6.347020,0.000000,1.48436
0.083,1,0,7.028674,6.347531,0.000000,1.48319
0.084,1,0,7.028930,6.347602,0.000000,1.48211
0.085,1,0,7.029391,6.347185,0.000000,1.48267
0.086,1,0,7.029595,6.346767,0.000000,1.48411
0.087,1,0,7.029595,6.346350,0.000000,1.48496
0.088,1,0,7.029595,6.346374,0.000000,1.48098
0.089,1,0,7.029595,6.346887,0.000000,1.48253
0.090,1,0,7.029595,6.347401,0.000000,1.48353
0.091,1,0,7.029595,6.347915,0.000000,1.48412
0.092,1,0,7.029595,6.349026,0.000000,1.48342
0.093,1,0,7.029595,6.350800,0.000000,1.48339
0.094,1,0,7.030485,6.352574,0.000000,1.48391
0.095,1,0,7.032086,6.354348,0.000000,1.48237
0.096,1,0,7.033648,6.355158,0.000000,1.48627
0.097,1,0,7.035181,6.354897,0.000000,1.48288
0.098,1,0,7.036599,6.354636,0.000000,1.48455
0.099,1,0,7.037927,6.354375,0.000000,1.48322
0.100,1,0,7.039151,6.354387,0.000000,1.48250
0.101,1,0,7.040294,6.354700,0.000000,1.48430
0.102,1,0,7.041521,6.355013,0.000000,1.48362
0.103,1,0,7.042816,6.355327,0.000000,1.48295
0.104,1,0,7.044342,6.354843,0.000000,1.48456
0.105,1,0,7.046053,6.353475,0.000000,1.48293
0.106,1,0,7.047731,6.352107,0.000000,1.48317
0.107,1,0,7.049383,6.350739,0.000000,1.48400
0.108,1,0,7.050715,6.349738,0.000000,1.48325
0.109,1,0,7.051793,6.349144,0.000000,1.48287
0.110,1,0,7.052690,6.348550,0.000000,1.48260
0.111,1,0,7.053442,6.347957,0.000000,1.48376
0.112,1,0,7.054213,6.348175,0.000000,1.48441
0.113,1,0,7.054999,6.349294,0.000000,1.48397
0.114,1,0,7.055725,6.350412,0.000000,1.48309
0.115,1,0,7.056404,6.351532,0.000000,1.48344
0.116,1,0,7.056946,6.352419,0.000000,1.48638
0.117,1,0,7.057380,6.353050,0.000000,1.48333
0.118,1,0,7.057955,6.353681,0.000000,1.48179
0.119,1,0,7.058644,6.354312,0.000000,1.48460
0.120,1,0,7.059742,6.355859,0.000000,1.48307
0.121,1,0,7.061169,6.358423,0.000000,1.47943
0.122,1,0,7.062779,6.360987,0.000000,1.48506
0.123,1,0,7.064537,6.363552,0.000000,1.48424
0.124,1,0,7.066190,6.366028,0.000000,1.48427
0.125,1,0,7.067760,6.368408,0.000000,1.48304
0.126,1,0,7.069291,6.370789,0.000000,1.48412
0.127,1,0,7.070791,6.373168,0.000000,1.48455
0.128,1,0,7.072380,6.375284,0.000000,1.48389
0.129,1,0,7.074039,6.377106,0.000000,1.48335
0.130,1,0,7.075737,6.378928,0.000000,1.48365
0.131,1,0,7.077466,6.380750,0.000000,1.48260
0.132,1,0,7.079103,6.383368,0.000000,1.48407
0.133,1,0,7.080667,6.386871,0.000000,1.48400
0.134,1,0,7.081866,6.390373,0.000000,1.48245
0.135,1,0,7.082774,6.393876,0.000000,1.48458
0.136,1,0,7.083177,6.397296,0.000000,1.48388
0.137,1,0,7.083177,6.400625,0.000000,1.48334
0.138,1,0,7.083177,6.403955,0.000000,1.48473
0.139,1,0,7.083177,6.407284,0.000000,1.48437
0.140,1,0,7.083177,6.411472,1.373266,1.48273
0.141,1,1,7.083177,6.416614,3.843170,1.48354
0.142,1,1,7.083177,6.421754,4.939853,1.48373
0.143,1,1,7.083177,6.426896,4.939935,1.48425
0.144,1,1,7.076389,6.431348,4.940001,1.48570
0.145,1,1,7.064182,6.435037,4.940053,1.48364
0.146,1,1,7.041666,6.438726,4.940104,1.48444
0.147,1,1,7.010918,6.442415,4.940153,1.48456
0.148,1,1,6.982560,6.445495,4.940183,1.48366
0.149,1,1,6.956110,6.447898,4.940198,1.48233
0.150,1,1,6.929451,6.450302,4.940393,1.48411
0.151,1,1,6.902625,6.452706,4.940733,1.48472
0.152,1,1,6.872716,6.454929,4.941101,1.48312
0.153,1,1,6.840346,6.456952,4.941489,1.48435
0.154,1,1,6.814327,6.458974,4.941943,1.48406
0.155,1,1,6.793378,6.460996,4.942450,1.48428
0.156,1,1,6.783830,6.462794,4.943074,1.48375
0.157,1,1,6.783387,6.464343,4.943792,1.48512
0.158,1,1,6.782757,6.465892,4.944541,1.48257
0.159,1,1,6.781977,6.467441,4.945316,1.48292
0.160,1,1,6.767154,6.468472,4.946023,1.48503
0.161,1,1,6.741118,6.468929,4.946677,1.48371
0.162,1,1,6.715955,6.469386,4.947291,1.48290
0.163,1,1,6.691490,6.469843,4.947875,1.48356
0.164,1,1,6.679175,6.470699,4.948454,1.48361
0.165,1,1,6.676562,6.471999,4.949030,1.48573
0.166,1,1,6.675235,6.473298,4.949434,1.48105
0.167,1,1,6.674935,6.474597,4.949702,1.48392
0.168,1,1,6.662931,6.475591,4.949865,1.48336
0.169,1,1,6.641582,6.476246,4.949943,1.48321
0.170,1,1,6.617773,6.476902,4.949979,1.48523
0.171,1,1,6.592000,6.477558,4.949982,1.48262
0.172,1,1,6.579545,6.478426,4.950012,1.48371
0.173,1,1,6.577727,6.479530,4.950064,1.48430
0.174,1,1,6.576721,6.480634,4.950122,1.48434
0.175,1,1,6.576363,6.481738,4.950186,1.48466
0.176,1,1,6.575853,6.482242,4.950304,1.48622
0.177,1,1,6.575221,6.482080,4.950465,1.48384
0.178,1,1,6.574886,6.481919,4.950693,1.48322
0.179,1,1,6.574788,6.481757,4.950974,1.48359
0.180,1,1,6.574745,6.482045,4.951156,1.48306
0.181,1,1,6.574745,6.482832,4.951258,1.48368
0.182,1,1,6.574745,6.483618,4.951336,1.48428
0.183,1,1,6.574745,6.484405,4.951396,1.48255
0.184,1,1,6.574576,6.484445,4.951422,1.48260
0.185,1,1,6.574274,6.483655,4.951422,1.48380
0.186,1,1,6.573712,6.482865,4.951422,1.48306
0.187,1,1,6.572944,6.482075,4.951422,1.48351
0.188,0,1,4.745420,6.481693,4.951422,1.48555
0.189,0,1,1.459118,6.481764,4.951422,1.47534
0.190,0,1,0.000000,6.481834,4.951422,1.48346
0.191,0,1,0.000000,6.481905,4.951422,1.48430
0.192,0,1,0.000000,6.481581,4.951253,1.48740
0.193,0,1,0.000000,6.480818,4.950950,1.48430
0.194,0,1,0.000000,6.480056,4.950629,1.48455
0.195,0,1,0.000000,6.479293,4.950293,1.48376
0.196,0,1,0.000000,6.479053,4.949885,1.48296
0.197,0,1,0.000000,6.479390,4.949420,1.48383
0.198,0,1,0.000000,6.479728,4.948877,1.48334
0.199,0,1,0.000000,6.480065,4.948271,1.48275
0.200,0,1,0.000000,6.479497,4.947608,1.48218
0.201,0,1,0.000000,6.477924,4.946900,1.48715
0.202,0,1,0.000000,6.476351,4.946219,1.48313
0.203,0,1,0.000000,6.474778,4.945561,1.48271
0.204,0,1,0.000000,6.472470,4.945004,1.48346
0.205,0,1,0.000000,6.469347,4.944527,1.48351
0.206,0,1,0.000000,6.466224,4.944083,1.48161
0.207,0,1,0.000000,6.463100,4.943666,1.48180
0.208,0,1,0.000000,6.459805,4.943209,1.48461
0.209,0,1,0.000000,6.456319,4.942722,1.48381
0.210,0,1,0.000000,6.452832,4.942279,1.48134
0.211,0,1,0.000000,6.449346,4.941873,1.48178
0.212,0,1,0.000000,6.446031,4.941599,1.48338
0.213,0,1,0.000000,6.442905,4.941431,1.48273
0.214,0,1,0.000000,6.439780,4.941308,1.48469
0.215,0,1,0.000000,6.436655,4.941219,1.48407
0.216,0,1,0.000000,6.433414,4.941180,1.48386
0.217,0,1,0.000000,6.430047,4.941180,1.48029
0.218,0,1,0.000000,6.426679,4.941180,1.48394
0.219,0,1,0.000000,6.423312,4.941180,1.48293
0.220,0,1,0.000000,6.420455,4.941083,1.48284
0.221,0,1,0.000000,6.418166,4.940909,1.48469
0.222,0,1,0.000000,6.415877,4.940823,1.48331
0.223,0,1,0.000000,6.413588,4.940806,1.48270
0.224,0,1,0.000000,6.411179,4.940771,1.48485
0.225,0,1,0.000000,6.408638,4.940719,1.48351
0.226,0,1,0.000000,6.406096,4.940643,1.48512
0.227,0,1,0.000000,6.403555,4.940549,1.48351
0.228,0,1,0.000000,6.401391,4.940508,1.48509
0.229,0,1,0.000000,6.399643,4.940508,1.48452
0.230,0,1,0.000000,6.397896,4.940366,1.48571
0.231,0,1,0.000000,6.396149,4.940112,1.48405
0.232,0,1,0.000000,6.394190,4.939883,1.48351
0.233,0,1,0.000000,6.391998,4.939674,1.48420
0.234,0,1,0.000000,6.389806,4.939486,1.48666
0.235,0,1,0.000000,6.387614,4.939314,1.48561
0.236,0,1,0.000000,6.386043,4.939081,1.48400
0.237,0,1,0.000000,6.385160,4.938798,1.48433
0.238,0,1,0.000000,6.384278,4.938502,1.48330
0.239,0,1,0.000000,6.383396,4.938194,1.48376
0.240,0,1,0.000000,6.383465,4.937941,1.48444
0.241,0,1,0.000000,6.384589,4.937730,1.48431
0.242,0,1,0.000000,6.385714,4.937571,1.48682
0.243,0,1,0.000000,6.386838,4.937452,1.48530
0.244,0,1,0.000000,6.387998,4.937357,1.48369
0.245,0,1,0.000000,6.389197,4.937281,1.48352
0.246,0,1,0.000000,6.390397,4.937170,1.48467
0.247,0,1,0.000000,6.391596,4.937031,1.48394
0.248,0,1,0.000000,6.393178,4.936822,1.48328
0.249,0,1,0.000000,6.395186,4.936556,1.48239
0.250,0,1,0.000000,6.397194,4.936317,1.48482
0.251,0,1,0.000000,6.399202,4.936101,1.48392
0.252,0,1,0.000000,6.401192,4.935994,1.48337
0.253,0,1,0.000000,6.403162,4.935974,1.48429
0.254,0,1,0.000000,6.405131,4.935891,1.48458
0.255,0,1,0.000000,6.407100,4.935758,1.48350
0.256,0,1,0.000000,6.409012,4.935390,1.48509
0.257,0,1,0.000000,6.410861,4.934836,1.48293
0.258,0,1,0.000000,6.412710,4.934300,1.48777
0.259,0,1,0.000000,6.414559,4.933779,1.48483
0.260,0,1,0.000000,6.415876,4.933548,1.48468
0.261,0,1,0.000000,6.416603,4.933548,1.48328
0.262,0,1,0.000000,6.417329,4.933445,1.48243
0.263,0,1,0.000000,6.418056,4.933261,1.48257
0.264,0,1,0.000000,6.419057,4.933124,1.48394
0.265,0,1,0.000000,6.420364,4.933023,1.48422
0.266,0,1,0.000000,6.421671,4.932911,1.48278
0.267,0,1,0.000000,6.422979,4.932789,1.48488
0.268,0,1,0.000000,6.424378,4.932596,1.48411
0.269,0,1,0.000000,6.425879,4.932345,1.48345
0.270,0,1,0.000000,6.427379,4.932190,1.48262
0.271,0,1,0.000000,6.428880,4.932110,1.48397
0.272,0,1,0.000000,6.430340,4.931801,1.48450
0.273,0,1,0.000000,6.431757,4.931308,1.48392
0.274,0,1,0.000000,6.433174,4.930257,1.48309
0.275,0,1,0.000000,6.434591,4.928759,1.48391
0.276,0,1,0.000000,6.435378,4.926975,1.48316
0.277,0,1,0.000000,6.435467,4.924963,1.48533
0.278,0,1,0.000000,6.435555,4.922684,1.48449
0.279,0,1,0.000000,6.435644,4.920190,1.48311
0.280,0,1,0.000000,6.435599,4.917428,1.48516
0.281,0,1,0.000000,6.435408,4.914452,1.48243
0.282,0,1,0.000000,6.435216,4.911124,1.48301
0.283,0,1,0.000000,6.435024,4.907514,1.48392
0.284,0,1,0.000000,6.434429,4.903536,1.48213
0.285,0,1,0.000000,6.433387,4.899265,1.48460
0.286,0,1,0.000000,6.432345,4.895034,1.48472
0.287,0,1,0.000000,6.431303,4.890835,1.48472
0.288,0,0,0.000000,6.430392,3.529837,1.48310
0.289,0,0,0.000000,6.429625,1.085352,1.48256
0.290,0,0,0.000000,6.428858,0.000000,1.48394
0.291,0,0,0.000000,6.428092,0.000000,1.48467
0.292,0,0,0.000000,6.427272,0.000000,1.48534
0.293,0,0,0.000000,6.426396,0.000000,1.48260
0.294,0,0,0.000000,6.425519,0.000000,1.48315
0.295,0,0,0.000000,6.424642,0.000000,1.48333
0.296,0,0,0.000000,6.424717,0.000000,1.48484
0.297,0,0,0.000000,6.425848,0.000000,1.48333
0.298,0,0,0.000000,6.426980,0.000000,1.48290
0.299,0,0,0.000000,6.428112,0.000000,1.48342
0.300,0,0,0.000000,6.428456,0.000000,1.48209
0.301,0,0,0.000000,6.427928,0.000000,1.48239
0.302,0,0,0.000000,6.427400,0.000000,1.48394
0.303,0,0,0.000000,6.426872,0.000000,1.48350
0.304,0,0,0.000000,6.426105,0.000000,1.48244
0.305,0,0,0.000000,6.425075,0.000000,1.48407
0.306,0,0,0.000000,6.424044,0.000000,1.48308
0.307,0,0,0.000000,6.423012,0.000000,1.48346
0.308,0,0,0.000000,6.421658,0.000000,1.48387
0.309,0,0,0.000000,6.419945,0.000000,1.48275
0.310,0,0,0.000000,6.418231,0.000000,1.48392
0.311,0,0,0.000000,6.416518,0.000000,1.48443
0.312,0,0,0.000000,6.415137,0.000000,1.48298
0.313,0,0,0.000000,6.414126,0.000000,1.48255
0.314,0,0,0.000000,6.413115,0.000000,1.48335
0.315,0,0,0.000000,6.412103,0.000000,1.48352
0.316,0,0,0.000000,6.411053,0.000000,1.48188
0.317,0,0,0.000000,6.409961,0.000000,1.48554
0.318,0,0,0.000000,6.408868,0.000000,1.48453
0.319,0,0,0.000000,6.407775,0.000000,1.48280
0.320,0,0,0.000000,6.406902,0.000000,1.48612
0.321,0,0,0.000000,6.406271,0.000000,1.48297
0.322,0,0,0.000000,6.405640,0.000000,1.48434
0.323,0,0,0.000000,6.405009,0.000000,1.48330
0.324,0,0,0.000000,6.403985,0.000000,1.48216
0.325,0,0,0.000000,6.402524,0.000000,1.48315
0.326,0,0,0.000000,6.401062,0.000000,1.48424
0.327,0,0,0.000000,6.399601,0.000000,1.48368
0.328,0,0,0.000000,6.398650,0.000000,1.48318
0.329,0,0,0.000000,6.398266,0.000000,1.48434
0.330,0,0,0.000000,6.397882,0.000000,1.48601
0.331,0,0,0.000000,6.397497,0.000000,1.48453
0.332,0,0,0.000000,6.396429,0.000000,1.48224
0.333,0,0,0.000000,6.394600,0.000000,1.48040
0.334,0,0,0.000000,6.392772,0.000000,1.48494
0.335,0,0,0.000000,6.390944,0.000000,1.48474
0.336,0,0,0.000000,6.389517,0.000000,1.48409
0.337,0,0,0.000000,6.388535,0.000000,1.48479
0.338,0,0,0.000000,6.387554,0.000000,1.48358
0.339,0,0,0.000000,6.386572,0.000000,1.48344
0.340,0,0,0.000000,6.385221,0.000000,1.48286
0.341,0,0,0.000000,6.383458,0.000000,1.48459
0.342,0,0,0.000000,6.381695,0.000000,1.48351
0.343,0,0,0.000000,6.379932,0.000000,1.48520
0.344,0,0,0.000000,6.378460,0.000000,1.48373
0.345,0,0,0.000000,6.377311,0.000000,1.48340
0.346,0,0,0.000000,6.376162,0.000000,1.48331
0.347,0,0,0.000000,6.375013,0.000000,1.48509
0.348,0,0,0.000000,6.373782,0.000000,1.48494
0.349,0,0,0.000000,6.372460,0.000000,1.48647
0.350,0,0,1.890792,6.371139,0.000000,1.48309
0.351,1,0,5.291497,6.369817,0.000000,1.48477
0.352,1,0,6.802854,6.368849,0.000000,1.48451
0.353,1,0,6.805451,6.368272,0.000000,1.48430
0.354,1,0,6.808304,6.367696,0.000000,1.48464
0.355,1,0,6.811360,6.367120,0.000000,1.47963
0.356,1,0,6.822711,6.365934,0.000000,1.48375
0.357,1,0,6.840686,6.364072,0.000000,1.48416
0.358,1,0,6.866893,6.362209,0.000000,1.48418
0.359,1,0,6.899674,6.360347,0.000000,1.48568
0.360,1,0,6.932623,6.358500,0.000000,1.48446
0.361,1,0,6.965704,6.356670,0.000000,1.48612
0.362,1,0,6.990207,6.354840,0.000000,1.48430
0.363,1,0,7.007859,6.353010,0.000000,1.48322
0.364,1,0,7.015779,6.350735,0.000000,1.48581
0.365,1,0,7.015927,6.347967,0.000000,1.48370
0.366,1,0,7.015993,6.345198,0.000000,1.48547
0.367,1,0,7.015993,6.342430,0.000000,1.48325
0.368,1,0,7.015993,6.339727,0.000000,1.48297
0.369,1,0,7.015993,6.337096,0.000000,1.48344
0.370,1,0,7.015993,6.334465,0.000000,1.48351
0.371,1,0,7.015993,6.331834,0.000000,1.48363
0.372,1,0,7.015910,6.329350,0.000000,1.48537
0.373,1,0,7.015762,6.327029,0.000000,1.48536
0.374,1,0,7.015177,6.324707,0.000000,1.48390
0.375,1,0,7.014242,6.322386,0.000000,1.48400
0.376,1,0,7.013491,6.320553,0.000000,1.48333
0.377,1,0,7.012887,6.319263,0.000000,1.48414
0.378,1,0,7.012518,6.317973,0.000000,1.48271
0.379,1,0,7.012338,6.316682,0.000000,1.48039
0.380,1,0,7.012194,6.315233,0.000000,1.48362
0.381,1,0,7.012077,6.313606,0.000000,1.48405
0.382,1,0,7.012026,6.311979,0.000000,1.48427
0.383,1,0,7.012026,6.310352,0.000000,1.48465
0.384,1,0,7.012026,6.308898,0.000000,1.48428
0.385,1,0,7.012026,6.307634,0.000000,1.48313
0.386,1,0,7.012026,6.306370,0.000000,1.48376
0.387,1,0,7.012026,6.305106,0.000000,1.48412
0.388,1,0,7.012026,6.303710,0.000000,1.48387
0.389,1,0,7.012026,6.302165,0.000000,1.48468
0.390,1,0,7.012530,6.300621,0.000000,1.48496
0.391,1,0,7.013438,6.299077,0.000000,1.48534
0.392,1,0,7.014885,6.297781,0.000000,1.48323
0.393,1,0,7.016764,6.296763,0.000000,1.48530
0.394,1,0,7.018840,6.295745,0.000000,1.48427
0.395,1,0,7.021075,6.294727,0.000000,1.48373
0.396,1,0,7.023381,6.293269,0.000000,1.48360
0.397,1,0,7.025744,6.291321,0.000000,1.48373
0.398,1,0,7.027990,6.289373,0.000000,1.48367
0.399,1,0,7.030143,6.287426,0.000000,1.48271
0.400,1,0,7.032109,6.285376,0.000000,1.48268
0.401,1,0,7.033927,6.283213,0.000000,1.48217
0.402,1,0,7.036109,6.281050,0.000000,1.48297
0.403,1,0,7.038582,6.278887,0.000000,1.48398
0.404,1,0,7.041836,6.276674,0.000000,1.48342
0.405,1,0,7.045714,6.274407,0.000000,1.48389
0.406,1,0,7.049388,6.272140,0.000000,1.48395
0.407,1,0,7.052899,6.269873,0.000000,1.48170
0.408,1,0,7.055205,6.267341,0.000000,1.48290
0.409,1,0,7.056548,6.264516,0.000000,1.48343
0.410,1,0,7.057389,6.261691,0.000000,1.48542
0.411,1,0,7.057830,6.258865,0.000000,1.48270
0.412,1,0,7.058682,6.255976,0.000000,1.48103
0.413,1,0,7.059863,6.253017,0.000000,1.48298
0.414,1,0,7.061125,6.250058,0.000000,1.48444
0.415,1,0,7.062453,6.247098,0.000000,1.48340
0.416,1,0,7.063373,6.244183,0.000000,1.48422
0.417,1,0,7.063967,6.241316,0.000000,1.48416
0.418,1,0,7.064521,6.238449,0.000000,1.48398
0.419,1,0,7.065044,6.235582,0.000000,1.48399
0.420,1,0,7.065947,6.232730,0.000000,1.48266
0.421,1,0,7.067153,6.229896,0.000000,1.48475
0.422,1,0,7.068267,6.227062,0.000000,1.48369
0.423,1,0,7.069309,6.224227,0.000000,1.48459
0.424,1,0,7.069786,6.221391,0.000000,1.48589
0.425,1,0,7.069812,6.218551,0.000000,1.48347
0.426,1,0,7.069853,6.215712,0.000000,1.48640
0.427,1,0,7.069906,6.212873,0.000000,1.48369
0.428,1,0,7.069930,6.210496,0.000000,1.48433
0.429,1,0,7.069930,6.208632,0.000000,1.48499
0.430,1,0,7.069930,6.206768,0.000000,1.48540
0.431,1,0,7.069930,6.204904,0.000000,1.48283
0.432,1,0,7.069930,6.203654,0.000000,1.48389
0.433,1,0,7.069930,6.203085,0.000000,1.48360
0.434,1,0,7.069886,6.202517,0.000000,1.48390
0.435,1,0,7.069807,6.201948,0.000000,1.48475
0.436,1,0,7.069012,6.201619,0.000000,1.48622
0.437,1,0,7.067646,6.201556,0.000000,1.48480
0.438,1,0,7.066582,6.201493,0.000000,1.48261
0.439,1,0,7.065759,6.201430,0.000000,1.48344
0.440,1,0,7.065248,6.201174,0.000000,1.48517
0.441,1,0,7.064988,6.200703,0.000000,1.48325
0.442,1,0,7.064872,6.200232,0.000000,1.48456
0.443,1,0,7.064872,6.199760,0.000000,1.48616
0.444,1,0,7.064872,6.200067,0.000000,1.48386
0.445,1,0,7.064872,6.201235,0.000000,1.48424
0.446,1,0,7.064870,6.202404,0.000000,1.48298
0.447,1,0,7.064866,6.203572,0.000000,1.48456
0.448,1,0,7.064865,6.204492,0.000000,1.48300
0.449,1,0,7.064865,6.205135,0.000000,1.48364
0.450,1,0,7.064865,6.205779,0.000000,1.48464
0.451,1,0,7.064865,6.206422,0.000000,1.48256
0.452,1,0,7.064688,6.206664,0.000000,1.48330
0.453,1,0,7.064369,6.206460,0.000000,1.48487
0.454,0,0,5.100373,6.206255,0.000000,1.48359
0.455,0,0,1.568259,6.206051,0.000000,1.48443
0.456,0,0,0.000000,6.205997,0.000000,1.48478
0.457,0,0,0.000000,6.206111,0.000000,1.48511
0.458,0,0,0.000000,6.206224,0.000000,1.48423
0.459,0,0,0.000000,6.206338,0.000000,1.48215
0.460,0,0,0.000000,6.206367,0.000000,1.48373
0.461,0,0,0.000000,6.206304,0.000000,1.48409
0.462,0,0,0.000000,6.206240,0.000000,1.48350
0.463,0,0,0.000000,6.206176,0.000000,1.48339
0.464,0,0,0.000000,6.205995,0.000000,1.48464
0.465,0,0,0.000000,6.205683,0.000000,1.48409
0.466,0,0,0.000000,6.205370,0.000000,1.48313
0.467,0,0,0.000000,6.205059,0.000000,1.48439
0.468,0,0,0.000000,6.205504,0.000000,1.48381
0.469,0,0,0.000000,6.206790,0.000000,1.48596
0.470,0,0,0.000000,6.208076,0.000000,1.48378
0.471,0,0,0.000000,6.209362,0.000000,1.48347
0.472,0,0,0.000000,6.210128,0.000000,1.48342
0.473,0,0,0.000000,6.210315,0.000000,1.48210
0.474,0,0,0.000000,6.210503,0.000000,1.48359
0.475,0,0,0.000000,6.210691,0.000000,1.48436
0.476,0,0,0.000000,6.211435,0.000000,1.48531
0.477,0,0,0.000000,6.212797,0.000000,1.48447
0.478,0,0,0.000000,6.214159,0.000000,1.48350
0.479,0,0,0.000000,6.215520,0.000000,1.48290
0.480,0,0,0.000000,6.217384,0.000000,1.48391
0.481,0,0,0.000000,6.219806,0.000000,1.48175
0.482,0,0,0.000000,6.222228,0.000000,1.48492
0.483,0,0,0.000000,6.224650,0.000000,1.48434
0.484,0,0,0.000000,6.227593,0.000000,1.48228
0.485,0,0,0.000000,6.231114,0.000000,1.48405
0.486,0,0,0.000000,6.234636,0.000000,1.48349
0.487,0,0,0.000000,6.238158,0.000000,1.48422
0.488,0,0,0.000000,6.242091,0.000000,1.48416
0.489,0,0,0.000000,6.246482,0.000000,1.48259
0.490,0,0,0.000000,6.250872,0.000000,1.48391
0.491,0,0,0.000000,6.255263,0.000000,1.48232
0.492,0,0,0.000000,6.259751,0.000000,1.48466
0.493,0,0,0.000000,6.264349,0.000000,1.48440
0.494,0,0,0.000000,6.268946,0.000000,1.48309
0.495,0,0,0.000000,6.273543,0.000000,1.48190
0.496,0,0,0.000000,6.278321,0.000000,1.48413
0.497,0,0,0.000000,6.283301,0.000000,1.48256
0.498,0,0,0.000000,6.288281,0.000000,1.48493
0.499,0,0,0.000000,6.293261,0.000000,1.48305
0.500,0,0,0.000000,6.298337,0.000000,1.47903
0.501,0,0,0.000000,6.303523,0.000000,1.48383
0.502,0,0,0.000000,6.308707,0.000000,1.48370
0.503,0,0,0.000000,6.313892,0.000000,1.48408
0.504,0,0,0.000000,6.318773,0.000000,1.48553
0.505,0,0,0.000000,6.323315,0.000000,1.48391
0.506,0,0,0.000000,6.327858,0.000000,1.48623
0.507,0,0,0.000000,6.332401,0.000000,1.48513
0.508,0,0,0.000000,6.337598,0.000000,1.48400
0.509,0,0,0.000000,6.343523,0.000000,1.48452
0.510,0,0,0.000000,6.349447,0.000000,1.48464
0.511,0,0,0.000000,6.355371,0.000000,1.48444
0.512,0,0,0.000000,6.361081,0.000000,1.48551
0.513,0,0,0.000000,6.366551,0.000000,1.48265
0.514,0,0,0.000000,6.372023,0.000000,1.48544
0.515,0,0,0.000000,6.377494,0.000000,1.48417
0.516,0,0,0.000000,6.382060,0.000000,1.48370
0.517,0,0,0.000000,6.385623,0.000000,1.48430
0.518,0,0,0.000000,6.389185,0.000000,1.48307
0.519,0,0,0.000000,6.392748,0.000000,1.48447
0.520,0,0,0.000000,6.396101,0.000000,1.48376
0.521,0,0,0.000000,6.399220,0.000000,1.48383
0.522,0,0,0.000000,6.402339,0.000000,1.48476
0.523,0,0,0.000000,6.405458,0.000000,1.48375
0.524,0,0,0.000000,6.408989,0.000000,1.48333
0.525,0,0,0.000000,6.412977,0.000000,1.48585
0.526,0,0,0.000000,6.416965,0.000000,1.48347
0.527,0,0,0.000000,6.420952,0.000000,1.48527
0.528,0,0,0.000000,6.424764,0.000000,1.48080
0.529,0,0,0.000000,6.428381,0.000000,1.48382
0.530,0,0,0.000000,6.431999,0.000000,1.48620
0.531,0,0,0.000000,6.435616,0.000000,1.48339
0.532,0,0,0.000000,6.438540,0.000000,1.48231
0.533,0,0,0.000000,6.440692,0.000000,1.48571
0.534,0,0,0.000000,6.442844,0.000000,1.48601
0.535,0,0,0.000000,6.444997,0.000000,1.48640
0.536,0,0,0.000000,6.447528,0.000000,1.48403
0.537,0,0,0.000000,6.450481,0.000000,1.48539
0.538,0,0,0.000000,6.453434,0.000000,1.48356
0.539,0,0,0.000000,6.456387,0.000000,1.48284
0.540,0,0,0.000000,6.458377,0.000000,1.48463
0.541,0,0,0.000000,6.459299,0.000000,1.48200
0.542,0,0,0.000000,6.460221,0.000000,1.48264
0.543,0,0,0.000000,6.461143,0.000000,1.48224
0.544,0,0,0.000000,6.461766,0.000000,1.48416
0.545,0,0,0.000000,6.462057,0.000000,1.48395
0.546,0,0,0.000000,6.462348,0.000000,1.48356
0.547,0,0,0.000000,6.462638,0.000000,1.48528
0.548,0,0,0.000000,6.462792,0.000000,1.48301
0.549,0,0,0.000000,6.462793,0.000000,1.48396
0.550,0,0,0.000000,6.462795,0.000000,1.48277
0.551,0,0,0.000000,6.462797,0.000000,1.48618
0.552,0,0,0.000000,6.462650,0.000000,1.48468
0.553,0,0,0.000000,6.462338,0.000000,1.48312
0.554,0,0,0.000000,6.462026,0.000000,1.48423
0.555,0,0,0.000000,6.461714,0.000000,1.48260
0.556,0,0,1.742151,6.461495,0.000000,1.48467
0.557,1,0,4.875518,6.461381,0.000000,1.48386
0.558,1,0,6.280308,6.461267,0.000000,1.48409
0.559,1,0,6.304726,6.461152,0.000000,1.48348
0.560,1,0,6.329010,6.460405,0.000000,1.48320
0.561,1,0,6.353189,6.458956,0.000000,1.48665
0.562,1,1,6.379130,6.457508,1.357765,1.48031
0.563,1,1,6.406479,6.456059,3.799790,1.48375
0.564,1,1,6.435971,6.454507,4.884048,1.48453
0.565,1,1,6.467173,6.452841,4.884048,1.48251
0.566,1,1,6.492103,6.451174,4.884048,1.48380
0.567,1,1,6.512025,6.449508,4.884048,1.48346
0.568,1,1,6.521547,6.447675,4.884048,1.48439
0.569,1,1,6.522763,6.445659,4.884048,1.48336
0.570,1,1,6.523315,6.443642,4.884048,1.48538
0.571,1,1,6.523336,6.441626,4.884048,1.48557
0.572,1,1,6.533444,6.439307,4.883691,1.48297
0.573,1,1,6.551609,6.436654,4.883049,1.48325
0.574,1,1,6.576530,6.434001,4.882236,1.48293
0.575,1,1,6.606846,6.431348,4.881286,1.48118
0.576,1,1,6.634880,6.428951,4.880158,1.48433
0.577,1,1,6.661089,6.426837,4.878888,1.48234
0.578,1,1,6.685696,6.424724,4.877684,1.48480
0.579,1,1,6.709024,6.422611,4.876532,1.48271
0.580,1,1,6.733193,6.420272,4.875673,1.48289
0.581,1,1,6.758034,6.417685,4.875047,1.48339
0.582,1,1,6.782588,6.415096,4.874548,1.48357
0.583,1,1,6.806912,6.412508,4.874152,1.48401
0.584,1,1,6.830008,6.410055,4.873663,1.48326
0.585,1,1,6.852122,6.407751,4.873100,1.48250
0.586,1,1,6.877484,6.405447,4.872478,1.48407
0.587,1,1,6.905438,6.403143,4.871810,1.48293
0.588,1,1,6.918781,6.401249,4.871176,1.48350
0.589,1,1,6.920456,6.399811,4.870570,1.48322
0.590,1,1,6.931759,6.398372,4.870039,1.48300
0.591,1,1,6.950751,6.396934,4.869568,1.48389
0.592,1,1,6.963417,6.394513,4.869184,1.48316
0.593,1,1,6.971032,6.391003,4.868868,1.48503
0.594,1,1,6.979442,6.387492,4.868586,1.48467
0.595,1,1,6.988486,6.383982,4.868330,1.48365
0.596,1,1,7.002149,6.380385,4.868039,1.48361
0.597,1,1,7.019498,6.376695,4.867722,1.48148
0.598,1,1,7.027552,6.373004,4.867325,1.48215
0.599,1,1,7.028182,6.369313,4.866865,1.48317
0.600,1,1,7.030830,6.366086,4.866312,1.48280
0.601,1,1,7.035091,6.363373,4.865685,1.48389
0.602,1,1,7.037365,6.360660,4.865068,1.48500
0.603,1,1,7.038052,6.357946,4.864459,1.48392
0.604,1,1,7.039530,6.355357,4.863955,1.48427
0.605,1,1,7.041640,6.352906,4.863538,1.48351
0.606,1,1,7.042954,6.350454,4.863158,1.48293
0.607,1,1,7.043634,6.348002,4.862807,1.48605
0.608,1,1,7.043936,6.345474,4.862415,1.48270
0.609,1,1,7.043936,6.342859,4.861989,1.48365
0.610,1,1,7.043558,6.340244,4.861616,1.48483
0.611,1,1,7.042879,6.337629,4.861285,1.48511
0.612,1,1,7.042577,6.334884,4.861092,1.48377
0.613,1,1,7.042577,6.331995,4.861011,1.48384
0.614,1,1,7.042577,6.329104,4.860906,1.48311
0.615,1,1,7.042577,6.326215,4.860781,1.48533
0.616,1,1,7.042527,6.323645,4.860473,1.47969
0.617,1,1,7.042438,6.321429,4.860018,1.48406
0.618,1,1,7.041722,6.319213,4.859589,1.48557
0.619,1,1,7.040505,6.316998,4.859180,1.48333
0.620,1,1,7.039362,6.315307,4.858977,1.48328
0.621,1,1,7.038278,6.314199,4.858939,1.48392
0.622,1,1,7.037190,6.313091,4.858888,1.48342
0.623,1,1,7.036099,6.311984,4.858827,1.48362
0.624,1,1,7.034889,6.310590,4.858789,1.48436
0.625,1,1,7.033583,6.308878,4.858771,1.48384
0.626,1,1,7.032336,6.307167,4.858413,1.48378
0.627,1,1,7.031136,6.305456,4.857784,1.48384
0.628,1,1,7.030171,6.304800,4.856762,1.48203
0.629,1,1,7.029395,6.305316,4.855426,1.48318
0.630,1,1,7.028640,6.305832,4.853773,1.48452
0.631,1,1,7.027903,6.306348,4.851866,1.48436
0.632,1,1,7.026892,6.307030,4.849751,1.48357
0.633,1,1,7.025661,6.307894,4.847469,1.48400
0.634,1,1,7.023989,6.308759,4.845000,1.48439
0.635,1,1,7.021963,6.309624,4.842382,1.48417
0.636,1,1,7.019451,6.310053,4.839587,1.48622
0.637,1,1,7.016550,6.309999,4.836650,1.48403
0.638,1,1,7.013505,6.309944,4.833602,1.48556
0.639,1,1,7.010345,6.309889,4.830465,1.48437
0.640,1,1,7.007471,6.310647,3.486590,1.48444
0.641,1,0,7.004825,6.312304,1.072054,1.48348
0.642,1,0,7.002800,6.313962,0.000000,1.48478
0.643,1,0,7.001271,6.315619,0.000000,1.48305
0.644,1,0,7.000592,6.316767,0.000000,1.48223
0.645,1,0,7.000592,6.317350,0.000000,1.48343
0.646,1,0,7.000592,6.317933,0.000000,1.48362
0.647,1,0,7.000592,6.318516,0.000000,1.48492
0.648,1,0,7.000592,6.319595,0.000000,1.48393
0.649,1,0,7.000592,6.321226,0.000000,1.48428
0.650,1,0,7.000592,6.322855,0.000000,1.48380
0.651,1,0,7.000592,6.324485,0.000000,1.48387
0.652,1,0,7.000747,6.326337,0.000000,1.48394
0.653,1,0,7.001027,6.328436,0.000000,1.48400
0.654,1,0,7.002407,6.330534,0.000000,1.48478
0.655,1,0,7.004666,6.332633,0.000000,1.48270
0.656,1,0,7.007442,6.334189,0.000000,1.48315
0.657,1,0,7.010629,6.335142,0.000000,1.48397
0.658,1,0,7.013859,6.336096,0.000000,1.48240
0.659,1,0,7.017122,6.337049,0.000000,1.48748
0.660,1,0,7.019945,6.338008,0.000000,1.48309
0.661,1,0,7.022416,6.338972,0.000000,1.48227
0.662,1,0,7.024271,6.339937,0.000000,1.48406
0.663,1,0,7.025636,6.340901,0.000000,1.48377
0.664,1,0,7.026424,6.341686,0.000000,1.48342
0.665,1,0,7.026752,6.342272,0.000000,1.48203
0.666,1,0,7.027117,6.342859,0.000000,1.48281
0.667,1,0,7.027511,6.343445,0.000000,1.48347
0.668,1,0,7.027686,6.343863,0.000000,1.48188
0.669,1,0,7.027686,6.344096,0.000000,1.48407
0.670,1,0,7.027686,6.344328,0.000000,1.48353
0.671,1,0,7.027686,6.344561,0.000000,1.48384
0.672,1,0,7.027686,6.344612,0.000000,1.48297
0.673,1,0,7.027686,6.344461,0.000000,1.47711
0.674,1,0,7.027686,6.344311,0.000000,1.48101
0.675,1,0,7.027686,6.344161,0.000000,1.48294
0.676,1,0,7.027146,6.343896,0.000000,1.48372
0.677,1,0,7.026175,6.343505,0.000000,1.48206
0.678,1,0,7.024425,6.343113,0.000000,1.48355
0.679,1,0,7.022052,6.342722,0.000000,1.48283
0.680,1,0,7.019845,6.342354,0.000000,1.48370
0.681,1,0,7.017768,6.342012,0.000000,1.48457
0.682,1,0,7.015886,6.341670,0.000000,1.48438
0.683,1,0,7.014159,6.341328,0.000000,1.48321
0.684,1,0,7.012552,6.340950,0.000000,1.48341
0.685,1,0,7.011040,6.340533,0.000000,1.48317
0.686,1,0,7.009419,6.340116,0.000000,1.48285
0.687,1,0,7.007711,6.339699,0.000000,1.48284
0.688,1,0,7.005731,6.339129,0.000000,1.48489
0.689,1,0,7.003535,6.338389,0.000000,1.48119
0.690,1,0,7.001410,6.337649,0.000000,1.48521
0.691,1,0,6.999342,6.336909,0.000000,1.48403
0.692,1,0,6.997723,6.336398,0.000000,1.48084
0.693,1,0,6.996460,6.336142,0.000000,1.48274
0.694,1,0,6.995836,6.335886,0.000000,1.48555
0.695,1,0,6.995723,6.335629,0.000000,1.48440
0.696,1,0,6.995457,6.335254,0.000000,1.48224
0.697,1,0,6.995068,6.334748,0.000000,1.48431
0.698,1,0,6.994831,6.334242,0.000000,1.48469
0.699,1,0,6.994716,6.333736,0.000000,1.48471
0.700,1,0,6.994636,6.333185,0.000000,1.48433
0.701,1,0,6.994583,6.332582,0.000000,1.48614
0.702,1,0,6.994330,6.331980,0.000000,1.48346
0.703,1,0,6.993917,6.331378,0.000000,1.48391
0.704,1,0,6.993728,6.330750,0.000000,1.48313
0.705,1,0,6.993718,6.330095,0.000000,1.48333
0.706,1,0,6.993605,6.329440,0.000000,1.48271
0.707,1,0,6.993410,6.328784,0.000000,1.48373
0.708,1,0,6.993321,6.327948,0.000000,1.48273
0.709,1,0,6.993317,6.326912,0.000000,1.48438
0.710,1,0,6.993304,6.325875,0.000000,1.48292
0.711,1,0,6.993285,6.324839,0.000000,1.48489
0.712,1,0,6.992908,6.323681,0.000000,1.48504
0.713,1,0,6.992246,6.322388,0.000000,1.48391
0.714,1,0,6.991434,6.321095,0.000000,1.48542
0.715,1,0,6.990502,6.319802,0.000000,1.48539
0.716,1,0,6.989774,6.318837,0.000000,1.48333
0.717,1,0,6.989208,6.318234,0.000000,1.48417
0.718,1,0,6.988956,6.317631,0.000000,1.48361
0.719,1,0,6.988956,6.317029,0.000000,1.48427
0.720,1,0,6.988956,6.316203,0.000000,1.48541
0.721,1,0,6.988956,6.315129,0.000000,1.48417
0.722,1,0,6.988956,6.314055,0.000000,1.48368
0.723,1,0,6.988956,6.312981,0.000000,1.48282
0.724,1,0,6.988956,6.311755,0.000000,1.48395
0.725,1,0,6.988956,6.310359,0.000000,1.48341
0.726,1,0,6.989532,6.308962,0.000000,1.48378
0.727,1,0,6.990566,6.307566,0.000000,1.48520
0.728,1,0,6.991729,6.305860,0.000000,1.48740
0.729,1,0,6.992994,6.303810,0.000000,1.48536
0.730,1,0,6.994241,6.301759,0.000000,1.48355
0.731,1,0,6.995473,6.299709,0.000000,1.48664
0.732,1,0,6.996667,6.298076,0.000000,1.48248
0.733,1,0,6.997831,6.296905,0.000000,1.48408
0.734,1,0,6.998857,6.295734,0.000000,1.48278
0.735,1,0,6.999774,6.294563,0.000000,1.48357
0.736,1,0,7.000484,6.292932,0.000000,1.48464
0.737,1,0,7.001029,6.290788,0.000000,1.48177
0.738,1,0,7.001536,6.288644,0.000000,1.48372
0.739,1,0,7.002012,6.286500,0.000000,1.48454
0.740,1,0,7.002623,6.284739,0.000000,1.48417
0.741,1,0,7.003343,6.283402,0.000000,1.48371
0.742,1,0,7.003662,6.282066,0.000000,1.48378
0.743,1,0,7.003662,6.280729,0.000000,1.48356
0.744,1,0,7.003662,6.279632,0.000000,1.48252
0.745,1,0,7.003662,6.278800,0.000000,1.48651
0.746,1,0,7.003662,6.277969,0.000000,1.48541
0.747,1,0,7.003662,6.277137,0.000000,1.48442
0.748,1,0,7.003662,6.275868,0.000000,1.48394
0.749,1,0,7.003662,6.274114,0.000000,1.48407
0.750,1,0,7.003267,6.272360,0.000000,1.48440
0.751,1,0,7.002557,6.270606,0.000000,1.48509
0.752,1,0,7.001279,6.268982,0.000000,1.48430
0.753,1,0,6.999549,6.267501,0.000000,1.48513
0.754,1,0,6.997917,6.266021,0.000000,1.48383
0.755,1,0,6.996363,6.264541,0.000000,1.48303
0.756,1,0,6.995159,6.263363,0.000000,1.48640
0.757,1,0,6.994234,6.262519,0.000000,1.48348
0.758,1,0,6.993309,6.261676,0.000000,1.48397
0.759,1,0,6.992385,6.260833,0.000000,1.48389
0.760,1,0,6.991080,6.260048,0.000000,1.48344
0.761,1,0,6.989471,6.259327,0.000000,1.48328
0.762,1,0,6.987724,6.258607,0.000000,1.48361
0.763,1,0,6.985867,6.257886,0.000000,1.48420
0.764,1,0,6.984206,6.257109,0.000000,1.48376
0.765,1,0,6.982702,6.256269,0.000000,1.48251
0.766,1,0,6.981343,6.255428,0.000000,1.48358
0.767,1,0,6.980102,6.254588,0.000000,1.48377
0.768,1,0,6.978907,6.253260,0.000000,1.48353
0.769,1,0,6.977750,6.251391,0.000000,1.48309
0.770,1,0,6.976813,6.249521,0.000000,1.48413
0.771,1,0,6.976051,6.247652,0.000000,1.48464
0.772,1,0,6.975712,6.246394,0.000000,1.48317
0.773,1,0,6.975712,6.245815,0.000000,1.48157
0.774,1,0,6.975712,6.245236,0.000000,1.48282
0.775,1,0,6.975712,6.244658,0.000000,1.48551
0.776,1,0,6.975712,6.244176,0.000000,1.48340
0.777,1,0,6.975712,6.243804,0.000000,1.48497
0.778,1,0,6.975712,6.243433,0.000000,1.48472
0.779,1,0,6.975712,6.243060,0.000000,1.48382
0.780,1,0,6.975865,6.242797,0.000000,1.48331
0.781,1,0,6.976139,6.242655,0.000000,1.48270
0.782,1,0,6.977029,6.242513,0.000000,1.48229
0.783,1,0,6.978409,6.242370,0.000000,1.48632
0.784,1,0,6.979951,6.242638,0.000000,1.48403
0.785,1,0,6.981620,6.243361,0.000000,1.48412
0.786,1,0,6.983273,6.244084,0.000000,1.48376
0.787,1,0,6.984911,6.244808,0.000000,1.48381
0.788,1,0,6.986402,6.245497,0.000000,1.48450
0.789,1,0,6.987773,6.246149,0.000000,1.48248
0.790,1,0,6.989039,6.246801,0.000000,1.48359
0.791,1,0,6.990220,6.247453,0.000000,1.48328
0.792,1,0,6.991352,6.247735,0.000000,1.48385
0.793,1,0,6.992446,6.247606,0.000000,1.48395
0.794,1,0,6.993263,6.247478,0.000000,1.48345
0.795,1,0,6.993858,6.247349,0.000000,1.48168
0.796,1,0,6.994123,6.247392,0.000000,1.48611
0.797,1,0,6.994123,6.247625,0.000000,1.48327
0.798,1,0,6.994123,6.247858,0.000000,1.48477
0.799,1,0,6.994123,6.248091,0.000000,1.48369
0.800,1,0,6.994123,6.248746,0.000000,1.48581
0.801,1,0,6.994123,6.249870,0.000000,1.48172
0.802,1,0,6.994123,6.250994,0.000000,1.48422
0.803,1,0,6.994123,6.252118,0.000000,1.48394
0.804,1,0,6.993564,6.253907,0.000000,1.48383
0.805,1,0,6.992560,6.256433,0.000000,1.48501
0.806,1,0,6.991613,6.258958,0.000000,1.48442
0.807,1,0,6.990711,6.261484,0.000000,1.48370
0.808,1,0,6.990311,6.263848,0.000000,1.48447
0.809,1,0,6.990311,6.266032,0.000000,1.48420
0.810,1,0,6.990311,6.268216,0.000000,1.48323
0.811,1,0,6.990311,6.270400,0.000000,1.48400
0.812,1,0,6.990311,6.272189,0.000000,1.48478
0.813,1,0,6.990311,6.273540,0.000000,1.48408
0.814,1,0,6.990311,6.274891,0.000000,1.48428
0.815,1,0,6.990311,6.276242,0.000000,1.48463
0.816,1,0,6.990541,6.277772,0.000000,1.48149
0.817,1,0,6.990956,6.279501,0.000000,1.48630
0.818,1,0,6.991379,6.281229,0.000000,1.48438
0.819,1,0,6.991808,6.282959,0.000000,1.48393
0.820,1,0,6.992189,6.284297,0.000000,1.48403
0.821,1,0,6.992534,6.285202,0.000000,1.48387
0.822,1,0,6.992831,6.286106,0.000000,1.48568
0.823,1,0,6.993091,6.287011,0.000000,1.48436
0.824,1,0,6.993332,6.287623,0.000000,1.48537
0.825,1,0,6.993560,6.287911,0.000000,1.48369
0.826,1,0,6.993661,6.288198,0.000000,1.48349
0.827,1,0,6.993661,6.288486,0.000000,1.48491
0.828,1,0,6.993661,6.288769,0.000000,1.48796
0.829,1,0,6.993661,6.289046,0.000000,1.48320
0.830,1,0,6.993661,6.289322,0.000000,1.48276
0.831,1,0,6.993661,6.289599,0.000000,1.48279
0.832,1,0,6.993661,6.290387,0.000000,1.48382
0.833,1,0,6.993661,6.291741,0.000000,1.48317
0.834,1,0,6.993451,6.293095,0.000000,1.48346
0.835,1,0,6.993073,6.294449,0.000000,1.48311
0.836,1,0,6.992661,6.295488,0.000000,1.48328
0.837,1,0,6.992224,6.296177,0.000000,1.48434
0.838,1,0,6.992000,6.296867,0.000000,1.48314
0.839,1,0,6.991946,6.297556,0.000000,1.48421
0.840,1,0,5.048168,6.297902,0.000000,1.48323
0.841,1,0,1.552207,6.297868,0.000000,1.48383
0.842,0,0,0.000000,6.297834,0.000000,1.48278
0.843,0,0,0.000000,6.297800,0.000000,1.48311
0.844,0,0,0.000000,6.298227,0.000000,1.48500
0.845,0,0,0.000000,6.299165,0.000000,1.48424
0.846,0,0,0.000000,6.300103,0.000000,1.48276
0.847,0,0,0.000000,6.301040,0.000000,1.48372
0.848,0,0,0.000000,6.302150,0.000000,1.48321
0.849,0,0,0.000000,6.303450,0.000000,1.48371
0.850,0,0,0.000000,6.304750,0.000000,1.48427
0.851,0,0,0.000000,6.306050,0.000000,1.48340
0.852,0,0,0.000000,6.307573,0.000000,1.48233
0.853,0,0,0.000000,6.309343,0.000000,1.48270
0.854,0,0,0.000000,6.311113,0.000000,1.48399
0.855,0,0,0.000000,6.312883,0.000000,1.48400
0.856,0,0,0.000000,6.314925,0.000000,1.48284
0.857,0,0,0.000000,6.317269,0.000000,1.48215
0.858,0,0,0.000000,6.319612,0.000000,1.48436
0.859,0,0,0.000000,6.321955,0.000000,1.48225
0.860,0,0,0.000000,6.324854,0.000000,1.48265
0.861,0,0,0.000000,6.328370,0.000000,1.48123
0.862,0,0,0.000000,6.331885,0.000000,1.48383
0.863,0,0,0.000000,6.335400,0.000000,1.48337
0.864,0,0,0.000000,6.338871,0.000000,1.48425
0.865,0,0,0.000000,6.342290,0.000000,1.48444
0.866,0,0,0.000000,6.345711,1.297220,1.48386
0.867,0,1,0.000000,6.349131,3.630349,1.48301
0.868,0,1,0.000000,6.351789,4.666373,1.48388
0.869,0,1,0.000000,6.353601,4.666581,1.48267
0.870,0,1,0.000000,6.355414,4.666898,1.48392
0.871,0,1,0.000000,6.357227,4.667303,1.48412
0.872,0,1,0.000000,6.359567,4.667972,1.48137
0.873,0,1,0.000000,6.362494,4.668853,1.48384
0.874,0,1,0.000000,6.365420,4.669955,1.48354
0.875,0,1,0.000000,6.368347,4.671232,1.48416
0.876,0,1,0.000000,6.370915,4.672616,1.48362
0.877,0,1,0.000000,6.373086,4.674086,1.48597
0.878,0,1,0.000000,6.375257,4.675497,1.48376
0.879,0,1,0.000000,6.377429,4.676859,1.48539
0.880,0,1,0.000000,6.379709,4.678036,1.48584
0.881,0,1,0.000000,6.382111,4.679063,1.48196
0.882,0,1,0.000000,6.384513,4.680023,1.48418
0.883,0,1,0.000000,6.386915,4.680929,1.48364
0.884,0,1,0.000000,6.388914,4.681908,1.48683
0.885,0,1,0.000000,6.390466,4.682945,1.48664
0.886,0,1,0.000000,6.392018,4.683970,1.48500
0.887,0,1,0.000000,6.393570,4.684985,1.48533
0.888,0,1,0.000000,6.395318,4.685888,1.48463
0.889,0,1,0.000000,6.397283,4.686702,1.48240
0.890,0,1,0.000000,6.399247,4.687524,1.47970
0.891,0,1,0.000000,6.401212,4.688354,1.48266
0.892,0,1,0.000000,6.404128,4.689350,1.47992
0.893,0,1,0.000000,6.408100,4.690480,1.47747
0.894,0,1,0.000000,6.412073,4.691830,1.47674
0.895,0,1,0.000000,6.416045,4.693355,1.47296
0.896,0,1,0.000000,6.420043,4.695120,1.47114
0.897,0,1,0.000000,6.424068,4.697079,1.46727
0.898,0,1,0.000000,6.428093,4.699293,1.46266
0.899,0,1,0.000000,6.432119,4.701712,1.45779
0.900,0,1,0.000000,6.436677,4.704378,1.44909
0.901,0,1,0.000000,6.441827,4.707240,1.44107
0.902,0,1,0.000000,6.446977,4.710230,1.43459
0.903,0,1,0.000000,6.452127,4.713321,1.42686
0.904,0,1,0.000000,6.457283,4.716417,1.42213
0.905,0,1,0.000000,6.462444,4.719517,1.41325
0.906,0,1,0.000000,6.467607,4.722619,1.40378
0.907,0,1,0.000000,6.472768,4.725723,1.39636
0.908,0,1,0.000000,6.477906,4.728848,1.38210
0.909,0,1,0.000000,6.483016,4.731991,1.36737
0.910,0,1,0.000000,6.488127,4.735115,1.35641
0.911,0,1,0.000000,6.493237,4.738223,1.34793
0.912,0,1,0.000000,6.498045,4.741292,1.33474
0.913,0,1,0.000000,6.502517,4.744328,1.32202
0.914,0,1,0.000000,6.506989,4.747460,1.30683
0.915,0,1,0.000000,6.511461,4.750669,1.28869
0.916,0,1,0.000000,6.514986,4.754122,1.27416
0.917,0,1,0.000000,6.517458,4.757773,1.25980
0.918,0,1,0.000000,6.519932,4.761679,1.24603
0.919,0,1,0.000000,6.522405,4.765790,1.23217
0.920,0,1,0.000000,6.525161,4.770091,1.21596
0.921,0,1,0.000000,6.528231,4.774542,1.20153
0.922,0,1,0.000000,6.531300,4.778950,1.17731
0.923,0,1,0.000000,6.534370,4.783323,1.15415
0.924,0,1,0.000000,6.536596,4.787452,1.13918
0.925,0,1,0.000000,6.537888,4.791387,1.11699
0.926,0,1,0.000000,6.539179,4.795249,1.10555
0.927,0,1,0.000000,6.540470,4.799052,1.08605
0.928,0,1,0.000000,6.540449,4.802978,1.06793
0.929,0,1,0.000000,6.538972,4.807001,1.04209
0.930,0,1,0.000000,6.537495,4.810987,1.01250
0.931,0,1,0.000000,6.536017,4.814944,0.99387
0.932,0,1,0.000000,6.533548,4.818683,0.97574
0.933,0,1,0.000000,6.529977,4.822248,0.95514
0.934,0,1,0.000000,6.526406,4.825774,0.93531
0.935,0,1,0.000000,6.522834,4.829268,0.91437
0.936,0,1,0.000000,6.518832,4.832930,0.87828
0.937,0,1,0.000000,6.514350,4.836723,0.85296
0.938,0,1,0.000000,6.509869,4.840556,0.83022
0.939,0,1,0.000000,6.505388,4.844418,0.80990
0.940,0,1,0.000000,6.501140,4.848135,0.78741
0.941,0,1,0.000000,6.497149,4.851735,0.76746
0.942,0,1,0.000000,6.493159,4.855182,0.74343
0.943,0,1,0.000000,6.489169,4.858506,0.70775
0.944,0,1,0.000000,6.484545,4.861702,0.67554
0.945,0,1,0.000000,6.479219,4.864796,0.65204
0.946,0,1,1.695585,6.473892,4.867709,0.62706
0.947,0,1,4.745199,6.468566,4.870480,0.60540
0.948,1,1,6.111573,6.462930,4.873014,0.58201
0.949,1,1,6.133777,6.456951,4.875360,0.54503
0.950,1,1,6.160550,6.450973,4.877486,0.50992
0.951,1,1,6.190971,6.444993,4.879435,0.48306
0.952,1,1,6.219157,6.439551,4.881225,0.45975
0.953,1,1,6.245558,6.434704,4.882887,0.43416
0.954,1,1,6.270323,6.429857,4.884567,0.41045
0.955,1,1,6.293780,6.425009,4.886261,0.38525
0.956,1,1,6.317789,6.419570,4.888111,0.34619
0.957,1,1,6.342239,6.413475,4.890088,0.31110
0.958,1,1,6.367162,6.407380,4.892054,0.28443
0.959,1,1,6.392463,6.401284,4.894011,0.25992
0.960,1,1,6.417570,6.394715,4.895775,0.23742
0.961,1,1,6.442523,6.387619,4.897384,0.21104
0.962,1,1,6.466859,6.380524,4.898941,0.17209
0.963,1,1,6.490704,6.373428,4.900456,0.13294
0.964,1,1,6.514004,6.366102,4.902076,0.10521
0.965,1,1,6.536870,6.358520,4.903780,0.07947
0.966,1,1,6.561198,6.350938,4.905400,0.05403
0.967,1,1,6.586693,6.343357,4.906951,0.02941
0.968,1,1,6.614458,6.335863,4.908197,0.00432
0.969,1,1,6.644035,6.328467,4.909201,-0.03751
0.970,1,1,6.662951,6.321071,4.909992,-0.07562
0.971,1,1,6.673356,6.313675,4.910614,-0.09958
0.972,1,1,6.677975,6.306484,4.911176,-0.12724
0.973,1,1,6.677975,6.299520,4.911692,-0.15328
0.974,1,1,6.677975,6.292555,4.912183,-0.17610
0.975,1,1,6.677975,6.285591,4.912655,-0.21784
0.976,1,1,6.677975,6.278093,4.913123,-0.25440
0.977,1,1,6.677975,6.270004,4.913588,-0.27932
0.978,1,1,6.677975,6.261914,4.914155,-0.30448
0.979,1,1,6.677975,6.253825,4.914802,-0.33003
0.980,1,1,6.660658,6.245721,4.915316,-0.35755
0.981,1,1,6.629512,6.237603,4.915722,-0.39600
0.982,1,1,6.598915,6.229484,4.915903,-0.42989
0.983,1,1,6.568757,6.221365,4.915903,-0.45694
0.984,1,1,6.553151,6.213714,4.915903,-0.47950
0.985,1,1,6.549166,6.206583,4.915903,-0.50585
0.986,1,1,6.546068,6.199452,4.915903,-0.52943
0.987,1,1,6.543679,6.192321,4.915903,-0.56447
0.988,1,1,6.526756,6.184920,4.915903,-0.59960
0.989,1,1,6.498229,6.177219,4.915903,-0.62427
0.990,1,1,6.467194,6.169518,4.915222,-0.64869
0.991,1,1,6.434156,6.161818,4.913999,-0.67190
0.992,1,1,6.416271,6.154653,4.912545,-0.69393
0.993,1,1,6.410484,6.148085,4.910909,-0.71653
0.994,1,1,6.407478,6.141516,4.909164,-0.76310
0.995,1,1,6.406693,6.134947,4.907331,-0.78127
0.996,1,1,6.405088,6.128501,4.905512,-0.80494
0.997,1,1,6.402830,6.122192,4.903705,-0.82560
0.998,1,1,6.401125,6.115883,4.901875,-0.84839
0.999,1,1,6.399861,6.109573,4.900026,-0.86848
1.000,1,1,6.398551,6.103739,4.898107,-0.90125
1.001,1,1,6.397205,6.098432,4.896132,-0.93024
1.002,1,1,6.396021,6.093124,4.894209,-0.95084
1.003,1,1,6.394967,6.087817,4.892326,-0.97089
1.004,1,1,6.393875,6.082241,4.890601,-0.98743
1.005,1,1,6.392752,6.076365,4.889002,-1.00508
1.006,1,1,6.390909,6.070490,4.887401,-1.03697
1.007,1,1,6.388492,6.064616,4.885797,-1.06381
1.008,1,1,6.375647,6.059402,4.884039,-1.08286
1.009,1,1,6.354473,6.054921,4.882159,-1.09816
1.010,1,1,6.326982,6.050441,4.880362,-1.11627
1.011,1,1,6.294447,6.045960,4.878633,-1.13352
1.012,1,1,6.261256,6.041393,4.877234,-1.15732
1.013,1,1,6.227540,6.036729,4.876098,-1.18197
1.014,1,1,6.200639,6.032065,4.875078,-1.19546
1.015,1,1,6.179178,6.027400,4.874150,-1.20995
1.016,1,1,6.169000,6.022760,4.873073,-1.22712
1.017,1,1,6.167833,6.018147,4.871877,-1.24059
1.018,1,1,6.166543,6.013533,4.870621,-1.26304
1.019,1,1,6.165153,6.008919,4.869318,-1.28661
1.020,1,1,6.151707,6.003880,4.868124,-1.29473
1.021,1,1,6.128634,5.998369,4.867017,-1.30696
1.022,1,1,6.099509,5.992859,4.866384,-1.31743
1.023,1,1,6.065551,5.987349,4.866129,-1.33024
1.024,1,1,6.034174,5.981840,4.866016,-1.34330
1.025,1,1,6.004858,5.976335,4.866016,-1.35994
1.026,1,1,5.975721,5.970829,4.866016,-1.37217
1.027,1,1,5.946727,5.965323,4.866016,-1.38235
1.028,1,1,5.914934,5.960160,4.865837,-1.39107
1.029,1,1,5.880908,5.955376,4.865513,-1.39919
1.030,1,1,5.852619,5.950592,4.865279,-1.41282
1.031,1,1,5.828911,5.945807,4.865116,-1.42275
1.032,1,1,5.818132,5.941615,4.865044,-1.42948
1.033,1,1,5.817677,5.938079,4.865044,-1.43686
1.034,1,1,5.816540,5.934543,4.865044,-1.44246
1.035,1,1,5.814860,5.931007,4.865044,-1.44798
1.036,1,1,5.798799,5.927854,4.865044,-1.45347
1.037,1,1,5.771255,5.925126,4.865044,-1.45730
1.038,1,1,5.741828,5.922397,4.864867,-1.46324
1.039,1,1,5.710898,5.919669,4.864550,-1.46568
1.040,1,1,5.697165,5.917773,4.864077,-1.46735
1.041,1,1,5.697165,5.916800,4.863479,-1.47114
1.042,1,1,5.696212,5.915828,4.862944,-1.47442
1.043,1,1,5.694498,5.914856,4.862458,-1.47408
1.044,1,1,5.693692,5.913417,4.862206,-1.48046
1.045,1,1,5.693612,5.911462,4.862139,-1.47700
1.046,1,1,5.693221,5.909507,4.862103,-1.47964
1.047,1,1,5.692580,5.907552,4.862092,-1.47957
1.048,1,1,5.692126,5.906749,4.862064,-1.47781
1.049,1,1,5.691820,5.907225,4.862023,-1.47810
1.050,1,1,5.691684,5.907701,4.861981,-1.47810
1.051,1,1,5.691684,5.908177,4.861940,-1.47849
1.052,1,1,5.676626,5.909458,4.861900,-1.47847
1.053,1,1,5.649542,5.911633,4.861861,-1.47928
1.054,1,1,5.624449,5.913807,4.861671,-1.47828
1.055,1,1,5.600945,5.915982,4.861362,-1.48080
1.056,1,1,5.590510,5.919215,4.860910,-1.47951
1.057,1,1,5.590510,5.923623,4.860344,-1.47936
1.058,1,1,5.590510,5.928031,4.859633,-1.47727
1.059,1,1,5.590510,5.932439,4.858806,-1.47510
1.060,1,1,5.589685,5.937109,4.857820,-1.47366
1.061,1,1,5.588203,5.942069,4.856707,-1.47863
1.062,1,1,5.586515,5.947029,4.855324,-1.47829
1.063,1,1,5.584664,5.951989,4.853725,-1.47813
1.064,1,1,5.583842,5.957289,4.851798,-1.47933
1.065,1,1,5.583842,5.962967,4.849607,-1.47834
1.066,1,1,5.583842,5.968646,4.847392,-1.47848
1.067,1,1,5.583842,5.974324,4.845156,-1.47715
1.068,1,1,5.575440,5.980164,4.843215,-1.47779
1.069,1,1,5.560329,5.986184,4.841509,-1.47860
1.070,1,1,5.548308,5.992203,4.840023,-1.47950
1.071,1,1,5.538756,5.998223,4.838713,-1.47932
1.072,1,1,5.534515,6.004333,4.837461,-1.48153
1.073,1,1,5.534515,6.010544,4.836255,-1.47835
1.074,1,1,5.534515,6.016755,4.835045,-1.47861
1.075,1,1,5.534515,6.022966,4.833832,-1.47877
1.076,1,1,5.534515,6.029360,4.832590,-1.47648
1.077,1,1,5.534515,6.035956,4.831325,-1.47917
1.078,1,1,5.534515,6.042553,4.830030,-1.47829
1.079,1,1,5.534515,6.049150,4.828712,-1.47814
1.080,1,1,5.535649,6.055983,4.827375,-1.47905
1.081,1,1,5.537690,6.063076,4.826022,-1.47880
1.082,1,1,5.539810,6.070170,4.824667,-1.47724
1.083,1,1,5.541994,6.077264,4.823309,-1.47715
1.084,1,1,5.544141,6.084215,4.822000,-1.47829
1.085,1,1,5.546258,6.091006,4.820728,-1.47971
1.086,1,1,5.548284,6.097798,4.820164,-1.47981
1.087,1,1,5.550238,6.104590,4.820164,-1.47888
1.088,1,1,5.552163,6.111022,4.820164,-1.48079
1.089,1,1,5.554064,6.117054,4.820164,-1.47782
1.090,1,1,5.556443,6.123086,4.820164,-1.47873
1.091,1,1,5.559202,6.129119,4.820164,-1.47902
1.092,1,1,5.561800,6.135474,4.820164,-1.48040
1.093,1,1,5.564269,6.142189,4.820164,-1.47925
1.094,1,1,5.566149,6.148902,4.820223,-1.47876
1.095,1,1,5.567559,6.155617,4.820330,-1.47913
1.096,1,1,5.568919,6.162611,4.820633,-1.47881
1.097,1,1,5.570239,6.169916,4.821092,-1.47727
1.098,1,1,5.573010,6.177220,4.821609,-1.47975
1.099,1,1,5.576941,6.184525,4.822171,-1.47776
1.100,1,1,5.593955,6.191584,4.822772,-1.47659
1.101,1,1,5.621418,6.198371,4.823403,-1.47900
1.102,1,1,5.633612,6.205158,4.824080,-1.47880
1.103,1,1,5.633612,6.211945,4.824790,-1.47906
1.104,1,1,5.633612,6.218628,4.825560,-1.47840
1.105,1,1,5.633612,6.225198,4.826376,-1.47882
1.106,1,1,5.633612,6.231768,4.827283,-1.47759
1.107,1,1,5.633612,6.238338,4.828264,-1.47930
1.108,1,1,5.633612,6.244884,4.829351,-1.47896
1.109,1,1,5.633612,6.251404,4.830524,-1.47972
1.110,1,1,5.627645,6.257925,4.831727,-1.48033
1.111,1,1,5.616915,6.264445,4.832952,-1.48400
1.112,1,1,5.610579,6.270857,4.834125,-1.48072
1.113,1,1,5.607751,6.277150,4.835254,-1.47813
1.114,1,1,5.606372,6.283442,4.836337,-1.47781
1.115,1,1,5.606150,6.289735,4.837382,-1.47950
1.116,1,1,5.606051,6.295495,4.837846,-1.47971
1.117,1,1,5.606051,6.300664,4.837846,-1.47884
1.118,1,1,5.606051,6.305833,4.837846,-1.47950
1.119,1,1,5.606051,6.311002,4.837846,-1.47949
1.120,1,1,5.606175,6.315726,4.837846,-1.47766
1.121,1,1,5.606397,6.319957,4.837846,-1.48103
1.122,1,1,5.608068,6.324188,4.837846,-1.47941
1.123,1,1,5.610896,6.328419,4.837846,-1.48008
1.124,1,1,5.621279,6.332258,4.837320,-1.48131
1.125,1,1,5.637696,6.335661,4.836374,-1.47856
1.126,1,1,5.663003,6.339065,4.834340,-1.48059
1.127,1,1,5.695409,6.342469,4.831436,-1.47915
1.128,1,1,5.709797,6.345245,4.828204,-1.47980
1.129,1,1,5.709797,6.347327,4.824710,-1.47885
1.130,1,1,5.709797,6.349408,4.821190,-1.47816
1.131,1,1,5.709797,6.351490,4.817650,-1.47950
1.132,1,1,5.709797,6.353316,4.814352,-1.47974
1.133,1,1,5.709797,6.354858,4.811245,-1.47993
1.134,1,1,5.709797,6.356401,3.472723,-1.47853
1.135,1,1,5.709797,6.357944,1.067790,-1.47936
1.136,1,0,4.122473,6.358942,0.000000,-1.47900
1.137,0,0,1.267575,6.359336,0.000000,-1.47980
1.138,0,0,0.000000,6.359730,0.000000,-1.47760
1.139,0,0,0.000000,6.360124,0.000000,-1.48058
1.140,0,0,0.000000,6.360806,0.000000,-1.47905
1.141,0,0,0.000000,6.361808,0.000000,-1.48171
1.142,0,0,0.000000,6.362810,0.000000,-1.47817
1.143,0,0,0.000000,6.363811,0.000000,-1.47818
1.144,0,0,0.000000,6.364440,0.000000,-1.47863
1.145,0,0,0.000000,6.364656,0.000000,-1.47793
1.146,0,0,0.000000,6.364872,0.000000,-1.48019
1.147,0,0,0.000000,6.365089,0.000000,-1.48027
1.148,0,0,0.000000,6.364790,0.000000,-1.47899
1.149,0,0,0.000000,6.363921,0.000000,-1.48017
1.150,0,0,0.000000,6.363051,0.000000,-1.47853
1.151,0,0,0.000000,6.362182,0.000000,-1.47935
1.152,0,0,0.000000,6.361349,0.000000,-1.48095
1.153,0,0,0.000000,6.360556,0.000000,-1.47795
1.154,0,0,0.000000,6.359763,0.000000,-1.47894
1.155,0,0,0.000000,6.358970,0.000000,-1.48001
1.156,0,0,0.000000,6.357921,0.000000,-1.47892
1.157,0,0,0.000000,6.356587,0.000000,-1.47885
1.158,0,0,0.000000,6.355253,0.000000,-1.47894
1.159,0,0,0.000000,6.353920,0.000000,-1.47818
1.160,0,0,0.000000,6.352649,0.000000,-1.47717
1.161,0,0,0.000000,6.351449,0.000000,-1.47732
1.162,0,0,0.000000,6.350248,0.000000,-1.47956
1.163,0,0,0.000000,6.349047,0.000000,-1.47827
1.164,0,0,0.000000,6.347803,0.000000,-1.47953
1.165,0,0,0.000000,6.346510,0.000000,-1.47764
1.166,0,0,0.000000,6.345218,0.000000,-1.48002
1.167,0,0,0.000000,6.343925,0.000000,-1.47863
1.168,0,0,0.000000,6.342446,0.000000,-1.47929
1.169,0,0,0.000000,6.340762,0.000000,-1.47923
1.170,0,0,0.000000,6.339077,0.000000,-1.47891
1.171,0,0,0.000000,6.337392,0.000000,-1.47714
1.172,0,0,0.000000,6.335410,0.000000,-1.47757
1.173,0,0,0.000000,6.333097,0.000000,-1.47812
1.174,0,0,0.000000,6.330783,0.000000,-1.47878
1.175,0,0,0.000000,6.328470,0.000000,-1.47862
1.176,0,0,0.000000,6.325907,0.000000,-1.47958
1.177,0,0,0.000000,6.323068,0.000000,-1.47889
1.178,0,0,0.000000,6.320228,0.000000,-1.47728
1.179,0,0,0.000000,6.317389,0.000000,-1.47983
1.180,0,0,0.000000,6.314268,0.000000,-1.47905
1.181,0,0,0.000000,6.310835,0.000000,-1.47814
1.182,0,0,0.000000,6.307402,0.000000,-1.47968
1.183,0,0,0.000000,6.303968,0.000000,-1.47916
1.184,0,0,0.000000,6.301333,0.000000,-1.48013
1.185,0,0,0.000000,6.299582,0.000000,-1.47756
1.186,0,0,0.000000,6.297832,0.000000,-1.47769
1.187,0,0,0.000000,6.296082,0.000000,-1.47930
1.188,0,0,0.000000,6.294453,0.000000,-1.47882
1.189,0,0,0.000000,6.292958,0.000000,-1.47871
1.190,0,0,0.000000,6.291463,0.000000,-1.47935
1.191,0,0,0.000000,6.289968,0.000000,-1.48093
1.192,0,0,0.000000,6.288566,0.000000,-1.47839
1.193,0,0,0.000000,6.287266,0.000000,-1.48012
1.194,0,0,0.000000,6.285966,0.000000,-1.47977
1.195,0,0,0.000000,6.284666,0.000000,-1.47930
1.196,0,0,0.000000,6.282670,0.000000,-1.48064
1.197,0,0,0.000000,6.279902,0.000000,-1.47924
1.198,0,0,0.000000,6.277133,0.000000,-1.47967
1.199,0,0,0.000000,6.274364,0.000000,-1.47978
1.200,0,0,0.000000,6.270539,0.000000,-1.47900
1.201,0,0,0.000000,6.265542,0.000000,-1.47888
1.202,0,0,0.000000,6.260545,0.000000,-1.47939
1.203,0,0,0.000000,6.255548,0.000000,-1.48113
1.204,0,0,0.000000,6.250543,0.000000,-1.47848
1.205,0,0,0.000000,6.245527,0.000000,-1.47691
1.206,0,0,0.000000,6.240512,0.000000,-1.47895
1.207,0,0,0.000000,6.235497,0.000000,-1.47921
1.208,0,0,0.000000,6.230881,0.000000,-1.47933
1.209,0,0,0.000000,6.226708,0.000000,-1.47798
1.210,0,0,0.000000,6.222536,0.000000,-1.47824
1.211,0,0,0.000000,6.218363,0.000000,-1.47866
1.212,0,0,0.000000,6.213475,0.000000,-1.47894
1.213,0,0,0.000000,6.207794,0.000000,-1.47866
1.214,0,0,0.000000,6.202113,0.000000,-1.47590
1.215,0,0,0.000000,6.196431,0.000000,-1.47913
1.216,0,0,0.000000,6.190964,0.000000,-1.47828
1.217,0,0,0.000000,6.185735,0.000000,-1.47932
1.218,0,0,0.000000,6.180507,0.000000,-1.48003
1.219,0,0,0.000000,6.175278,0.000000,-1.47889
1.220,0,0,0.000000,6.169202,0.000000,-1.47928
1.221,0,0,0.000000,6.162187,0.000000,-1.47994
1.222,0,0,0.000000,6.155172,0.000000,-1.47822
1.223,0,0,0.000000,6.148157,0.000000,-1.47866
1.224,0,0,0.000000,6.140542,0.000000,-1.47949
1.225,0,0,0.000000,6.132259,0.000000,-1.47911
1.226,0,0,0.000000,6.123977,0.000000,-1.48004
1.227,0,0,0.000000,6.115695,0.000000,-1.47821
1.228,0,0,0.000000,6.106946,0.000000,-1.47938
1.229,0,0,0.000000,6.097677,0.000000,-1.48120
1.230,0,0,0.000000,6.088408,0.000000,-1.47823
1.231,0,0,0.000000,6.079139,0.000000,-1.47999
1.232,0,0,0.000000,6.070141,0.000000,-1.47773
1.233,0,0,0.000000,6.061444,0.000000,-1.47949
1.234,0,0,0.000000,6.052746,0.000000,-1.47982
1.235,0,0,0.000000,6.044048,0.000000,-1.47928
1.236,0,0,0.000000,6.036503,0.000000,-1.47875
1.237,0,0,0.000000,6.030236,0.000000,-1.47644
1.238,0,0,0.000000,6.023969,0.000000,-1.48558
1.239,0,0,0.000000,6.017703,0.000000,-1.48102
1.240,0,0,0.000000,6.011674,0.000000,-1.48238
1.241,0,0,0.000000,6.005910,0.000000,-1.47794
1.242,0,0,0.000000,6.000146,0.000000,-1.47756
1.243,0,0,0.000000,5.994382,0.000000,-1.47965
1.244,0,0,0.000000,5.989027,0.000000,-1.48019
1.245,0,0,0.000000,5.984125,0.000000,-1.47878
1.246,0,0,0.000000,5.979224,0.000000,-1.47862
1.247,0,0,0.000000,5.974322,0.000000,-1.47838
1.248,0,0,0.000000,5.970233,0.000000,-1.47659
1.249,0,0,0.000000,5.967045,0.000000,-1.47838
1.250,0,0,0.000000,5.963858,0.000000,-1.47877
1.251,0,0,0.000000,5.960670,0.000000,-1.47771
1.252,0,0,0.000000,5.957865,0.000000,-1.47788
1.253,0,0,0.000000,5.955484,0.000000,-1.47844
1.254,0,0,0.000000,5.953103,0.000000,-1.48048
1.255,0,0,0.000000,5.950722,0.000000,-1.47812
1.256,0,0,0.000000,5.948981,0.000000,-1.47948
1.257,0,0,0.000000,5.947949,0.000000,-1.48135
1.258,0,0,0.000000,5.946918,0.000000,-1.47772
1.259,0,0,0.000000,5.945886,0.000000,-1.47921
1.260,0,0,0.000000,5.945542,0.000000,-1.47890
1.261,0,0,0.000000,5.945961,0.000000,-1.47787
1.262,0,0,0.000000,5.946379,0.000000,-1.47844
1.263,0,0,0.000000,5.946798,0.000000,-1.47773
1.264,0,0,0.000000,5.947487,0.000000,-1.47812
1.265,0,0,0.000000,5.948475,0.000000,-1.47806
1.266,0,0,0.000000,5.949464,0.000000,-1.47892
1.267,0,0,0.000000,5.950452,0.000000,-1.47915
1.268,0,0,0.000000,5.952019,0.000000,-1.47812
1.269,0,0,0.000000,5.954229,0.000000,-1.47752
1.270,0,0,0.000000,5.956438,0.000000,-1.48287
1.271,0,0,0.000000,5.958648,0.000000,-1.47812
1.272,0,0,0.000000,5.961066,0.000000,-1.47903
1.273,0,0,0.000000,5.963715,0.000000,-1.47903
1.274,1,0,1.840410,5.966364,0.000000,-1.47891
1.275,1,0,5.150500,5.969014,0.000000,-1.47883
1.276,1,0,6.621878,5.971596,0.000000,-1.48005
1.277,1,0,6.624931,5.974104,0.000000,-1.47845
1.278,1,0,6.626741,5.976613,0.000000,-1.47845
1.279,1,0,6.627559,5.979121,0.000000,-1.47896
1.280,1,0,6.628348,5.981791,0.000000,-1.47954
1.281,1,0,6.629116,5.984642,0.000000,-1.47797
1.282,1,0,6.632027,5.987493,0.000000,-1.47897
1.283,1,0,6.636651,5.990344,0.000000,-1.47969
1.284,1,0,6.649732,5.993192,0.000000,-1.47683
1.285,1,0,6.669568,5.996038,0.000000,-1.47992
1.286,1,0,6.694805,5.998885,0.000000,-1.47841
1.287,1,0,6.724354,6.001730,0.000000,-1.47916
1.288,1,0,6.754413,6.004486,0.000000,-1.47906
1.289,1,0,6.784878,6.007141,0.000000,-1.48174
1.290,1,0,6.808817,6.009795,0.000000,-1.47874
1.291,1,0,6.827544,6.012450,0.000000,-1.48001
1.292,1,0,6.836170,6.014865,0.000000,-1.47825
1.293,1,0,6.836731,6.017015,0.000000,-1.47983
1.294,1,0,6.836980,6.019164,0.000000,-1.47785
1.295,1,0,6.836980,6.021314,0.000000,-1.47820
1.296,1,0,6.836980,6.023260,0.000000,-1.47971
1.297,1,0,6.836980,6.024980,0.000000,-1.47946
1.298,1,0,6.836980,6.026700,0.000000,-1.48015
1.299,1,0,6.836980,6.028419,0.000000,-1.47779
1.300,1,0,6.836668,6.030887,1.315778,-1.48166
1.301,1,0,6.836107,6.034183,3.682284,-1.47758
1.302,1,1,6.835745,6.037479,4.733013,-1.47802
1.303,1,1,6.835542,6.040775,4.733013,-1.48102
1.304,1,1,6.835211,6.044392,4.733173,-1.47839
1.305,1,1,6.834779,6.048364,4.733461,-1.47858
1.306,1,1,6.834282,6.052337,4.733643,-1.47893
1.307,1,1,6.833733,6.056310,4.733739,-1.47992
1.308,1,1,6.832812,6.059828,4.733988,-1.48044
1.309,1,1,6.831593,6.062843,4.734359,-1.47868
1.310,1,1,6.830419,6.065857,4.734524,-1.48018
1.311,1,1,6.829281,6.068872,4.734524,-1.48051
1.312,1,1,6.828768,6.071956,4.734524,-1.47815
1.313,1,1,6.828755,6.075118,4.734524,-1.47999
1.314,1,1,6.828725,6.078280,4.734524,-1.48007
1.315,1,1,6.828681,6.081442,4.734524,-1.48002
1.316,1,1,6.828567,6.084444,4.734750,-1.47929
1.317,1,1,6.828398,6.087268,4.735156,-1.48011
1.318,1,1,6.828219,6.090092,4.735515,-1.47986
1.319,1,1,6.828033,6.092916,4.735837,-1.48384
1.320,1,1,6.827648,6.095767,4.736124,-1.47905
1.321,1,1,6.827103,6.098648,4.736385,-1.47981
1.322,1,1,6.826502,6.101528,4.736620,-1.47669
1.323,1,1,6.825856,6.104409,4.736836,-1.47977
1.324,1,1,6.825192,6.107564,4.737034,-1.47906
1.325,1,1,6.824515,6.111024,4.737217,-1.47889
1.326,1,1,6.823842,6.114485,4.737393,-1.47859
1.327,1,1,6.823172,6.117945,4.737564,-1.47850
1.328,1,1,6.822491,6.121490,4.737749,-1.47905
1.329,1,1,6.821801,6.125131,4.737946,-1.47783
1.330,1,1,6.820954,6.128770,4.738229,-1.47510
1.331,1,1,6.819981,6.132411,4.738583,-1.47625
1.332,1,1,6.818754,6.135675,4.739093,-1.47531
1.333,1,1,6.817325,6.138523,4.739730,-1.47817
1.334,1,1,6.815951,6.141371,4.740521,-1.47870
1.335,1,1,6.814620,6.144219,4.741436,-1.47895
1.336,1,1,6.813657,6.145648,4.742475,-1.47853
1.337,1,1,6.812989,6.145501,4.743612,-1.47426
1.338,1,1,6.812520,6.145354,4.744807,-1.47911
1.339,1,1,6.812209,6.145208,4.746047,-1.47673
1.340,1,1,6.811861,6.145002,4.747293,-1.48002
1.341,1,1,6.811483,6.144730,4.748544,-1.47889
1.342,1,1,6.811155,6.144458,4.749865,-1.47912
1.343,1,1,6.810865,6.144186,4.751242,-1.47875
1.344,1,1,6.810709,6.144301,4.752751,-1.47900
1.345,1,1,6.810661,6.144847,4.754364,-1.47839
1.346,1,1,6.810406,6.145394,4.756019,-1.47947
1.347,1,1,6.809987,6.145940,4.757705,-1.47996
1.348,1,1,6.809062,6.146706,4.759333,-1.48077
1.349,1,1,6.807734,6.147715,4.760916,-1.47961
1.350,1,1,6.806319,6.148724,4.762514,-1.47580
1.351,1,1,6.804835,6.149733,4.764123,-1.47832
1.352,1,1,6.803701,6.150503,4.765829,-1.47858
1.353,1,1,6.802848,6.151006,4.767612,-1.47892
1.354,1,1,6.801943,6.151510,4.769396,-1.47880
1.355,1,1,6.800999,6.152014,4.771179,-1.47849
1.356,1,1,6.799543,6.152315,4.772837,-1.48082
1.357,1,1,6.797679,6.152392,4.774395,-1.48043
1.358,1,1,6.795648,6.152469,4.775805,-1.47832
1.359,1,1,6.793483,6.152545,4.777096,-1.47864
1.360,1,1,6.792521,6.152506,4.778247,-1.47803
1.361,1,1,6.792521,6.152338,4.779288,-1.47905
1.362,1,1,6.792521,6.152169,4.779750,-1.47982
1.363,1,1,6.792521,6.152001,4.779750,-1.47764
1.364,1,1,6.792521,6.151866,4.779750,-1.47800
1.365,1,1,6.792521,6.151768,4.779750,-1.47785
1.366,1,1,6.792521,6.151670,4.779750,-1.47905
1.367,1,1,6.792521,6.151572,4.779750,-1.47826
1.368,1,1,6.792604,6.152295,4.779750,-1.47722
1.369,1,1,6.792752,6.153929,4.779750,-1.47888
1.370,1,1,6.793882,6.155564,4.779224,-1.47960
1.371,1,1,6.795796,6.157198,4.778279,-1.47901
1.372,1,1,6.797442,6.160210,4.776496,-1.47778
1.373,1,1,6.798873,6.164750,4.774045,-1.47849
1.374,1,1,6.800460,6.169289,4.771303,-1.47767
1.375,1,1,6.802174,6.173829,4.768331,-1.47707
1.376,1,1,6.804470,6.177956,4.765181,-1.47838
1.377,1,1,6.807233,6.181625,4.761889,-1.47795
1.378,1,1,6.809719,6.185293,4.758438,-1.47938
1.379,1,1,6.811985,6.188962,4.754860,-1.47989
1.380,1,1,6.812990,6.192520,4.751129,-1.47860
1.381,1,1,6.812990,6.195954,4.747275,-1.47927
1.382,1,1,6.812990,6.199389,3.426297,-1.47550
1.383,1,1,6.812990,6.202823,1.053515,-1.47793
1.384,1,0,6.812990,6.206068,0.000000,-1.47982
1.385,1,0,6.812990,6.209102,0.000000,-1.47988
1.386,1,0,6.812990,6.212135,0.000000,-1.47779
1.387,1,0,6.812990,6.215169,0.000000,-1.47920
1.388,1,0,6.812039,6.218154,0.000000,-1.47967
1.389,1,0,6.810328,6.221085,0.000000,-1.47921
1.390,1,0,6.808837,6.224016,0.000000,-1.47923
1.391,1,0,6.807522,6.226947,0.000000,-1.47936
1.392,1,0,6.806658,6.229819,0.000000,-1.47957
1.393,1,0,6.806153,6.232627,0.000000,-1.48049
1.394,1,0,6.805782,6.235434,0.000000,-1.47900
1.395,1,0,6.805517,6.238242,0.000000,-1.47856
1.396,1,0,6.805007,6.240778,0.000000,-1.47706
1.397,1,0,6.804302,6.243015,0.000000,-1.47778
1.398,1,0,6.803405,6.245252,0.000000,-1.47913
1.399,1,0,6.802354,6.247489,0.000000,-1.47926
1.400,1,0,6.801279,6.249773,0.000000,-1.47910
1.401,1,0,6.800184,6.252110,0.000000,-1.47982
1.402,1,0,6.799208,6.254447,0.000000,-1.48013
1.403,1,0,6.798325,6.256785,0.000000,-1.47903
1.404,1,0,6.797658,6.258898,0.000000,-1.48024
1.405,1,0,6.797165,6.260762,0.000000,-1.48335
1.406,1,0,6.796829,6.262626,0.000000,-1.47999
1.407,1,0,6.796618,6.264491,0.000000,-1.47943
1.408,1,0,6.796418,6.265818,0.000000,-1.47941
1.409,1,0,6.796227,6.266550,0.000000,-1.47827
1.410,1,0,6.795715,6.267281,0.000000,-1.48030
1.411,1,0,6.794946,6.268013,0.000000,-1.47857
1.412,1,0,6.793583,6.268786,0.000000,-1.47894
1.413,1,0,6.791747,6.269606,0.000000,-1.47681
1.414,1,0,6.789553,6.270426,0.000000,-1.47996
1.415,1,0,6.787073,6.271246,0.000000,-1.47736
1.416,1,0,6.784596,6.272131,0.000000,-1.47769
1.417,1,0,6.782122,6.273091,0.000000,-1.47794
1.418,1,0,6.779928,6.274050,0.000000,-1.47763
1.419,1,0,6.777959,6.275009,0.000000,-1.47913
1.420,1,0,6.776410,6.275646,0.000000,-1.47668
1.421,1,0,6.775194,6.275925,0.000000,-1.47864
1.422,1,0,6.774011,6.276205,0.000000,-1.47947
1.423,1,0,6.772854,6.276484,0.000000,-1.48044
1.424,1,0,6.771328,6.276911,0.000000,-1.47958
1.425,1,0,6.769507,6.277500,0.000000,-1.47860
1.426,1,0,6.767516,6.278089,0.000000,-1.47936
1.427,1,0,6.765387,6.278678,0.000000,-1.47901
1.428,1,0,6.763433,6.279272,0.000000,-1.47737
1.429,1,0,6.761620,6.279869,0.000000,-1.47756
1.430,1,0,6.760312,6.280466,0.000000,-1.47890
1.431,1,0,6.759407,6.281063,0.000000,-1.47984
1.432,1,0,6.758928,6.281741,0.000000,-1.47812
1.433,1,0,6.758788,6.282508,0.000000,-1.47903
1.434,1,0,6.758688,6.283275,0.000000,-1.47789
1.435,1,0,6.758619,6.284042,0.000000,-1.47573
1.436,1,0,6.758566,6.284535,0.000000,-1.47860
1.437,1,0,6.758526,6.284725,0.000000,-1.47764
1.438,1,0,6.758261,6.284914,0.000000,-1.47820
1.439,1,0,6.757817,6.285104,0.000000,-1.47715
1.440,1,0,6.757485,6.284930,0.000000,-1.47721
1.441,1,0,6.757243,6.284351,0.000000,-1.47935
1.442,1,0,6.756972,6.283772,0.000000,-1.47814
1.443,1,0,6.756679,6.283194,0.000000,-1.47964
1.444,1,0,6.756159,6.282664,0.000000,-1.47746
1.445,1,0,6.755458,6.282187,0.000000,-1.47708
1.446,1,0,6.754533,6.281709,0.000000,-1.47875
1.447,1,0,6.753428,6.281232,0.000000,-1.47728
1.448,1,0,6.752147,6.280534,0.000000,-1.47805
1.449,1,0,6.750723,6.279590,0.000000,-1.47692
1.450,1,0,6.749115,6.278646,0.000000,-1.47783
1.451,1,0,6.747359,6.277702,0.000000,-1.47973
1.452,1,0,6.745445,6.276116,0.000000,-1.47835
1.453,1,0,6.743406,6.273819,0.000000,-1.47905
1.454,1,0,6.741469,6.271522,0.000000,-1.47826
1.455,1,0,6.739614,6.269225,0.000000,-1.47876
1.456,1,0,6.738110,6.267162,0.000000,-1.47748
1.457,1,0,6.736884,6.265359,0.000000,-1.47950
1.458,1,0,6.736340,6.263557,0.000000,-1.47960
1.459,1,0,6.736340,6.261754,0.000000,-1.47921
1.460,1,0,6.736340,6.259540,0.000000,-1.47526
1.461,1,0,6.736340,6.256869,0.000000,-1.47853
1.462,1,0,6.736340,6.254198,0.000000,-1.48048
1.463,1,0,6.736340,6.251526,0.000000,-1.47908
1.464,1,0,6.736340,6.249131,0.000000,-1.47847
1.465,1,0,6.736340,6.247041,0.000000,-1.47848
1.466,1,0,6.736745,6.244951,0.000000,-1.47953
1.467,1,0,6.737473,6.242861,0.000000,-1.47856
1.468,1,0,6.738437,6.240811,0.000000,-1.47864
1.469,1,0,6.739587,6.238804,0.000000,-1.47841
1.470,1,0,6.740629,6.236797,0.000000,-1.47966
1.471,1,0,6.741583,6.234790,0.000000,-1.47794
1.472,1,0,6.742467,6.232804,0.000000,-1.47706
1.473,1,0,6.743294,6.230842,0.000000,-1.47952
1.474,1,0,6.744063,6.228879,0.000000,-1.47913
1.475,1,0,6.744784,6.226917,0.000000,-1.48179
1.476,1,0,6.745105,6.225175,0.000000,-1.47916
1.477,1,0,6.745105,6.223676,0.000000,-1.48076
1.478,1,0,6.745105,6.222178,0.000000,-1.47902
1.479,1,0,6.745105,6.220678,0.000000,-1.47875
1.480,1,0,6.745105,6.219365,0.000000,-1.48007
1.481,1,0,6.745105,6.218256,0.000000,-1.47949
1.482,1,0,6.745105,6.217147,0.000000,-1.47857
1.483,1,0,6.745105,6.216038,0.000000,-1.47943
1.484,1,0,6.745088,6.215047,0.000000,-1.47903
1.485,1,0,6.745057,6.214187,0.000000,-1.47897
1.486,1,0,6.745035,6.213326,0.000000,-1.47878
1.487,1,0,6.745021,6.212466,0.000000,-1.47554
1.488,1,0,6.745006,6.212079,0.000000,-1.47833
1.489,1,0,6.744990,6.212218,0.000000,-1.48004
1.490,1,0,6.744984,6.212358,0.000000,-1.47895
1.491,1,0,6.744984,6.212497,0.000000,-1.47961
1.492,1,0,6.744984,6.212465,0.000000,-1.47867
1.493,1,0,6.744984,6.212244,0.000000,-1.47742
1.494,1,0,6.744984,6.212023,0.000000,-1.47811
1.495,1,0,6.744984,6.211802,0.000000,-1.47958
1.496,1,0,6.744992,6.211469,0.000000,-1.48248
1.497,1,0,6.745008,6.211013,0.000000,-1.48055
1.498,1,0,6.745051,6.210557,0.000000,-1.47921
1.499,1,0,6.745118,6.210100,0.000000,-1.47909
1.500,1,0,6.745344,6.209388,0.000000,-1.47891
1.501,1,0,6.745698,6.208392,0.000000,-1.47910
1.502,1,0,6.746151,6.207397,0.000000,-1.47962
1.503,1,0,6.746681,6.206401,0.000000,-1.48075
1.504,1,0,6.747336,6.204986,0.000000,-1.47791
1.505,1,0,6.748091,6.203105,0.000000,-1.47916
1.506,1,0,6.748930,6.201224,0.000000,-1.47928
1.507,1,0,6.749836,6.199344,0.000000,-1.47913
1.508,1,0,6.750766,6.197430,0.000000,-1.47810
1.509,1,0,6.751714,6.195478,0.000000,-1.47955
1.510,1,0,6.752618,6.193528,0.000000,-1.47820
1.511,1,0,6.753488,6.191576,0.000000,-1.47654
1.512,1,0,6.754274,6.189385,0.000000,-1.47860
1.513,1,0,6.754994,6.186928,0.000000,-1.47815
1.514,1,0,6.755725,6.184470,0.000000,-1.47901
1.515,1,0,6.756465,6.182012,0.000000,-1.47701
1.516,1,0,6.757301,6.179410,0.000000,-1.47812
1.517,1,0,6.758213,6.176647,0.000000,-1.47711
1.518,1,0,6.759092,6.173883,0.000000,-1.47812
1.519,1,0,6.759944,6.171120,0.000000,-1.47956
1.520,1,0,6.760620,6.168336,0.000000,-1.47891
1.521,1,0,6.761157,6.165529,0.000000,-1.48232
1.522,1,0,6.761591,6.162722,0.000000,-1.47812
1.523,1,0,6.761944,6.159914,0.000000,-1.47770
1.524,1,0,6.762313,6.156924,0.000000,-1.47849
1.525,1,0,6.762694,6.153729,0.000000,-1.47750
1.526,1,0,6.763131,6.150535,0.000000,-1.47811
1.527,1,0,6.763611,6.147341,0.000000,-1.47841
1.528,1,0,6.764176,6.143825,0.000000,-1.47740
1.529,1,0,6.764808,6.139951,0.000000,-1.47900
1.530,1,0,6.765601,6.136078,0.000000,-1.47798
1.531,1,0,6.766522,6.132205,0.000000,-1.48107
1.532,1,0,6.767636,6.128586,0.000000,-1.47769
1.533,1,0,6.768903,6.125250,0.000000,-1.47803
1.534,1,0,6.770116,6.121915,0.000000,-1.47450
1.535,1,0,6.771286,6.118579,0.000000,-1.47909
1.536,1,0,6.772163,6.115255,0.000000,-1.47933
1.537,1,0,6.772807,6.111942,0.000000,-1.47858
1.538,1,0,6.773300,6.108630,0.000000,-1.47744
1.539,1,0,6.773674,6.105318,0.000000,-1.47808
1.540,1,0,6.774098,6.102362,0.000000,-1.48026
1.541,1,0,6.774563,6.099801,0.000000,-1.48074
1.542,1,0,6.774851,6.097240,0.000000,-1.47767
1.543,1,0,6.775000,6.094680,0.000000,-1.47842
1.544,1,0,6.775065,6.092210,0.000000,-1.47668
1.545,1,0,6.775065,6.089839,0.000000,-1.47829
1.546,1,0,6.775126,6.087469,0.000000,-1.48104
1.547,1,0,6.775237,6.085098,0.000000,-1.47709
1.548,1,0,6.775389,6.082560,0.000000,-1.47925
1.549,1,0,6.775575,6.079835,0.000000,-1.47743
1.550,1,0,6.775685,6.077111,0.000000,-1.47819
1.551,1,0,6.775734,6.074386,0.000000,-1.47822
1.552,1,0,6.775755,6.071505,0.000000,-1.47984
1.553,1,0,6.775755,6.068450,0.000000,-1.47851
1.554,1,0,6.775728,6.065395,0.000000,-1.48538
1.555,1,0,6.775679,6.062340,0.000000,-1.47944
1.556,1,0,6.775554,6.059603,0.000000,-1.47932
1.557,1,0,6.775368,6.057217,0.000000,-1.47916
1.558,1,0,6.775246,6.054832,0.000000,-1.47711
1.559,1,0,6.775173,6.052446,0.000000,-1.47769
1.560,1,0,6.775141,6.050170,0.000000,-1.48090
1.561,1,0,6.775141,6.048016,0.000000,-1.47906
1.562,1,0,6.775141,6.045862,0.000000,-1.48033
1.563,1,0,6.775141,6.043707,0.000000,-1.48097
1.564,1,0,6.774817,6.041864,0.000000,-1.48131
1.565,1,0,6.774233,6.040365,0.000000,-1.47844
1.566,1,0,6.773973,6.038867,0.000000,-1.47706
1.567,1,0,6.773973,6.037367,0.000000,-1.48034
1.568,1,0,6.773973,6.035962,0.000000,-1.47910
1.569,1,0,6.773973,6.034659,0.000000,-1.47879
1.570,1,0,6.773973,6.033357,0.000000,-1.47856
1.571,1,0,6.773973,6.032054,0.000000,-1.47953
1.572,1,0,6.773973,6.030819,0.000000,-1.47898
1.573,1,0,6.773973,6.029659,0.000000,-1.47957
1.574,1,0,6.774122,6.028499,0.000000,-1.47810
1.575,1,0,6.774389,6.027339,0.000000,-1.47979
1.576,1,0,6.774922,6.026317,0.000000,-1.47842
1.577,1,0,6.775668,6.025448,0.000000,-1.47910
1.578,1,0,6.776373,6.024578,0.000000,-1.47753
1.579,1,0,6.777047,6.023709,0.000000,-1.47880
1.580,1,0,6.777346,6.022909,0.000000,-1.47806
1.581,1,0,6.777346,6.022185,0.000000,-1.47946
1.582,1,0,6.777346,6.021461,0.000000,-1.47875
1.583,1,0,6.777346,6.020737,0.000000,-1.47975
1.584,1,0,6.777346,6.020484,0.000000,-1.47977
1.585,1,0,6.777346,6.020754,0.000000,-1.47990
1.586,1,0,6.777346,6.021024,0.000000,-1.47896
1.587,1,0,6.777346,6.021294,0.000000,-1.47909
1.588,1,0,4.893244,6.022122,0.000000,-1.48506
1.589,0,0,1.504571,6.023570,0.000000,-1.47939
1.590,0,0,0.000000,6.025019,0.000000,-1.47878
1.591,0,0,0.000000,6.026467,0.000000,-1.47912
1.592,0,0,0.000000,6.028200,0.000000,-1.48082
1.593,0,0,0.000000,6.030250,0.000000,-1.47839
1.594,0,0,0.000000,6.032300,0.000000,-1.47844
1.595,0,0,0.000000,6.034349,0.000000,-1.47936
1.596,0,0,0.000000,6.036669,0.000000,-1.47851
1.597,0,0,0.000000,6.039290,0.000000,-1.48005
1.598,0,0,0.000000,6.041912,0.000000,-1.47898
1.599,0,0,0.000000,6.044533,0.000000,-1.47982
1.600,0,0,0.000000,6.047146,0.000000,-1.47812
1.601,0,0,0.000000,6.049751,0.000000,-1.47770
1.602,0,0,0.000000,6.052356,0.000000,-1.47725
1.603,0,0,0.000000,6.054961,0.000000,-1.47929
1.604,0,0,0.000000,6.057905,0.000000,-1.47967
1.605,0,0,0.000000,6.061225,0.000000,-1.47858
1.606,0,0,0.000000,6.064544,0.000000,-1.47275
1.607,0,0,0.000000,6.067864,0.000000,-1.47869
1.608,0,0,0.000000,6.070922,0.000000,-1.47712
1.609,0,0,0.000000,6.073691,0.000000,-1.47816
1.610,0,0,0.000000,6.076460,0.000000,-1.47808
1.611,0,0,0.000000,6.079228,0.000000,-1.47872
1.612,0,0,0.000000,6.081763,0.000000,-1.47843
1.613,0,0,0.000000,6.084039,0.000000,-1.47891
1.614,0,0,0.000000,6.086314,0.000000,-1.47805
1.615,0,0,0.000000,6.088589,0.000000,-1.47664
1.616,0,0,0.000000,6.090470,0.000000,-1.47947
1.617,0,0,0.000000,6.091915,0.000000,-1.47844
1.618,0,0,0.000000,6.093359,0.000000,-1.47972
1.619,0,0,0.000000,6.094802,0.000000,-1.47958
1.620,0,0,0.000000,6.096104,0.000000,-1.47875
1.621,0,0,0.000000,6.097246,0.000000,-1.47729
1.622,0,0,0.000000,6.098388,0.000000,-1.47788
1.623,0,0,0.000000,6.099531,0.000000,-1.47776
1.624,0,0,0.000000,6.100158,0.000000,-1.48174
1.625,0,0,0.000000,6.100214,0.000000,-1.47793
1.626,0,0,0.000000,6.100271,0.000000,-1.47735
1.627,0,0,0.000000,6.100327,0.000000,-1.47883
1.628,0,0,0.000000,6.099732,0.000000,-1.47883
1.629,0,0,0.000000,6.098414,0.000000,-1.47764
1.630,0,0,0.000000,6.097096,0.000000,-1.47830
1.631,0,0,0.000000,6.095779,0.000000,-1.47924
1.632,0,0,0.000000,6.094458,0.000000,-1.47911
1.633,0,0,0.000000,6.093133,0.000000,-1.47497
1.634,0,0,0.000000,6.091809,0.000000,-1.47807
1.635,0,0,0.000000,6.090485,0.000000,-1.48000
1.636,0,0,0.000000,6.089387,0.000000,-1.47853
1.637,0,0,0.000000,6.088542,0.000000,-1.48263
1.638,0,0,0.000000,6.087697,0.000000,-1.48024
1.639,0,0,0.000000,6.086851,0.000000,-1.47990
1.640,0,0,0.000000,6.085627,1.318698,-1.47954
1.641,0,1,0.000000,6.083983,3.690458,-1.48179
1.642,0,1,0.000000,6.082340,4.744248,-1.47886
1.643,0,1,0.000000,6.080696,4.745560,-1.48040
1.644,0,1,0.000000,6.079342,4.747054,-1.47944
1.645,0,1,0.000000,6.078312,4.748694,-1.47902
1.646,0,1,0.000000,6.077281,4.750426,-1.48033
1.647,0,1,0.000000,6.076251,4.752233,-1.47765
1.648,0,1,0.000000,6.075591,4.754017,-1.47753
1.649,0,1,0.000000,6.075344,4.755784,-1.47853
1.650,0,1,0.000000,6.075096,4.757510,-1.47901
1.651,0,1,0.000000,6.074848,4.759205,-1.47979
1.652,0,1,0.000000,6.074985,4.760884,-1.47618
1.653,0,1,0.000000,6.075548,4.762550,-1.47957
1.654,0,1,0.000000,6.076110,4.764295,-1.47936
1.655,0,1,0.000000,6.076673,4.766103,-1.47881
1.656,0,1,0.000000,6.077255,4.768064,-1.47936
1.657,0,1,0.000000,6.077857,4.770146,-1.47883
1.658,0,1,0.000000,6.078459,4.772271,-1.47929
1.659,0,1,0.000000,6.079061,4.774429,-1.48026
1.660,0,1,0.000000,6.080224,4.776511,-1.48162
1.661,0,1,0.000000,6.082008,4.778533,-1.47884
1.662,0,1,0.000000,6.083793,4.780566,-1.47905
1.663,0,1,0.000000,6.085577,4.782607,-1.47972
1.664,0,1,0.000000,6.088062,4.784759,-1.47877
1.665,0,1,0.000000,6.091324,4.786998,-1.47945
1.666,0,1,0.000000,6.094586,4.789242,-1.47898
1.667,0,1,0.000000,6.097848,4.791489,-1.47879
1.668,0,1,0.000000,6.101000,4.793626,-1.47933
1.669,0,1,0.000000,6.104030,4.795674,-1.47800
1.670,0,1,0.000000,6.107060,4.797716,-1.48019
1.671,0,1,0.000000,6.110090,4.799752,-1.48223
1.672,0,1,0.000000,6.113665,4.801895,-1.47871
1.673,0,1,0.000000,6.117845,4.804122,-1.47886
1.674,0,1,0.000000,6.122025,4.806320,-1.47908
1.675,0,1,0.000000,6.126204,4.808495,-1.47852
1.676,0,1,0.000000,6.131024,4.810487,-1.47733
1.677,0,1,0.000000,6.136556,4.812332,-1.47966
1.678,0,1,0.000000,6.142087,4.814063,-1.47789
1.679,0,1,0.000000,6.147618,4.815701,-1.47819
1.680,0,1,0.000000,6.153325,4.817334,-1.47767
1.681,0,1,0.000000,6.159226,4.818961,-1.47767
1.682,0,1,0.000000,6.165128,4.820581,-1.47788
1.683,0,1,0.000000,6.171030,4.822195,-1.47852
1.684,0,1,0.000000,6.176696,4.823773,-1.47798
1.685,0,1,0.000000,6.182100,4.825324,-1.47884
1.686,0,1,0.000000,6.187504,4.826820,-1.47881
1.687,0,1,0.000000,6.192908,4.828274,-1.47872
1.688,0,1,0.000000,6.198189,4.829662,-1.47773
1.689,0,1,0.000000,6.203334,4.830997,-1.47782
1.690,0,1,0.000000,6.208479,4.832260,-1.47946
1.691,0,1,0.000000,6.213624,4.833466,-1.47879
1.692,0,1,0.000000,6.218378,4.834591,-1.47931
1.693,0,1,0.000000,6.222698,4.835653,-1.47748
1.694,0,1,0.000000,6.227018,4.836617,-1.47819
1.695,0,1,0.000000,6.231339,4.837502,-1.47994
1.696,0,1,0.000000,6.234880,4.838263,-1.47960
1.697,0,1,0.000000,6.237557,4.838925,-1.47838
1.698,0,1,0.000000,6.240235,4.839422,-1.47742
1.699,0,1,0.000000,6.242913,4.839788,-1.47730
1.700,0,1,0.000000,6.245314,4.839980,-1.47768
1.701,0,1,0.000000,6.247407,4.840032,-1.47757
1.702,0,1,0.000000,6.249500,4.840060,-1.47980
1.703,0,1,0.000000,6.251594,4.840070,-1.47824
1.704,0,1,0.000000,6.252929,4.840205,-1.47740
1.705,0,1,0.000000,6.253421,4.840440,-1.47857
1.706,0,1,0.000000,6.253914,4.840730,-1.47817
1.707,0,1,0.000000,6.254407,4.841064,-1.48207
1.708,0,1,0.000000,6.254323,4.841350,-1.47692
1.709,0,1,0.000000,6.253597,4.841597,-1.47624
1.710,0,1,0.000000,6.252871,4.841706,-1.47739
1.711,0,1,0.000000,6.252145,4.841706,-1.47778
1.712,0,1,0.000000,6.250820,4.841706,-1.47772
1.713,0,1,0.000000,6.248830,4.841706,-1.47842
1.714,0,1,0.000000,6.246840,4.841706,-1.47847
1.715,0,1,0.000000,6.244849,4.841706,-1.47964
1.716,0,1,1.863013,6.242574,4.841706,-1.48013
1.717,1,1,5.213755,6.239983,4.841706,-1.48105
1.718,1,1,6.701815,6.237392,4.841503,-1.47909
1.719,1,1,6.702408,6.234801,4.841137,-1.47924
1.720,1,1,6.702671,6.231745,4.840836,-1.47989
1.721,1,1,6.702671,6.228172,4.840586,-1.47913
1.722,1,1,6.702958,6.224600,4.840351,-1.47923
1.723,1,1,6.703473,6.221027,4.840127,-1.47820
1.724,1,1,6.704345,6.217358,4.839772,-1.47967
1.725,1,1,6.705501,6.213582,4.839314,-1.48034
1.726,1,1,6.706975,6.209806,4.838827,-1.47923
1.727,1,1,6.708701,6.206030,4.838317,-1.48069
1.728,1,1,6.709626,6.202322,4.837907,-1.47975
1.729,1,1,6.709911,6.198691,4.837577,-1.47873
1.730,1,1,6.710862,6.195060,4.837278,-1.47922
1.731,1,1,6.712345,6.191429,4.837003,-1.47843
1.732,1,1,6.726691,6.187878,4.836636,-1.47865
1.733,1,1,6.751308,6.184416,4.836195,-1.47945
1.734,1,1,6.776353,6.180953,4.835551,-1.47911
1.735,1,1,6.801738,6.177491,4.834745,-1.47899
1.736,1,1,6.814288,6.174014,4.833676,-1.47787
1.737,1,1,6.816588,6.170523,4.832397,-1.48141
1.738,1,1,6.817746,6.167031,4.831015,-1.47906
1.739,1,1,6.817991,6.163539,4.829551,-1.47898
1.740,1,1,6.819900,6.160539,4.828165,-1.47831
1.741,1,1,6.823136,6.158083,4.826842,-1.48109
1.742,1,1,6.824780,6.155628,4.825601,-1.47914
1.743,1,1,6.825154,6.153173,4.824426,-1.47855
1.744,1,1,6.826140,6.150630,4.823299,-1.47915
1.745,1,1,6.827615,6.147988,4.822211,-1.48034
1.746,1,1,6.828689,6.145347,4.821198,-1.47775
1.747,1,1,6.829442,6.142705,4.820246,-1.48000
1.748,1,1,6.830297,6.140048,4.819417,-1.47836
1.749,1,1,6.831233,6.137372,4.818685,-1.47889
1.750,1,1,6.831648,6.134697,4.818142,-1.48030
1.751,1,1,6.831648,6.132022,4.817750,-1.47834
1.752,1,1,6.831648,6.129393,4.817556,-1.47780
1.753,1,1,6.831648,6.126813,4.817522,-1.47949
1.754,1,1,6.831648,6.124233,4.817422,-1.47922
1.755,1,1,6.831648,6.121654,4.817273,-1.47684
1.756,1,1,6.831648,6.119369,4.816815,-1.47819
1.757,1,1,6.831648,6.117411,4.816113,-1.47959
1.758,1,1,6.831551,6.115453,4.815290,-1.47722
1.759,1,1,6.831374,6.113495,4.814373,-1.48246
1.760,1,1,6.830624,6.111438,4.813577,-1.47834
1.761,1,1,6.829416,6.109273,4.812877,-1.47920
1.762,1,1,6.827958,6.107108,4.812225,-1.47939
1.763,1,1,6.826300,6.104942,4.811610,-1.47816
1.764,1,1,6.824416,6.102767,4.810912,-1.47861
1.765,1,1,6.822351,6.100583,4.810147,-1.47884
1.766,1,1,6.820070,6.098399,4.809320,-1.47414
1.767,1,1,6.817615,6.096214,4.808442,-1.47698
1.768,1,1,6.815021,6.094450,4.807549,-1.47794
1.769,1,1,6.812317,6.093153,4.806645,-1.47897
1.770,1,1,6.809887,6.091855,4.805706,-1.47929
1.771,1,1,6.807676,6.090557,4.804739,-1.47773
1.772,1,1,6.806078,6.089137,4.803707,-1.47867
1.773,1,1,6.804969,6.087581,4.802624,-1.47781
1.774,1,1,6.804044,6.086026,4.801492,-1.47813
1.775,1,1,6.803267,6.084470,4.800320,-1.47556
1.776,1,1,6.802190,6.083032,4.799126,-1.47918
1.777,1,1,6.800874,6.081726,4.797914,-1.48066
1.778,1,1,6.799502,6.080420,4.796701,-1.47724
1.779,1,1,6.798086,6.079113,4.795490,-1.47828
1.780,1,1,6.796957,6.077881,4.794311,-1.48500
1.781,1,1,6.796059,6.076731,4.793159,-1.47711
1.782,1,1,6.795322,6.075581,4.792124,-1.47518
1.783,1,1,6.794715,6.074430,4.791183,-1.47799
1.784,1,1,6.794379,6.073310,4.790480,-1.47846
1.785,1,1,6.794259,6.072223,4.789966,-1.47857
1.786,1,1,6.793998,6.071136,4.789710,-1.47952
1.787,1,1,6.793625,6.070050,4.789661,-1.47863
1.788,1,1,6.793460,6.069028,4.789629,-1.47767
1.789,1,1,6.793460,6.068080,4.789610,-1.47964
1.790,1,1,6.793460,6.067132,4.789552,-1.47941
1.791,1,1,6.793460,6.066183,4.789463,-1.47817
1.792,1,1,6.793460,6.065333,4.789409,-1.47961
1.793,1,1,6.793460,6.064592,4.789383,-1.47812
1.794,1,1,6.793540,6.063851,4.789340,-1.47848
1.795,1,1,6.793685,6.063110,4.789282,-1.47870
1.796,1,1,6.793877,6.062730,4.789257,-1.47910
1.797,1,1,6.794105,6.062751,4.789257,-1.47757
1.798,1,1,6.794773,6.062772,4.789190,-1.47943
1.799,1,1,6.795793,6.062794,4.789071,-1.47883
1.800,1,1,6.797009,6.063325,4.788819,-1.47946
1.801,1,1,6.798383,6.064424,4.788461,-1.48173
1.802,1,1,6.799025,6.065522,4.787990,-1.47921
1.803,1,1,6.799081,6.066621,4.787427,-1.47789
1.804,1,1,6.799106,6.067708,4.786808,-1.48019
1.805,1,1,6.799106,6.068782,4.786145,-1.47888
1.806,1,1,6.799106,6.069856,4.785511,-1.47981
1.807,1,1,6.799106,6.070930,4.784899,-1.47725
1.808,1,1,6.799106,6.072066,4.784300,-1.47817
1.809,1,1,6.799106,6.073271,4.783713,-1.47885
1.810,1,1,6.799106,6.074476,4.782638,-1.47858
1.811,1,1,6.799106,6.075681,4.781174,-1.47914
1.812,1,1,6.787045,6.077030,4.778749,-1.47899
1.813,1,1,6.765354,6.078539,4.775557,-1.47958
1.814,1,1,6.755723,6.080049,4.771683,-1.47847
1.815,1,1,6.755723,6.081558,4.767264,-1.47919
1.816,1,1,6.750905,6.083149,4.762594,-1.47984
1.817,1,1,6.742238,6.084833,4.757722,-1.47919
1.818,1,1,6.735983,6.086516,4.752753,-1.47870
1.819,1,1,6.731653,6.088199,4.747705,-1.47610
1.820,1,1,6.720438,6.089881,4.742662,-1.47804
1.821,1,1,6.703725,6.091561,4.737622,-1.47865
1.822,1,1,6.694215,6.093241,4.732801,-1.47874
1.823,1,1,6.690458,6.094922,4.728156,-1.47991
1.824,1,1,6.683905,6.096776,4.723921,-1.47964
1.825,1,1,6.675119,6.098822,4.720013,-1.47907
1.826,1,1,6.666128,6.100869,3.406597,-1.47896
1.827,1,0,6.656973,6.102916,1.047458,-1.47702
1.828,1,0,6.633194,6.105192,0.000000,-1.47880
1.829,1,0,6.597737,6.107723,0.000000,-1.47959
1.830,1,0,6.569515,6.110253,0.000000,-1.48058
1.831,1,0,6.547071,6.112784,0.000000,-1.47910
1.832,1,0,6.535409,6.115369,0.000000,-1.47778
1.833,1,0,6.532358,6.118016,0.000000,-1.47974
1.834,1,0,6.530876,6.120663,0.000000,-1.47839
1.835,1,0,6.530648,6.123310,0.000000,-1.47920
1.836,1,0,6.529737,6.125853,0.000000,-1.47860
1.837,1,0,6.528279,6.128282,0.000000,-1.47897
1.838,1,0,6.527133,6.130711,0.000000,-1.47938
1.839,1,0,6.526238,6.133139,0.000000,-1.48003
1.840,1,0,6.525770,6.135328,0.000000,-1.48283
1.841,1,0,6.525642,6.137251,0.000000,-1.47888
1.842,1,0,6.525424,6.139174,0.000000,-1.47734
1.843,1,0,6.525134,6.141098,0.000000,-1.47773
1.844,1,0,6.524939,6.142843,0.000000,-1.48027
1.845,1,0,6.524818,6.144391,0.000000,-1.47670
1.846,1,0,6.524666,6.145938,0.000000,-1.47826
1.847,1,0,6.524487,6.147486,0.000000,-1.47997
1.848,1,0,6.524408,6.148707,0.000000,-1.47791
1.849,1,0,6.524408,6.149564,0.000000,-1.47944
1.850,1,0,6.524279,6.150422,0.000000,-1.47901
1.851,1,0,6.524048,6.151279,0.000000,-1.47844
1.852,1,0,6.523874,6.151646,0.000000,-1.47802
1.853,1,0,6.523747,6.151470,0.000000,-1.47900
1.854,1,0,6.523510,6.151293,0.000000,-1.47868
1.855,1,0,6.523184,6.151116,0.000000,-1.47896
1.856,1,0,6.523040,6.151306,0.000000,-1.47885
1.857,1,0,6.523040,6.151902,0.000000,-1.47691
1.858,1,0,6.523040,6.152497,0.000000,-1.47855
1.859,1,0,6.523040,6.153093,0.000000,-1.47905
1.860,1,0,6.523292,6.153249,0.000000,-1.47826
1.861,1,0,6.523744,6.152917,0.000000,-1.47845
1.862,1,0,6.524321,6.152585,0.000000,-1.47880
1.863,1,0,6.524997,6.152253,0.000000,-1.47827
1.864,1,0,6.538943,6.151682,0.000000,-1.47830
1.865,1,0,6.563487,6.150846,0.000000,-1.47768
1.866,1,0,6.574384,6.150011,0.000000,-1.47877
1.867,1,0,6.574384,6.149175,0.000000,-1.47791
1.868,1,0,6.576802,6.147974,0.000000,-1.48008
1.869,1,0,6.581151,6.146370,0.000000,-1.47650
1.870,1,0,6.583974,6.144766,0.000000,-1.47592
1.871,1,0,6.585581,6.143162,0.000000,-1.47917
1.872,1,0,6.599328,6.141321,0.000000,-1.47887
1.873,1,0,6.622770,6.139219,0.000000,-1.47852
1.874,1,0,6.633806,6.137117,0.000000,-1.47975
1.875,1,0,6.634936,6.135015,0.000000,-1.48015
1.876,1,0,6.641159,6.132812,0.000000,-1.47889
1.877,1,0,6.651448,6.130498,0.000000,-1.48094
1.878,1,0,6.657466,6.128184,0.000000,-1.47700
1.879,1,0,6.660075,6.125869,0.000000,-1.47998
1.880,1,0,6.680899,6.123277,0.000000,-1.47786
1.881,1,0,6.716270,6.120378,0.000000,-1.47855
1.882,1,0,6.744413,6.117477,0.000000,-1.47941
1.883,1,0,6.766783,6.114578,0.000000,-1.47795
1.884,1,0,6.777627,6.111821,0.000000,-1.47842
1.885,1,0,6.779267,6.109222,0.000000,-1.47692
1.886,1,0,6.780063,6.106624,0.000000,-1.47974
1.887,1,0,6.780184,6.104025,0.000000,-1.47959
1.888,1,0,6.781525,6.101700,0.000000,-1.47912
1.889,1,0,6.783841,6.099679,0.000000,-1.47914
1.890,1,0,6.785247,6.097659,0.000000,-1.47812
1.891,1,0,6.785926,6.095638,0.000000,-1.47804
1.892,1,0,6.786228,6.093105,0.000000,-1.47864
1.893,1,0,6.786228,6.090003,0.000000,-1.47928
1.894,1,0,6.785947,6.086902,0.000000,-1.47698
1.895,1,0,6.785442,6.083801,0.000000,-1.47865
1.896,1,0,6.785217,6.080383,0.000000,-1.47883
1.897,1,0,6.785217,6.076615,0.000000,-1.47953
1.898,1,0,6.785217,6.072846,0.000000,-1.48362
1.899,1,0,6.785217,6.069077,0.000000,-1.48073
1.900,1,0,6.785217,6.065074,0.000000,-1.47849
1.901,1,0,6.785217,6.060810,0.000000,-1.47841
1.902,1,0,6.784718,6.056545,0.000000,-1.47986
1.903,1,0,6.783820,6.052281,0.000000,-1.47999
1.904,1,0,6.783109,6.048406,0.000000,-1.47839
1.905,1,0,6.782547,6.044963,0.000000,-1.47884
1.906,1,0,6.782050,6.041521,0.000000,-1.47845
1.907,1,0,6.781604,6.038078,0.000000,-1.47921
1.908,1,0,6.781132,6.034541,0.000000,-1.48000
1.909,1,0,6.780638,6.030900,0.000000,-1.47860
1.910,1,0,6.780419,6.027258,0.000000,-1.47862
1.911,1,0,6.780419,6.023617,0.000000,-1.48082
1.912,1,0,6.780419,6.020099,0.000000,-1.47774
1.913,1,0,6.780419,6.016719,0.000000,-1.47918
1.914,1,0,6.780419,6.013338,0.000000,-1.47896
1.915,1,0,6.780419,6.009957,0.000000,-1.48511
1.916,1,0,6.780419,6.006814,0.000000,-1.47939
1.917,1,0,6.780419,6.003933,0.000000,-1.47842
1.918,1,0,6.780708,6.001053,0.000000,-1.48010
1.919,1,0,6.781229,5.998172,0.000000,-1.47964
1.920,1,0,6.781948,5.995265,0.000000,-1.47689
1.921,1,0,6.782825,5.992329,0.000000,-1.47852
1.922,1,0,6.783857,5.989392,0.000000,-1.47944
1.923,1,0,6.785012,5.986455,0.000000,-1.47951
1.924,1,0,6.786212,5.983555,0.000000,-1.48032
1.925,1,0,6.787448,5.980694,0.000000,-1.47839
1.926,1,0,6.788186,5.977833,0.000000,-1.47812
1.927,1,0,6.788527,5.974973,0.000000,-1.47866
1.928,1,0,6.788679,5.972417,0.000000,-1.47668
1.929,1,0,6.788679,5.970199,0.000000,-1.47941
1.930,1,0,6.788679,5.967981,0.000000,-1.47939
1.931,1,0,6.788679,5.965764,0.000000,-1.47891
1.932,1,0,6.788679,5.964035,0.000000,-1.48070
1.933,1,0,6.788679,5.962850,0.000000,-1.47832
1.934,1,0,6.788679,5.961664,0.000000,-1.47831
1.935,1,0,6.788679,5.960478,0.000000,-1.47874
1.936,1,0,6.788386,5.959534,0.000000,-1.47906
1.937,1,0,6.787858,5.958857,0.000000,-1.47943
1.938,1,0,6.787262,5.958180,0.000000,-1.47842
1.939,1,0,6.786613,5.957503,0.000000,-1.47953
1.940,1,0,6.785951,5.956652,0.000000,-1.47895
1.941,1,0,6.785276,5.955606,0.000000,-1.47711
1.942,1,0,6.784976,5.954560,0.000000,-1.47803
1.943,1,0,6.784976,5.953515,0.000000,-1.47820
1.944,1,0,6.784976,5.953094,0.000000,-1.47838
1.945,1,0,6.784976,5.953366,0.000000,-1.47955
1.946,1,0,6.784941,5.953639,0.000000,-1.47883
1.947,1,0,6.784878,5.953911,0.000000,-1.47878
1.948,1,0,6.784510,5.954001,0.000000,-1.47935
1.949,1,0,6.783897,5.953888,0.000000,-1.48023
1.950,1,0,6.783348,5.953776,0.000000,-1.48008
1.951,1,0,6.782848,5.953663,0.000000,-1.48027
1.952,1,0,6.782585,5.953806,0.000000,-1.47706
1.953,1,0,6.782510,5.954234,0.000000,-1.47715
1.954,1,0,4.896949,5.954661,0.000000,-1.47949
1.955,0,0,1.505710,5.955089,0.000000,-1.47911
1.956,0,0,0.000000,5.955975,0.000000,-1.47794
1.957,0,0,0.000000,5.957371,0.000000,-1.47850
1.958,0,0,0.000000,5.958767,0.000000,-1.47995
1.959,0,0,0.000000,5.960164,0.000000,-1.47750
1.960,0,0,0.000000,5.961597,0.000000,-1.47814
1.961,0,0,0.000000,5.963073,0.000000,-1.47776
1.962,0,0,0.000000,5.964550,0.000000,-1.47910
1.963,0,0,0.000000,5.966025,0.000000,-1.47896
1.964,0,0,0.000000,5.967383,0.000000,-1.47902
1.965,0,0,0.000000,5.968611,0.000000,-1.47860
1.966,0,0,0.000000,5.969839,0.000000,-1.47817
1.967,0,0,0.000000,5.971066,0.000000,-1.47714
1.968,0,0,0.000000,5.972264,0.000000,-1.47902
1.969,0,0,0.000000,5.973428,0.000000,-1.47794
1.970,0,0,0.000000,5.974593,0.000000,-1.47904
1.971,0,0,0.000000,5.975757,0.000000,-1.47769
1.972,0,0,0.000000,5.976731,0.000000,-1.48024
1.973,0,0,0.000000,5.977496,0.000000,-1.47963
1.974,0,0,0.000000,5.978260,0.000000,-1.47905
1.975,0,0,0.000000,5.979023,0.000000,-1.47858
1.976,0,0,0.000000,5.979294,0.000000,-1.47875
1.977,0,0,0.000000,5.979018,0.000000,-1.47920
1.978,0,0,0.000000,5.978742,0.000000,-1.48005
1.979,0,0,0.000000,5.978465,0.000000,-1.47932
1.980,0,0,0.000000,5.978040,0.000000,-1.47995
1.981,0,0,0.000000,5.977451,0.000000,-1.47851
1.982,0,0,0.000000,5.976861,0.000000,-1.47908
1.983,0,0,0.000000,5.976272,0.000000,-1.47902
1.984,0,0,0.000000,5.975667,0.000000,-1.47900
1.985,0,0,0.000000,5.975045,0.000000,-1.47913
1.986,0,0,0.000000,5.974423,0.000000,-1.47912
1.987,0,0,0.000000,5.973801,0.000000,-1.47671
1.988,0,0,0.000000,5.972825,0.000000,-1.47851
1.989,0,0,0.000000,5.971457,0.000000,-1.47913
1.990,0,0,0.000000,5.970088,0.000000,-1.47844
1.991,0,0,0.000000,5.968719,0.000000,-1.47863
1.992,0,0,0.000000,5.966731,0.000000,-1.47872
1.993,0,0,0.000000,5.964056,0.000000,-1.47856
1.994,0,0,0.000000,5.961380,0.000000,-1.48008
1.995,0,0,0.000000,5.958705,0.000000,-1.47886
1.996,0,0,0.000000,5.955927,0.000000,-1.47725
1.997,0,0,0.000000,5.953035,0.000000,-1.48261
1.998,0,0,0.000000,5.950142,0.000000,-1.47920
1.999,0,0,0.000000,5.947250,0.000000,-1.47657
2.000,0,0,0.000000,5.944306,0.000000,-1.47823
2.001,0,0,0.000000,5.941306,0.000000,-1.48094
2.002,0,0,0.000000,5.938305,0.000000,-1.47614
2.003,0,0,0.000000,5.935305,0.000000,-1.47770
2.004,0,0,0.000000,5.932497,0.000000,-1.47974
2.005,0,0,0.000000,5.929903,0.000000,-1.47944
2.006,0,0,0.000000,5.927310,0.000000,-1.48005
2.007,0,0,0.000000,5.924716,0.000000,-1.47629
2.008,0,0,0.000000,5.922055,0.000000,-1.47803
2.009,0,0,0.000000,5.919320,0.000000,-1.47925
2.010,0,0,0.000000,5.916584,0.000000,-1.47874
2.011,0,0,0.000000,5.913849,0.000000,-1.47900
2.012,0,0,0.000000,5.911323,0.000000,-1.47751
2.013,0,0,0.000000,5.909029,0.000000,-1.47828
2.014,0,0,0.000000,5.906734,0.000000,-1.47739
2.015,0,0,0.000000,5.904439,0.000000,-1.47814
2.016,0,0,0.000000,5.901537,0.000000,-1.47908
2.017,0,0,0.000000,5.897963,0.000000,-1.47775
2.018,0,0,0.000000,5.894387,0.000000,-1.47721
2.019,0,0,0.000000,5.890812,0.000000,-1.47667
2.020,0,0,0.000000,5.887763,0.000000,-1.47296
2.021,0,0,0.000000,5.885296,0.000000,-1.47361
2.022,0,0,0.000000,5.882830,0.000000,-1.47133
2.023,0,0,0.000000,5.880364,0.000000,-1.46892
2.024,0,0,0.000000,5.877682,0.000000,-1.46824
2.025,0,0,0.000000,5.874762,0.000000,-1.46165
2.026,0,0,0.000000,5.871840,0.000000,-1.45676
2.027,0,0,0.000000,5.868919,0.000000,-1.45093
2.028,0,0,0.000000,5.865775,0.000000,-1.44807
2.029,0,0,0.000000,5.862381,0.000000,-1.44146
2.030,0,0,0.000000,5.858987,0.000000,-1.43303
2.031,0,0,0.000000,5.855594,0.000000,-1.42183
2.032,0,0,0.000000,5.852104,0.000000,-1.41418
2.033,0,0,0.000000,5.848505,0.000000,-1.40764
2.034,0,0,0.000000,5.844908,0.000000,-1.39818
2.035,0,0,0.000000,5.841310,0.000000,-1.38996
2.036,0,0,0.000000,5.837647,0.000000,-1.38192
2.037,0,0,0.000000,5.833913,0.000000,-1.37087
2.038,0,0,0.000000,5.830178,0.000000,-1.35339
2.039,0,0,0.000000,5.826444,0.000000,-1.33927
2.040,0,0,0.000000,5.821853,0.000000,-1.32982
2.041,0,0,0.000000,5.816311,0.000000,-1.31743
2.042,0,0,0.000000,5.810770,0.000000,-1.30629
2.043,0,0,0.000000,5.805229,0.000000,-1.29384
2.044,0,0,0.000000,5.799712,0.000000,-1.26732
2.045,0,0,0.000000,5.794223,0.000000,-1.25329
2.046,0,0,0.000000,5.788733,0.000000,-1.24018
2.047,0,0,0.000000,5.783244,0.000000,-1.22691
2.048,0,0,0.000000,5.778059,0.000000,-1.21072
2.049,0,0,0.000000,5.773210,0.000000,-1.19555
2.050,0,0,0.000000,5.768362,0.000000,-1.17197
2.051,0,0,0.000000,5.763513,0.000000,-1.14939
2.052,0,0,0.000000,5.759346,0.000000,-1.13429
2.053,0,0,0.000000,5.755936,0.000000,-1.11609
2.054,0,0,0.000000,5.752525,0.000000,-1.09730
2.055,0,0,0.000000,5.749115,0.000000,-1.08100
2.056,0,0,0.000000,5.745851,0.000000,-1.06319
2.057,0,0,0.000000,5.742749,0.000000,-1.03490
2.058,0,0,0.000000,5.739647,0.000000,-1.00716
2.059,0,0,0.000000,5.736545,0.000000,-0.98936
2.060,0,0,0.000000,5.733978,0.000000,-0.97053
2.061,0,0,0.000000,5.732004,0.000000,-0.95099
2.062,0,0,0.000000,5.730030,0.000000,-0.93102
2.063,0,0,0.000000,5.728056,0.000000,-0.90903
2.064,0,0,0.000000,5.726965,0.000000,-0.87047
2.065,0,0,0.000000,5.726855,0.000000,-0.84694
2.066,0,0,0.000000,5.726744,0.000000,-0.82794
2.067,0,0,0.000000,5.726634,0.000000,-0.80709
2.068,0,0,0.000000,5.727143,0.000000,-0.78350
2.069,0,0,0.000000,5.728340,0.000000,-0.76091
2.070,0,0,0.000000,5.729537,0.000000,-0.72582
2.071,0,0,0.000000,5.730734,0.000000,-0.69330
2.072,0,0,0.000000,5.731949,0.000000,-0.67019
2.073,0,0,0.000000,5.733182,0.000000,-0.64973
2.074,0,0,0.000000,5.734415,0.000000,-0.62455
2.075,0,0,0.000000,5.735648,0.000000,-0.60176
2.076,0,0,0.000000,5.738253,0.000000,-0.57733
2.077,0,0,0.000000,5.742381,0.000000,-0.53969
2.078,0,1,0.000000,5.746509,1.284802,-0.50428
2.079,0,1,0.000000,5.750637,3.595597,-0.48073
2.080,0,1,0.000000,5.755147,4.621610,-0.45607
2.081,0,1,0.000000,5.760079,4.621646,-0.43158
2.082,0,1,0.000000,5.765011,4.621691,-0.40588
2.083,0,1,0.000000,5.769943,4.621744,-0.38154
2.084,0,1,1.603625,5.775102,4.621796,-0.34209
2.085,1,1,4.487844,5.780511,4.621849,-0.30610
2.086,1,1,5.786664,5.785920,4.621969,-0.27961
2.087,1,1,5.819448,5.791329,4.622143,-0.25588
2.088,1,1,5.850447,5.796515,4.622424,-0.22760
2.089,1,1,5.880019,5.801455,4.622790,-0.20416
2.090,1,1,5.908166,5.806394,4.623232,-0.17755
2.091,1,1,5.935176,5.811333,4.623736,-0.13933
2.092,1,1,5.962623,5.816029,4.624319,-0.09995
2.093,1,1,5.990418,5.820456,4.624966,-0.07518
2.094,1,1,6.018778,5.824882,4.625714,-0.04776
2.095,1,1,6.047587,5.829309,4.626543,-0.02275
2.096,1,1,6.076674,5.834056,4.627474,0.00399
2.097,1,1,6.105981,5.839159,4.628489,0.02734
2.098,1,1,6.135631,5.844262,4.629501,0.06747
2.099,1,1,6.165554,5.849364,4.630513,0.10576
2.100,1,1,6.195867,5.854979,4.631440,0.13337
2.101,1,1,6.226491,5.861162,4.632299,0.15651
2.102,1,1,6.257027,5.867344,4.633225,0.18108
2.103,1,1,6.287490,5.873527,4.634204,0.21042
2.104,1,1,6.317315,5.879774,4.635395,0.23505
2.105,1,1,6.346630,5.886091,4.636755,0.26907
2.106,1,1,6.375121,5.892408,4.638148,0.30944
2.107,1,1,6.402956,5.898726,4.639567,0.33571
2.108,1,1,6.430002,5.905374,4.640826,0.36168
2.109,1,1,6.456419,5.912389,4.641956,0.38535
2.110,1,1,6.482610,5.919405,4.643079,0.41140
2.111,1,1,6.508620,5.926420,4.644198,0.43297
2.112,1,1,6.534899,5.933120,4.645514,0.46179
2.113,1,1,6.561393,5.939471,4.646988,0.50925
2.114,1,1,6.587681,5.945821,4.648639,0.53435
2.115,1,1,6.613805,5.952172,4.650431,0.55791
2.116,1,1,6.639348,5.958953,4.652326,0.58217
2.117,1,1,6.664426,5.966213,4.654301,0.60405
2.118,1,1,6.690238,5.973473,4.656338,0.62867
2.119,1,1,6.716635,5.980733,4.658425,0.65181
2.120,1,1,6.744170,5.988405,4.660534,0.68907
2.121,1,1,6.772614,5.996535,4.662663,0.72209
2.122,1,1,6.794514,6.004664,4.664733,0.74568
2.123,1,1,6.811189,6.012794,4.666758,0.76703
2.124,1,1,6.818699,6.021356,4.668674,0.78768
2.125,1,1,6.818892,6.030397,4.670503,0.81030
2.126,1,1,6.820681,6.039438,4.672358,0.83214
2.127,1,1,6.823744,6.048480,4.674232,0.85237
2.128,1,1,6.825554,6.057666,4.676267,0.88877
2.129,1,1,6.826365,6.067014,4.678430,0.91500
2.130,1,1,6.827417,6.076363,4.680653,0.93657
2.131,1,1,6.828663,6.085711,4.682925,0.95607
2.132,1,1,6.830010,6.094924,4.685128,0.97753
2.133,1,1,6.831439,6.103989,4.687277,0.99352
2.134,1,1,6.832944,6.113053,4.689393,1.01318
2.135,1,1,6.834508,6.122117,4.691481,1.04456
2.136,1,1,6.836180,6.130490,4.693600,1.06801
2.137,1,1,6.837938,6.138097,4.695743,1.08893
2.138,1,1,6.840060,6.145703,4.697901,1.10369
2.139,1,1,6.842471,6.153309,4.700070,1.11993
2.140,1,1,6.845419,6.161183,4.702226,1.13829
2.141,1,1,6.848796,6.169353,4.704370,1.15479
2.142,1,1,6.853109,6.177524,4.706514,1.17054
2.143,1,1,6.858169,6.185694,4.708658,1.19833
2.144,1,1,6.864433,6.194134,4.710811,1.21438
2.145,1,1,6.871661,6.202873,4.712970,1.23168
2.146,1,1,6.879483,6.211612,4.715072,1.24766
2.147,1,1,6.887782,6.220351,4.717128,1.25948
2.148,1,1,6.895963,6.228836,4.719064,1.27194
2.149,1,1,6.904050,6.237037,4.720903,1.28679
2.150,1,1,6.911964,6.245238,4.722663,1.30499
2.151,1,1,6.919741,6.253439,4.724360,1.32258
2.152,1,1,6.927469,6.261355,4.726017,1.33586
2.153,1,1,6.935158,6.268953,4.727643,1.34535
2.154,1,1,6.942894,6.276551,4.729120,1.35777
2.155,1,1,6.950668,6.284149,4.730479,1.36807
2.156,1,1,6.958551,6.291231,4.731602,1.37650
2.157,1,1,6.966524,6.297741,4.732538,1.38631
2.158,1,1,6.974564,6.304252,4.733437,1.39874
2.159,1,1,6.982659,6.310762,4.734306,1.41076
2.160,1,1,6.990705,6.316796,4.735339,1.41948
2.161,1,1,6.998709,6.322303,4.736503,1.42606
2.162,1,1,7.006333,6.327809,4.737074,1.43704
2.163,1,1,7.013654,6.333315,4.737173,1.43909
2.164,1,1,7.020296,6.338500,4.737216,1.44761
2.165,1,1,7.026396,6.343328,4.737216,1.45242
2.166,1,1,7.031940,6.348155,4.737216,1.45630
2.167,1,1,7.037037,6.352983,4.737216,1.46209
2.168,1,1,7.041799,6.357544,4.737216,1.46664
2.169,1,1,7.046292,6.361810,4.737216,1.47441
2.170,1,1,7.050592,6.366076,4.737216,1.47136
2.171,1,1,7.054739,6.370342,4.737216,1.47684
2.172,1,1,7.058770,6.374645,4.736096,1.47601
2.173,1,1,7.062710,6.378990,4.734080,1.47984
2.174,1,1,7.066411,6.383334,4.731809,1.47903
2.175,1,1,7.069921,6.387679,4.729332,1.48192
2.176,1,1,7.073067,6.391082,4.726686,1.48226
2.177,1,1,7.075921,6.393442,4.723903,1.48274
2.178,1,1,7.078528,6.395802,4.721006,1.48524
2.179,1,1,7.080937,6.398161,4.718017,1.48305
2.180,1,1,7.083264,6.399530,4.714970,1.48371
2.181,1,1,7.085525,6.399798,4.711875,1.48444
2.182,1,1,7.087773,6.400066,3.400982,1.48315
2.183,1,0,7.090011,6.400335,1.045731,1.48442
2.184,1,0,7.092237,6.400464,0.000000,1.48482
2.185,1,0,7.094453,6.400438,0.000000,1.48538
2.186,1,0,7.096470,6.400412,0.000000,1.48577
2.187,1,0,7.098328,6.400386,0.000000,1.48658
2.188,1,0,7.099833,6.400023,0.000000,1.48295
2.189,1,0,7.101056,6.399284,0.000000,1.48949
2.190,1,0,7.102172,6.398545,0.000000,1.48344
2.191,1,0,7.103202,6.397806,0.000000,1.48256
2.192,1,0,7.104426,6.397145,0.000000,1.48595
2.193,1,0,7.105804,6.396571,0.000000,1.48448
2.194,1,0,7.107421,6.395997,0.000000,1.48470
2.195,1,0,7.109227,6.395422,0.000000,1.48489
2.196,1,0,7.111223,6.394741,0.000000,1.48363
2.197,1,0,7.113369,6.393939,0.000000,1.48438
2.198,1,0,7.115569,6.393137,0.000000,1.48253
2.199,1,0,7.117811,6.392335,0.000000,1.48455
2.200,1,0,7.119956,6.391763,0.000000,1.48417
2.201,1,0,7.122023,6.391446,0.000000,1.48450
2.202,1,0,7.123885,6.391129,0.000000,1.48402
2.203,1,0,7.125583,6.390811,0.000000,1.48418
2.204,1,0,7.127022,6.390628,0.000000,1.48622
2.205,1,0,7.128253,6.390594,0.000000,1.48442
2.206,1,0,7.129357,6.390561,0.000000,1.48387
2.207,1,0,7.130360,6.390526,0.000000,1.48421
2.208,1,0,7.131374,6.390365,0.000000,1.48387
2.209,1,0,7.132398,6.390061,0.000000,1.48301
2.210,1,0,7.133363,6.389758,0.000000,1.48425
2.211,1,0,7.134282,6.389454,0.000000,1.48445
2.212,1,0,7.134689,6.388902,0.000000,1.47786
2.213,1,0,7.134689,6.388073,0.000000,1.48412
2.214,1,0,7.134689,6.387245,0.000000,1.48336
2.215,1,0,7.134689,6.386417,0.000000,1.48444
2.216,1,0,7.134689,6.386264,0.000000,1.48396
2.217,1,0,7.134689,6.386862,0.000000,1.48484
2.218,1,0,7.134689,6.387460,0.000000,1.48424
2.219,1,0,7.134689,6.388058,0.000000,1.48282
2.220,1,0,7.134626,6.388842,0.000000,1.48231
2.221,1,0,7.134513,6.389833,0.000000,1.48405
2.222,1,0,7.134074,6.390824,0.000000,1.48224
2.223,1,0,7.133375,6.391815,0.000000,1.48390
2.224,1,0,7.133064,6.392863,0.000000,1.48397
2.225,1,0,7.133064,6.393973,0.000000,1.48410
2.226,1,0,7.133064,6.395083,0.000000,1.48451
2.227,1,0,7.133064,6.396194,0.000000,1.48415
2.228,1,0,7.133064,6.396928,0.000000,1.48378
2.229,1,0,7.133064,6.397244,0.000000,1.48404
2.230,1,0,7.133064,6.397561,0.000000,1.48120
2.231,1,0,7.133064,6.397877,0.000000,1.48451
2.232,1,0,7.133401,6.398090,0.000000,1.48510
2.233,1,0,7.134008,6.398189,0.000000,1.48349
2.234,1,0,7.134710,6.398287,0.000000,1.48324
2.235,1,0,7.135489,6.398386,0.000000,1.48362
2.236,1,0,7.136328,6.398219,0.000000,1.48360
2.237,1,0,7.137215,6.397759,0.000000,1.48291
2.238,1,0,7.138208,6.397298,0.000000,1.48357
2.239,1,0,7.139286,6.396838,0.000000,1.48335
2.240,1,0,7.140485,6.395927,0.000000,1.48463
2.241,1,0,7.141780,6.394517,0.000000,1.48378
2.242,1,0,7.142976,6.393107,0.000000,1.48347
2.243,1,0,7.144091,6.391697,0.000000,1.48369
2.244,1,0,7.144898,6.390079,0.000000,1.47891
2.245,1,0,7.145462,6.388229,0.000000,1.48437
2.246,1,0,7.145887,6.386380,0.000000,1.48440
2.247,1,0,7.146203,6.384531,0.000000,1.48386
2.248,1,0,7.146592,6.382801,0.000000,1.48262
2.249,1,0,7.147039,6.381203,0.000000,1.48253
2.250,1,0,7.147477,6.379604,0.000000,1.48287
2.251,1,0,7.147906,6.378006,0.000000,1.48289
2.252,1,0,7.148205,6.376066,0.000000,1.48489
2.253,1,0,7.148399,6.373745,0.000000,1.48558
2.254,1,0,7.148552,6.371425,0.000000,1.48596
2.255,1,0,7.148674,6.369105,0.000000,1.48376
2.256,1,0,7.148862,6.366642,0.000000,1.48594
2.257,1,0,7.149104,6.364023,0.000000,1.48599
2.258,1,0,7.149333,6.361403,0.000000,1.48447
2.259,1,0,7.149552,6.358783,0.000000,1.48477
2.260,1,0,7.149671,6.355938,0.000000,1.48428
2.261,1,0,7.149709,6.352843,0.000000,1.48341
2.262,1,0,7.149760,6.349749,0.000000,1.48475
2.263,1,0,7.149822,6.346654,0.000000,1.48447
2.264,1,0,7.150023,6.343719,0.000000,1.48314
2.265,1,0,7.150334,6.340962,0.000000,1.48348
2.266,1,0,7.150705,6.338205,0.000000,1.48792
2.267,1,0,7.151124,6.335447,0.000000,1.48388
2.268,1,0,7.151500,6.332977,0.000000,1.48268
2.269,1,0,7.151845,6.330825,0.000000,1.48335
2.270,1,0,7.152221,6.328673,0.000000,1.48505
2.271,1,0,7.152622,6.326521,0.000000,1.48451
2.272,1,0,7.153149,6.324526,0.000000,1.48428
2.273,1,0,7.153775,6.322704,0.000000,1.48468
2.274,1,0,7.154498,6.320882,0.000000,1.48351
2.275,1,0,7.155298,6.319060,0.000000,1.48408
2.276,1,0,7.156125,6.317548,0.000000,1.48392
2.277,1,0,7.156973,6.316379,0.000000,1.48671
2.278,1,0,7.157761,6.315210,0.000000,1.48385
2.279,1,0,7.158499,6.314041,0.000000,1.48330
2.280,1,0,7.159115,6.312923,0.000000,1.48531
2.281,1,0,7.159635,6.311862,0.000000,1.48295
2.282,1,0,7.160126,6.310802,0.000000,1.48423
2.283,1,0,7.160595,6.309741,0.000000,1.48557
2.284,1,0,7.161132,6.309012,0.000000,1.48392
2.285,1,0,7.161724,6.308651,0.000000,1.48459
2.286,1,0,7.162300,6.308290,0.000000,1.48301
2.287,1,0,7.162864,6.307929,0.000000,1.48398
2.288,1,0,7.163310,6.308030,0.000000,1.48489
2.289,1,0,7.163661,6.308643,0.000000,1.48505
2.290,1,0,7.163939,6.309256,0.000000,1.48341
2.291,1,0,7.164159,6.309869,0.000000,1.48368
2.292,1,0,7.164386,6.310637,0.000000,1.48494
2.293,1,0,7.164618,6.311576,0.000000,1.48289
2.294,1,0,7.164896,6.312516,0.000000,1.48315
2.295,1,0,7.165209,6.313455,0.000000,1.48359
2.296,1,0,7.165593,6.314517,0.000000,1.48364
2.297,1,0,7.166033,6.315716,0.000000,1.48408
2.298,1,0,7.166560,6.316916,0.000000,1.48368
2.299,1,0,7.167157,6.318114,0.000000,1.48487
2.300,1,0,7.167830,6.319012,0.000000,1.48527
2.301,1,0,7.168562,6.319575,0.000000,1.48353
2.302,1,0,7.168888,6.320138,0.000000,1.48354
2.303,1,0,7.168888,6.320701,0.000000,1.48287
2.304,1,0,7.168888,6.321825,0.000000,1.48316
2.305,1,0,7.168888,6.323571,0.000000,1.48296
2.306,1,0,7.168888,6.325316,0.000000,1.48385
2.307,1,0,7.168888,6.327062,0.000000,1.48469
2.308,1,0,7.168888,6.328648,0.000000,1.48338
2.309,1,0,7.168888,6.330056,0.000000,1.48546
2.310,1,0,7.168745,6.331464,0.000000,1.48424
2.311,1,0,7.168486,6.332872,0.000000,1.48365
2.312,1,0,7.168120,6.334397,0.000000,1.48210
2.313,1,0,7.167667,6.336052,0.000000,1.48303
2.314,1,0,7.167093,6.337707,0.000000,1.48350
2.315,1,0,7.166422,6.339362,0.000000,1.48206
2.316,1,0,7.165440,6.340630,0.000000,1.48362
2.317,1,0,7.164209,6.341467,0.000000,1.48363
2.318,1,0,7.162937,6.342305,0.000000,1.48290
2.319,1,0,7.161632,6.343142,0.000000,1.48237
2.320,1,0,7.160584,6.344388,0.000000,1.48414
2.321,1,0,7.159743,6.346086,0.000000,1.48351
2.322,1,0,7.159016,6.347785,0.000000,1.48312
2.323,1,0,7.158380,6.349483,0.000000,1.48137
2.324,1,0,7.157673,6.350958,0.000000,1.48290
2.325,1,0,7.156911,6.352184,0.000000,1.48394
2.326,1,0,7.156419,6.353410,0.000000,1.48200
2.327,1,0,7.156144,6.354636,0.000000,1.48655
2.328,1,0,7.156004,6.355072,0.000000,1.48450
2.329,1,0,7.155971,6.354631,0.000000,1.48460
2.330,1,0,7.155957,6.354191,0.000000,1.48455
2.331,1,0,7.155957,6.353751,0.000000,1.48564
2.332,1,0,7.155957,6.353807,0.000000,1.48415
2.333,1,0,7.155957,6.354414,0.000000,1.48701
2.334,1,0,7.155957,6.355021,0.000000,1.48508
2.335,1,0,7.155957,6.355627,0.000000,1.48432
2.336,1,0,7.155975,6.357042,0.000000,1.48466
2.337,1,0,7.156008,6.359355,0.000000,1.48087
2.338,1,0,7.156398,6.361668,0.000000,1.48381
2.339,1,0,7.157073,6.363981,0.000000,1.48326
2.340,1,0,7.157599,6.365040,0.000000,1.48350
2.341,1,0,7.158006,6.364708,0.000000,1.48404
2.342,1,0,7.158410,6.364377,0.000000,1.48494
2.343,1,0,7.158811,6.364045,0.000000,1.48275
2.344,1,0,7.158989,6.364292,0.000000,1.48225
2.345,1,0,7.158989,6.365180,0.000000,1.48527
2.346,1,0,7.158989,6.366069,0.000000,1.48317
2.347,1,0,7.158989,6.366958,0.000000,1.48364
2.348,1,0,7.158989,6.367552,0.000000,1.48495
2.349,1,0,7.158989,6.367818,0.000000,1.48315
2.350,1,0,7.158989,6.368084,0.000000,1.48525
2.351,1,0,7.158989,6.368350,0.000000,1.48370
2.352,1,0,5.168790,6.369350,0.000000,1.48351
2.353,0,0,1.589296,6.371165,0.000000,1.48461
2.354,0,0,0.000000,6.372979,0.000000,1.48422
2.355,0,0,0.000000,6.374794,0.000000,1.48428
2.356,0,0,0.000000,6.376561,0.000000,1.48344
2.357,0,0,0.000000,6.378276,0.000000,1.48329
2.358,0,0,0.000000,6.379991,0.000000,1.48345
2.359,0,0,0.000000,6.381706,0.000000,1.48220
2.360,0,0,0.000000,6.383184,0.000000,1.48362
2.361,0,0,0.000000,6.384399,0.000000,1.48740
2.362,0,0,0.000000,6.385614,0.000000,1.48506
2.363,0,0,0.000000,6.386829,0.000000,1.48484
2.364,0,0,0.000000,6.388993,0.000000,1.48549
2.365,0,0,0.000000,6.392211,0.000000,1.48251
2.366,0,0,0.000000,6.395430,0.000000,1.48348
2.367,0,0,0.000000,6.398648,0.000000,1.48268
2.368,0,0,0.000000,6.401711,0.000000,1.48450
2.369,0,0,0.000000,6.404602,0.000000,1.48237
2.370,0,0,0.000000,6.407493,0.000000,1.48248
2.371,0,0,0.000000,6.410384,0.000000,1.48518
2.372,0,0,0.000000,6.412740,0.000000,1.48226
2.373,0,0,0.000000,6.414503,0.000000,1.48673
2.374,0,0,0.000000,6.416265,0.000000,1.48275
2.375,0,0,0.000000,6.418027,0.000000,1.48317
2.376,0,0,0.000000,6.420635,0.000000,1.48379
2.377,0,0,0.000000,6.424183,0.000000,1.48386
2.378,0,0,0.000000,6.427730,0.000000,1.48483
2.379,0,0,0.000000,6.431278,0.000000,1.48409
2.380,0,0,0.000000,6.434244,0.000000,1.48443
2.381,0,0,0.000000,6.436565,0.000000,1.48354
2.382,0,0,0.000000,6.438886,0.000000,1.48380
2.383,0,0,0.000000,6.441207,0.000000,1.48402
2.384,0,0,0.000000,6.443829,0.000000,1.48286
2.385,0,0,0.000000,6.446782,0.000000,1.48348
2.386,0,0,0.000000,6.449735,0.000000,1.48455
2.387,0,0,0.000000,6.452688,0.000000,1.48346
2.388,0,0,0.000000,6.455682,0.000000,1.48459
2.389,0,0,0.000000,6.458720,0.000000,1.48531
2.390,0,0,0.000000,6.461759,0.000000,1.48236
2.391,0,0,0.000000,6.464798,0.000000,1.48676
2.392,0,0,0.000000,6.466959,0.000000,1.48393
2.393,0,0,0.000000,6.468145,0.000000,1.48268
2.394,0,0,0.000000,6.469332,0.000000,1.48466
2.395,0,0,0.000000,6.470518,0.000000,1.48268
2.396,0,0,0.000000,6.472183,0.000000,1.48337
2.397,0,0,0.000000,6.474380,0.000000,1.48456
2.398,0,0,0.000000,6.476576,0.000000,1.48344
2.399,0,0,0.000000,6.478773,0.000000,1.48566
2.400,0,0,0.000000,6.480356,0.000000,1.48301
2.401,0,0,0.000000,6.481259,0.000000,1.48318
2.402,0,0,0.000000,6.482162,0.000000,1.48244
2.403,0,0,0.000000,6.483065,0.000000,1.48210
2.404,0,0,0.000000,6.483959,0.000000,1.48316
2.405,0,0,0.000000,6.484845,0.000000,1.48469
2.406,0,0,0.000000,6.485730,0.000000,1.48484
2.407,0,0,0.000000,6.486616,0.000000,1.48268
2.408,0,0,0.000000,6.487199,0.000000,1.48423
2.409,0,0,0.000000,6.487448,0.000000,1.48331
2.410,0,0,0.000000,6.487697,0.000000,1.48405
2.411,0,0,0.000000,6.487946,0.000000,1.48245
2.412,0,0,0.000000,6.488692,1.363808,1.48335
2.413,0,0,0.000000,6.489989,3.816701,1.48375
2.414,0,1,0.000000,6.491286,4.905793,1.48507
2.415,0,1,0.000000,6.492583,4.905807,1.48400
2.416,0,1,0.000000,6.493762,4.905821,1.48331
2.417,0,1,0.000000,6.494811,4.905833,1.48384
2.418,0,1,0.000000,6.495859,4.905872,1.48279
2.419,0,1,0.000000,6.496907,4.905931,1.48331
2.420,0,1,0.000000,6.497628,4.905958,1.48279
2.421,0,1,0.000000,6.497987,4.905958,1.48412
2.422,0,1,0.000000,6.498346,4.905958,1.48384
2.423,0,1,0.000000,6.498705,4.905958,1.48471
2.424,0,1,0.000000,6.498997,4.905918,1.48362
2.425,0,1,0.000000,6.499216,4.905846,1.48366
2.426,0,1,0.000000,6.499434,4.905806,1.48313
2.427,0,1,0.000000,6.499652,4.905791,1.48354
2.428,0,1,0.000000,6.500233,4.905625,1.48378
2.429,0,1,0.000000,6.501215,4.905338,1.48369
2.430,0,1,0.000000,6.502198,4.904922,1.48464
2.431,0,1,0.000000,6.503181,4.904404,1.48459
2.432,0,1,0.000000,6.503251,4.903902,1.48315
2.433,0,1,0.000000,6.502307,4.903412,1.48575
2.434,0,1,0.000000,6.501365,4.902943,1.48331
2.435,0,1,0.000000,6.500422,4.902489,1.48335
2.436,0,1,0.000000,6.499696,4.902042,1.48370
2.437,0,1,0.000000,6.499212,4.901602,1.48638
2.438,0,1,0.000000,6.498727,4.901200,1.48395
2.439,0,1,0.000000,6.498243,4.900829,1.48383
2.440,0,1,0.000000,6.496583,4.900529,1.48440
2.441,0,1,0.000000,6.493618,4.900286,1.48455
2.442,0,1,0.000000,6.490652,4.900095,1.48408
2.443,0,1,0.000000,6.487687,4.899944,1.48307
2.444,0,1,0.000000,6.484680,4.899815,1.48468
2.445,0,1,0.000000,6.481627,4.899701,1.48331
2.446,0,1,0.000000,6.478574,4.899591,1.48488
2.447,0,1,0.000000,6.475521,4.899484,1.48330
2.448,0,1,0.000000,6.471936,4.899362,1.48434
2.449,0,1,0.000000,6.467760,4.899228,1.48255
2.450,0,1,0.000000,6.463584,4.899035,1.48448
2.451,0,1,0.000000,6.459408,4.898796,1.48329
2.452,0,1,0.000000,6.455498,4.898476,1.48438
2.453,0,1,0.000000,6.451883,4.898093,1.48168
2.454,0,1,0.000000,6.448269,4.897732,1.48278
2.455,0,1,0.000000,6.444654,4.897390,1.48381
2.456,0,1,0.000000,6.441125,4.897163,1.48376
2.457,0,1,0.000000,6.437692,4.897027,1.48370
2.458,0,1,0.000000,6.434258,4.896883,1.48351
2.459,0,1,0.000000,6.430825,4.896730,1.48404
2.460,0,1,0.000000,6.427270,4.896441,1.48524
2.461,0,1,0.000000,6.423583,4.896041,1.48414
2.462,0,1,0.000000,6.419894,4.895749,1.48363
2.463,0,1,0.000000,6.416206,4.895542,1.48278
2.464,0,1,0.000000,6.412548,4.895451,1.48396
2.465,0,1,0.000000,6.408921,4.895451,1.48287
2.466,0,1,0.000000,6.405295,4.895451,1.48167
2.467,0,1,0.000000,6.401669,4.895451,1.48404
2.468,0,1,0.000000,6.398548,4.895451,1.48231
2.469,0,1,0.000000,6.395987,4.895451,1.48353
2.470,0,1,0.000000,6.393426,4.895451,1.48261
2.471,0,1,0.000000,6.390866,4.895451,1.48183
2.472,0,1,1.996889,6.388395,4.895841,1.48263
2.473,1,1,5.588415,6.386022,4.896543,1.48456
2.474,1,1,7.183562,6.383650,4.897316,1.48344
2.475,1,1,7.184479,6.381277,4.898147,1.48363
2.476,1,1,7.185239,6.379899,4.898898,1.48483
2.477,1,1,7.185874,6.379624,4.899586,1.48425
2.478,1,1,7.186450,6.379349,4.900279,1.48441
2.479,1,1,7.186978,6.379075,4.900974,1.48557
2.480,1,1,7.187569,6.379338,4.901796,1.48412
2.481,1,1,7.188212,6.380199,4.902720,1.48347
2.482,1,1,7.188497,6.381060,4.903773,1.48531
2.483,1,1,7.188497,6.381920,4.904931,1.48261
2.484,1,1,7.188881,6.382812,4.906169,1.48398
2.485,1,1,7.189573,6.383737,4.907475,1.48544
2.486,1,1,7.190135,6.384662,4.908741,1.48611
2.487,1,1,7.190593,6.385588,4.909976,1.48286
2.488,1,1,7.190826,6.386686,4.911057,1.48411
2.489,1,1,7.190880,6.387975,4.912017,1.48486
2.490,1,1,7.191196,6.389265,4.912835,1.48265
2.491,1,1,7.191721,6.390554,4.913539,1.48330
2.492,1,1,7.191995,6.391822,4.914156,1.48445
2.493,1,1,7.192068,6.393066,4.914703,1.48623
2.494,1,1,7.192125,6.394311,4.915260,1.48297
2.495,1,1,7.192172,6.395555,4.915825,1.48221
2.496,1,1,7.192616,6.397005,4.916468,1.48484
2.497,1,1,7.193376,6.398683,4.917174,1.48342
2.498,1,1,7.194310,6.400360,4.917849,1.48436
2.499,1,1,7.195382,6.402038,4.918497,1.48508
2.500,1,1,7.196611,6.403840,4.919003,1.48529
2.501,1,1,7.197966,6.405779,4.919396,1.48643
2.502,1,1,7.199100,6.407718,4.919769,1.47983
2.503,1,1,7.200058,6.409657,4.920127,1.48510
2.504,1,1,7.200496,6.411640,4.920286,1.48432
2.505,1,1,7.200520,6.413671,4.920286,1.48403
2.506,1,1,7.200566,6.415703,4.920286,1.47670
2.507,1,1,7.200631,6.417734,4.920286,1.47881
2.508,1,1,7.200669,6.420052,4.920286,1.48459
2.509,1,1,7.200686,6.422688,4.920286,1.48616
2.510,1,1,7.200693,6.425323,4.920286,1.48408
2.511,1,1,7.200693,6.427959,4.920286,1.48517
2.512,1,1,7.200693,6.430876,4.919317,1.48411
2.513,1,1,7.200693,6.434105,4.917574,1.48448
2.514,1,1,7.200693,6.437334,4.915427,1.48415
2.515,1,1,7.200693,6.440562,4.912956,1.48373
2.516,1,1,7.200693,6.443586,4.910279,1.48314
2.517,1,1,7.200693,6.446383,4.907439,1.48439
2.518,1,1,7.200309,6.449181,4.904408,1.48381
2.519,1,1,7.199619,6.451978,4.901224,1.48484
2.520,1,1,7.198324,6.454729,4.897849,1.48365
2.521,1,1,7.196545,6.457429,4.894321,1.48443
2.522,1,1,7.194624,6.460129,4.890733,1.48539
2.523,1,1,7.192591,6.462829,4.887097,1.48384
2.524,1,0,7.190989,6.465260,3.527318,1.48411
2.525,1,0,7.189729,6.467391,1.084577,1.48374
2.526,1,0,7.188750,6.469522,0.000000,1.48329
2.527,1,0,7.187994,6.471654,0.000000,1.48447
2.528,1,0,7.187328,6.473646,0.000000,1.48205
2.529,1,0,7.186733,6.475482,0.000000,1.48275
2.530,1,0,7.186469,6.477319,0.000000,1.48322
2.531,1,0,7.186469,6.479155,0.000000,1.48471
2.532,1,0,7.186389,6.480525,0.000000,1.48329
2.533,1,0,7.186244,6.481376,0.000000,1.48358
2.534,1,0,7.186047,6.482227,0.000000,1.48350
2.535,1,0,7.185805,6.483078,0.000000,1.48362
2.536,1,0,7.185670,6.484145,0.000000,1.48849
2.537,1,0,7.185620,6.485450,0.000000,1.48397
2.538,1,0,7.185465,6.486755,0.000000,1.48303
2.539,1,0,7.185226,6.488060,0.000000,1.48320
2.540,1,0,7.185103,6.489850,0.000000,1.48481
2.541,1,0,7.185071,6.492177,0.000000,1.48356
2.542,1,0,7.184879,6.494503,0.000000,1.48403
2.543,1,0,7.184559,6.496830,0.000000,1.48406
2.544,1,0,7.184322,6.499282,0.000000,1.48344
2.545,1,0,7.184152,6.501871,0.000000,1.48510
2.546,1,0,7.184056,6.504460,0.000000,1.48301
2.547,1,0,7.184020,6.507050,0.000000,1.48296
2.548,1,0,7.183843,6.509293,0.000000,1.48432
2.549,1,0,7.183555,6.511153,0.000000,1.48287
2.550,1,0,7.183224,6.513013,0.000000,1.48382
2.551,1,0,7.182859,6.514873,0.000000,1.48307
2.552,1,0,7.182611,6.516836,0.000000,1.48499
2.553,1,0,7.182455,6.518912,0.000000,1.48319
2.554,1,0,7.182385,6.520988,0.000000,1.48389
2.555,1,0,7.182385,6.523064,0.000000,1.48402
2.556,1,0,7.182385,6.524990,0.000000,1.48342
2.557,1,0,7.182385,6.526748,0.000000,1.48343
2.558,1,0,7.182371,6.528506,0.000000,1.48194
2.559,1,0,7.182344,6.530264,0.000000,1.48168
2.560,1,0,7.182282,6.532131,0.000000,1.48448
2.561,1,0,7.182192,6.534121,0.000000,1.48431
2.562,1,0,7.182152,6.536109,0.000000,1.48460
2.563,1,0,7.182152,6.538099,0.000000,1.48325
2.564,1,0,7.182217,6.540454,0.000000,1.48521
2.565,1,0,7.182333,6.543217,0.000000,1.48466
2.566,1,0,7.182391,6.545979,0.000000,1.48466
2.567,1,0,7.182400,6.548741,0.000000,1.48383
2.568,1,0,7.182504,6.551586,0.000000,1.48427
2.569,1,0,7.182685,6.554522,0.000000,1.48459
2.570,1,0,7.182822,6.557457,0.000000,1.48475
2.571,1,0,7.182925,6.560393,0.000000,1.48787
2.572,1,0,7.183414,6.562923,0.000000,1.48463
2.573,1,0,7.184211,6.565001,0.000000,1.48419
2.574,1,0,7.184690,6.567079,0.000000,1.48395
2.575,1,0,7.184915,6.569157,0.000000,1.48386
2.576,1,0,7.185015,6.570648,0.000000,1.48555
2.577,1,0,7.185015,6.571487,0.000000,1.48412
2.578,1,0,7.185015,6.572326,0.000000,1.48386
2.579,1,0,7.185015,6.573165,0.000000,1.48497
2.580,1,0,7.185015,6.573314,0.000000,1.48370
2.581,1,0,7.185015,6.572696,0.000000,1.48471
