"Time","60 right DS","59 left DS","37a CoMy (cm)","37 CoMy (cm)","v1 xCoM","v3 L COP","v2 R COP","3 Platform"
0.000,0,1,1.220815,4.869742,4.949588,5.661963,0.000000,1.48383
0.001,0,1,1.255433,4.870843,4.952752,5.659661,0.000000,1.48372
0.002,0,1,1.290051,4.871945,4.955916,5.657824,0.000000,1.48256
0.003,0,1,1.348003,4.873321,4.959566,5.658651,0.000000,1.48498
0.004,0,1,1.413650,4.874788,4.963376,5.660008,0.000000,1.48583
0.005,0,1,1.479297,4.876255,4.967186,5.662135,0.000000,1.48387
0.006,0,1,1.544944,4.877721,4.970996,5.664414,0.000000,1.48321
0.007,0,1,1.624994,4.879088,4.975202,5.665450,0.000000,1.48365
0.008,0,1,1.709794,4.880423,4.979537,5.666237,0.000000,1.48190
0.009,0,1,1.794594,4.881757,4.983873,5.666068,0.000000,1.48315
0.010,0,1,1.879394,4.883092,4.988209,5.665709,0.000000,1.48509
0.011,0,1,1.975966,4.885125,4.992903,5.665171,0.000000,1.48499
0.012,0,1,2.076420,4.887387,4.997716,5.664597,0.000000,1.48548
0.013,0,1,2.176873,4.889650,5.002529,5.663879,0.000000,1.48452
0.014,0,1,2.277327,4.891913,5.007341,5.663134,0.000000,1.48316
0.015,0,1,2.372292,4.894572,5.012345,5.662226,0.000000,1.48396
0.016,0,1,2.465446,4.897362,5.017411,5.661287,0.000000,1.48265
0.017,0,1,2.558601,4.900152,5.022477,5.660868,0.000000,1.48246
0.018,0,1,2.651756,4.902942,5.027544,5.660553,0.000000,1.48235
0.019,0,1,2.740396,4.905437,5.032696,5.661368,0.000000,1.48213
0.020,0,1,2.827548,4.907836,5.037877,5.662408,0.000000,1.48340
0.021,0,1,2.914700,4.910235,5.043057,5.663973,0.000000,1.48412
0.022,0,1,3.001852,4.912633,5.048238,5.665643,0.000000,1.48332
0.023,0,1,3.076474,4.915887,5.053207,5.667231,0.000000,1.48669
0.024,0,1,3.146964,4.919423,5.058105,5.668802,0.000000,1.48265
0.025,0,1,3.217454,4.922959,5.063004,5.671227,0.000000,1.48356
0.026,0,1,3.287944,4.926495,5.067902,5.673822,0.000000,1.48454
0.027,0,1,3.342875,4.930079,5.072274,5.678208,0.000000,1.48366
0.028,0,1,3.392674,4.933681,5.076472,5.682950,0.000000,1.48250
0.029,0,1,3.442474,4.937281,5.080670,5.688447,0.000000,1.48194
0.030,0,1,3.492274,4.940882,5.084868,5.694094,0.000000,1.48356
0.031,0,1,3.535408,4.944357,5.088475,5.699399,0.000000,1.48408
0.032,0,1,3.576344,4.947791,5.091886,5.704635,0.000000,1.48194
0.033,0,1,3.617280,4.951225,5.095297,5.710670,0.000000,1.48502
0.034,0,1,3.658216,4.954659,5.098709,5.716864,0.000000,1.47998
0.035,0,1,3.666859,4.958368,5.101434,5.724771,0.000000,1.48449
0.036,0,1,3.664852,4.962168,5.103933,5.733019,0.000000,1.48082
0.037,0,1,3.662845,4.965969,5.106432,5.740017,0.000000,1.48506
0.038,0,1,3.660839,4.969769,5.108931,5.746767,0.000000,1.48239
0.039,0,1,3.631195,4.973629,5.110853,5.749382,0.000000,1.48468
0.040,0,1,3.592437,4.977510,5.112585,5.751173,0.000000,1.48501
0.041,0,1,3.553679,4.981391,5.114317,5.751255,0.000000,1.48407
0.042,0,1,3.514921,4.985272,5.116049,5.750997,0.000000,1.48190
0.043,0,1,3.437571,4.989106,5.117319,5.752779,0.000000,1.48205
0.044,0,1,3.347494,4.992926,5.118437,5.754969,0.000000,1.48568
0.045,0,1,3.257416,4.996745,5.119555,5.762145,0.000000,1.48220
0.046,0,1,3.167338,5.000565,5.120674,5.770313,0.000000,1.48340
0.047,0,1,3.049294,5.003598,5.121338,5.784462,0.000000,1.48336
0.048,0,1,2.922025,5.006371,5.121853,5.799803,0.000000,1.48265
0.049,0,1,2.794757,5.009146,5.122368,5.814336,0.000000,1.48457
0.050,0,1,2.667489,5.011919,5.122883,5.828708,0.000000,1.48493
0.051,0,1,2.543515,5.014398,5.123039,5.835283,0.000000,1.48352
0.052,0,1,2.420627,5.016779,5.123076,5.840305,0.000000,1.48246
0.053,0,1,2.297740,5.019161,5.123113,5.839597,0.000000,1.48496
0.054,0,1,2.174853,5.021542,5.123150,5.837749,0.000000,1.48346
0.055,1,1,2.068382,5.023363,5.122862,5.834569,1.612827,1.48256
0.056,1,1,1.967324,5.024998,5.122468,5.831123,3.546672,1.48554
0.057,1,1,1.866267,5.026634,5.122073,5.829717,3.869881,1.48251
0.058,1,1,1.765210,5.028270,5.121678,5.828716,3.872507,1.48504
0.059,1,1,1.697185,5.029709,5.121166,5.831703,3.876587,1.48324
0.060,1,1,1.640054,5.031084,5.120615,5.835483,3.880957,1.48497
0.061,1,1,1.582923,5.032458,5.120064,5.840079,3.882467,1.48435
0.062,1,1,1.525792,5.033833,5.119514,5.844838,3.883408,1.48239
0.063,1,1,1.481858,5.035350,5.119009,5.846633,3.877592,1.48227
0.064,1,1,1.442275,5.036916,5.118521,5.847838,3.870431,1.48419
0.065,1,1,1.402693,5.038481,5.118032,5.846078,3.860106,1.48326
0.066,1,1,1.363110,5.040046,5.117544,5.843728,3.849151,1.48280
0.067,1,1,1.337340,5.041325,5.117353,5.839704,3.839407,1.48290
0.068,1,1,1.316126,5.042509,5.117260,5.835347,3.829903,1.48518
0.069,1,1,1.294912,5.043693,5.117167,5.831605,3.819927,1.48402
0.070,1,1,1.273698,5.044877,5.117073,5.827987,3.809859,1.48337
0.071,1,1,1.258301,5.046148,5.117550,5.827236,3.796978,1.48491
0.072,1,1,1.244823,5.047447,5.118215,5.827057,3.783539,1.48336
0.073,1,1,1.231345,5.048747,5.118879,5.830552,3.769706,1.48518
0.074,1,1,1.217867,5.050046,5.119544,5.834778,3.755795,1.48036
0.075,1,1,1.207868,5.051126,5.120765,5.842383,3.745107,1.48212
0.076,1,1,1.199017,5.052135,5.122171,5.850660,3.735060,1.48304
0.077,1,1,1.190165,5.053143,5.123576,5.858897,3.731187,1.48289
0.078,1,1,1.181314,5.054151,5.124981,5.867126,3.728542,1.48316
0.079,1,1,1.191040,5.055340,5.126853,5.872156,3.733245,1.48503
0.080,1,1,1.206892,5.056590,5.128879,5.876549,3.739410,1.48356
0.081,1,1,1.222745,5.057840,5.130905,5.879754,3.746909,1.48042
0.082,1,1,1.238597,5.059090,5.132931,5.882723,3.754674,1.48310
0.083,1,1,1.267298,5.060316,5.135165,5.887005,3.757685,1.48243
0.084,1,1,1.300237,5.061535,5.137469,5.891548,3.759750,1.48488
0.085,1,1,1.333176,5.062754,5.139772,5.895504,3.759824,1.48394
0.086,1,1,1.366116,5.063973,5.142075,5.899344,3.759501,1.48259
0.087,1,1,1.419434,5.065145,5.144416,5.900377,3.761236,1.48311
0.088,1,1,1.479473,5.066299,5.146770,5.900850,3.763381,1.48226
0.089,1,1,1.539513,5.067454,5.149123,5.900455,3.766146,1.48254
0.090,1,1,1.599552,5.068609,5.151476,5.899889,3.769034,1.48342
0.091,1,1,1.667366,5.070308,5.153773,5.900742,3.770245,1.48432
0.092,1,1,1.737744,5.072187,5.156051,5.901878,3.771122,1.48518
0.093,1,1,1.808122,5.074065,5.158330,5.902966,3.771161,1.48321
0.094,1,1,1.878500,5.075943,5.160608,5.904042,3.771034,1.48382
0.095,1,1,1.939197,5.077992,5.162772,5.903231,3.771470,1.48366
0.096,1,1,1.996701,5.080097,5.164898,5.902043,3.772019,1.48286
0.097,1,1,2.054204,5.082202,5.167024,5.900259,3.773075,1.48246
0.098,1,1,2.111708,5.084307,5.169150,5.898357,3.774233,1.48260
0.099,1,1,2.147956,5.086615,5.171190,5.897712,3.775650,1.48264
0.100,1,1,2.177194,5.088991,5.173200,5.897316,3.777118,1.48115
0.101,1,1,2.206433,5.091366,5.175211,5.898554,3.779597,1.48356
0.102,1,1,2.235672,5.093742,5.177221,5.900118,3.782276,1.48251
0.103,1,1,2.230621,5.096227,5.179011,5.902859,3.786366,1.48347
0.104,1,1,2.214262,5.098749,5.180727,5.905836,3.790737,1.48149
0.105,1,1,2.197903,5.101270,5.182443,5.907647,3.794044,1.48326
0.106,1,1,2.181544,5.103792,5.184159,5.909226,3.797138,1.48310
0.107,1,1,2.147713,5.106008,5.185592,5.907623,3.797111,1.48153
0.108,1,1,2.108121,5.108124,5.186931,5.905385,3.796462,1.48338
0.109,1,1,2.068529,5.110239,5.188270,5.901833,3.796196,1.48000
0.110,1,1,2.028936,5.112355,5.189610,5.898018,3.796005,1.48243
0.111,1,1,1.978312,5.114312,5.190533,5.895263,3.799618,1.48295
0.112,1,1,1.924049,5.116216,5.191319,5.892720,3.803986,1.48342
0.113,1,1,1.869787,5.118121,5.192106,5.890944,3.808084,1.48314
0.114,1,1,1.815524,5.120025,5.192892,5.889322,3.812127,1.48552
0.115,1,1,1.760869,5.121666,5.193144,5.887659,3.811354,1.48583
0.116,1,1,1.706085,5.123219,5.193219,5.885987,3.809623,1.48330
0.117,1,1,1.651301,5.124773,5.193294,5.884531,3.805986,1.48432
0.118,1,1,1.596517,5.126326,5.193369,5.883118,3.801970,1.48274
0.119,1,1,1.545569,5.127947,5.192874,5.882433,3.800054,1.48347
0.120,1,1,1.495886,5.129591,5.192192,5.881894,3.798556,1.48545
0.121,1,1,1.446203,5.131234,5.191508,5.882388,3.798577,1.48598
0.122,1,1,1.396520,5.132878,5.190825,5.883088,3.798900,1.48508
0.123,1,1,1.344624,5.134196,5.189596,5.884534,3.799329,1.48351
0.124,1,1,1.291998,5.135407,5.188187,5.886129,3.799779,1.48381
0.125,1,1,1.239372,5.136618,5.186778,5.885760,3.801013,1.48498
0.126,1,1,1.186746,5.137829,5.185368,5.885000,3.802402,1.48085
0.127,1,1,1.134275,5.138925,5.183530,5.880208,3.805282,1.48322
0.128,1,1,1.081855,5.139982,5.181551,5.874613,3.808457,1.48157
0.129,1,1,1.029436,5.141040,5.179573,5.868900,3.811274,1.48381
0.130,1,1,0.977016,5.142097,5.177593,5.863165,3.814018,1.48452
0.131,1,1,0.915058,5.143052,5.175264,5.861523,3.814682,1.48359
0.132,1,1,0.849955,5.143972,5.172820,5.860697,3.814931,1.48380
0.133,1,1,0.784852,5.144892,5.170376,5.861856,3.815218,1.48371
0.134,1,1,0.719749,5.145812,5.167931,5.863410,3.815513,1.48402
0.135,1,1,0.651183,5.146490,5.165176,5.863691,3.818013,1.48265
0.136,1,1,0.581475,5.147088,5.162319,5.863719,3.820952,1.48326
0.137,1,1,0.511768,5.147686,5.159461,5.862093,3.823575,1.48517
0.138,1,1,0.442060,5.148283,5.156604,5.860139,3.826136,1.48437
0.139,1,1,0.361615,5.148713,5.153388,5.856975,3.825671,1.48528
0.140,1,1,0.277630,5.149087,5.150054,5.853570,3.824603,1.48343
0.141,1,1,0.193645,5.149461,5.146719,5.849444,3.822955,1.48377
0.142,1,1,0.109659,5.149835,5.143385,5.845176,3.821191,1.48299
0.143,1,1,0.023367,5.149788,5.139648,5.840847,3.821665,1.48284
0.144,1,1,-0.063685,5.149604,5.135778,5.836506,3.822584,1.48477
0.145,1,1,-0.150738,5.149419,5.131908,5.833473,3.823666,1.48295
0.146,1,1,-0.237790,5.149235,5.128038,5.830699,3.824780,1.48425
0.147,1,1,-0.326389,5.148928,5.123713,5.830134,3.823713,1.48452
0.148,1,1,-0.415498,5.148582,5.119239,5.830009,3.822210,1.48337
0.149,1,1,-0.504607,5.148235,5.114765,5.829980,3.821212,1.48331
0.150,1,1,-0.593716,5.147889,5.110291,5.829971,3.820314,1.48356
0.151,1,1,-0.679060,5.147108,5.105400,5.827914,3.822839,1.48392
0.152,1,1,-0.763162,5.146183,5.100370,5.825450,3.826045,1.48766
0.153,1,1,-0.847264,5.145258,5.095341,5.822495,3.830201,1.48394
0.154,1,1,-0.931367,5.144333,5.090312,5.819442,3.834548,1.48214
0.155,1,1,-1.019163,5.143341,5.084953,5.817852,3.836706,1.48240
0.156,1,1,-1.108178,5.142325,5.079484,5.816553,3.838429,1.48142
0.157,1,1,-1.197192,5.141310,5.074016,5.815737,3.838694,1.48026
0.158,1,1,-1.286207,5.140294,5.068548,5.815017,3.838667,1.48326
0.159,1,1,-1.383941,5.138877,5.062811,5.813446,3.838769,1.48331
0.160,1,1,-1.484551,5.137327,5.056986,5.811706,3.838896,1.48344
0.161,1,1,-1.585161,5.135777,5.051162,5.809934,3.839670,1.48325
0.162,1,1,-1.685771,5.134227,5.045337,5.808155,3.840572,1.48300
0.163,1,1,-1.790317,5.132617,5.039360,5.807380,3.842289,1.48326
0.164,1,1,-1.896160,5.130989,5.033332,5.806804,3.844167,1.48381
0.165,1,1,-2.002003,5.129360,5.027305,5.806483,3.846794,1.48341
0.166,1,1,-2.107846,5.127731,5.021277,5.806212,3.849569,1.48408
0.167,1,1,-2.220102,5.125410,5.015145,5.805075,3.852715,1.48285
0.168,1,1,-2.334473,5.122860,5.008978,5.803765,3.855934,1.48458
0.169,1,1,-2.448845,5.120310,5.002810,5.801064,3.858025,1.48331
0.170,1,1,-2.563216,5.117761,4.996644,5.798086,3.859891,1.48510
0.171,1,1,-2.664966,5.114919,4.990415,5.793676,3.859631,1.48249
0.172,1,1,-2.762554,5.111982,4.984166,5.788982,3.858948,1.48270
0.173,1,1,-2.860142,5.109045,4.977917,5.784249,3.858846,1.48286
0.174,1,1,-2.957729,5.106107,4.971668,5.779507,3.858860,1.48466
0.175,1,1,-3.044223,5.103060,4.965439,5.775997,3.861962,1.48336
0.176,1,1,-3.127059,5.099977,4.959217,5.772732,3.865679,1.48360
0.177,1,1,-3.209894,5.096893,4.952994,5.769604,3.869349,1.48346
0.178,1,1,-3.292730,5.093810,4.946772,5.766503,3.873009,1.48407
0.179,1,1,-3.360225,5.090291,4.940643,5.762151,3.873144,1.48412
0.180,1,1,-3.422661,5.086627,4.934545,5.757549,3.872577,1.48220
0.181,1,1,-3.485097,5.082964,4.928447,5.752004,3.870673,1.48352
0.182,1,1,-3.547533,5.079301,4.922349,5.746270,3.868502,1.48227
0.183,1,1,-3.597015,5.075635,4.916531,5.740451,3.867634,1.48452
0.184,1,1,-3.642225,5.071970,4.910804,5.734614,3.867026,1.48478
0.185,1,1,-3.687435,5.068303,4.905078,5.729865,3.865178,1.48633
0.186,1,1,-3.732645,5.064637,4.899351,5.725333,3.863083,1.48498
0.187,1,1,-3.776445,5.060898,4.893973,5.722657,3.857215,1.48306
0.188,1,1,-3.819780,5.057136,4.888710,5.720352,3.850595,1.48597
0.189,1,1,-3.863115,5.053373,4.883447,5.718444,3.844347,1.48423
0.190,1,1,-3.906450,5.049610,4.878184,5.716615,3.838172,1.48370
0.191,1,1,-3.937639,5.045565,4.873428,5.713557,3.836856,1.48356
0.192,1,1,-3.964821,5.041426,4.868838,5.710254,3.836508,1.48708
0.193,1,1,-3.992003,5.037288,4.864249,5.706182,3.838530,1.48317
0.194,1,1,-4.019185,5.033149,4.859660,5.701956,3.841023,1.48397
0.195,1,1,-4.035726,5.029150,4.855548,5.697924,3.842226,1.48382
0.196,1,1,-4.048757,5.025198,4.851594,5.693930,3.843171,1.48392
0.197,1,1,-4.061788,5.021245,4.847641,5.690696,3.842801,1.48463
0.198,1,1,-4.074819,5.017292,4.843687,5.687612,3.842168,1.48417
0.199,1,1,-4.068401,5.013002,4.840202,3.315579,3.841021,1.48332
0.200,1,0,-4.055568,5.008600,4.836872,0.472029,3.839772,1.47719
0.201,1,0,-4.042736,5.004199,4.833542,0.000000,3.837912,1.48474
0.202,1,0,-4.029903,4.999797,4.830212,0.000000,3.835931,1.48781
0.203,1,0,-3.996481,4.995666,4.827373,0.000000,3.833293,1.48481
0.204,1,0,-3.956267,4.991623,4.824697,0.000000,3.830526,1.48469
0.205,1,0,-3.916054,4.987581,4.822020,0.000000,3.828444,1.48235
0.206,1,0,-3.875841,4.983538,4.819343,0.000000,3.826499,1.48334
0.207,1,0,-3.829253,4.979716,4.817091,0.000000,3.826465,1.48402
0.208,1,0,-3.780564,4.975967,4.814979,0.000000,3.826812,1.48527
0.209,1,0,-3.731874,4.972219,4.812867,0.000000,3.827997,1.48305
0.210,1,0,-3.683185,4.968470,4.810755,0.000000,3.829349,1.48316
0.211,1,0,-3.623357,4.964948,4.809074,0.000000,3.830009,1.48623
0.212,1,0,-3.559855,4.961502,4.807535,0.000000,3.830530,1.48473
0.213,1,0,-3.496354,4.958055,4.805996,0.000000,3.829682,1.48309
0.214,1,0,-3.432853,4.954608,4.804458,0.000000,3.828561,1.48163
0.215,1,0,-3.370989,4.951221,4.803343,0.000000,3.825758,1.48388
0.216,1,0,-3.309666,4.947855,4.802368,0.000000,3.822619,1.48347
0.217,1,0,-3.248343,4.944487,4.801393,0.000000,3.818037,1.48113
0.218,1,0,-3.187020,4.941120,4.800417,0.000000,3.813167,1.48321
0.219,1,0,-3.121074,4.937844,4.799808,0.000000,3.807710,1.48445
0.220,1,0,-3.053604,4.934598,4.799320,0.000000,3.802136,1.48402
0.221,1,0,-2.986134,4.931352,4.798831,0.000000,3.798915,1.48092
0.222,1,0,-2.918664,4.928106,4.798342,0.000000,3.796162,1.48259
0.223,1,0,-2.851338,4.925397,4.798167,0.000000,3.798035,1.48159
0.224,1,0,-2.784059,4.922865,4.798095,0.000000,3.800829,1.48412
0.225,1,0,-2.716780,4.920333,4.798022,0.000000,3.804837,1.48246
0.226,1,0,-2.649502,4.917802,4.797950,0.000000,3.809088,1.48376
0.227,1,0,-2.585323,4.915281,4.798057,0.000000,3.810668,1.48360
0.228,1,0,-2.522167,4.912765,4.798222,0.000000,3.811718,1.48625
0.229,1,0,-2.459011,4.910248,4.798388,0.000000,3.811341,1.48225
0.230,1,0,-2.395855,4.907731,4.798553,0.000000,3.810680,1.48477
0.231,1,0,-2.335185,4.905396,4.798764,0.000000,3.810704,1.48312
0.232,1,0,-2.275334,4.903120,4.798989,0.000000,3.810863,1.48304
0.233,1,0,-2.215484,4.900845,4.799214,0.000000,3.811187,1.48357
0.234,1,0,-2.155633,4.898569,4.799439,0.000000,3.811543,1.48387
0.235,1,0,-2.095247,4.896472,4.799615,0.000000,3.811080,1.48362
0.236,1,0,-2.034683,4.894434,4.799775,0.000000,3.810455,1.48246
0.237,1,0,-1.974120,4.892396,4.799935,0.000000,3.809306,1.48321
0.238,1,0,-1.913557,4.890358,4.800095,0.000000,3.808053,1.48309
0.239,1,0,-1.856815,4.888499,4.800157,0.000000,3.806547,1.48427
0.240,1,0,-1.801333,4.886699,4.800188,0.000000,3.804992,1.48296
0.241,1,0,-1.745851,4.884900,4.800219,0.000000,3.801722,1.48331
0.242,1,0,-1.690369,4.883100,4.800249,0.000000,3.798112,1.48199
0.243,1,0,-1.638588,4.881462,4.800168,0.000000,3.791881,1.48444
0.244,1,0,-1.588029,4.879879,4.800048,0.000000,3.785130,1.48426
0.245,1,0,-1.537469,4.878294,4.799930,0.000000,3.779591,1.48291
0.246,1,0,-1.486909,4.876711,4.799811,0.000000,3.774294,1.48388
0.247,1,0,-1.450475,4.875541,4.799549,0.000000,3.773725,1.48324
0.248,1,0,-1.418698,4.874507,4.799240,0.000000,3.774096,1.48223
0.249,1,0,-1.386921,4.873474,4.798930,0.000000,3.775214,1.48428
0.250,1,0,-1.355144,4.872441,4.798621,0.000000,3.776482,1.48578
0.251,1,0,-1.335481,4.871019,4.798288,0.000000,3.773932,1.48535
0.252,1,0,-1.319812,4.869469,4.797947,0.000000,3.770622,1.48423
0.253,1,0,-1.304144,4.867919,4.797606,0.000000,3.765877,1.48402
0.254,1,0,-1.288475,4.866369,4.797265,0.000000,3.760847,1.48320
0.255,1,0,-1.286158,4.865155,4.796940,0.000000,3.757637,1.48416
0.256,1,0,-1.288244,4.864052,4.796621,0.000000,3.754789,1.48673
0.257,1,0,-1.290331,4.862948,4.796302,0.000000,3.752083,1.48408
0.258,1,0,-1.292417,4.861845,4.795982,0.000000,3.749406,1.48275
0.259,1,0,-1.303890,4.860637,4.795663,0.000000,3.744420,1.48326
0.260,1,0,-1.318458,4.859394,4.795344,0.000000,3.738975,1.48351
0.261,1,0,-1.333026,4.858150,4.795024,0.000000,3.731588,1.48317
0.262,1,0,-1.347594,4.856907,4.794705,0.000000,3.723814,1.48544
0.263,1,0,-1.357985,4.855608,4.794323,0.000000,3.715390,1.48412
0.264,1,0,-1.366998,4.854289,4.793920,0.000000,3.706836,1.48421
0.265,1,0,-1.376011,4.852971,4.793517,0.000000,3.699505,1.48535
0.266,1,0,-1.385023,4.851652,4.793114,0.000000,3.692417,1.48262
0.267,1,0,-1.383671,4.850042,4.792572,0.000000,3.687677,1.48301
0.268,1,0,-1.378900,4.848337,4.791984,0.000000,3.683403,1.48310
0.269,1,0,-1.374129,4.846631,4.791395,0.000000,3.678464,1.48411
0.270,1,0,-1.369358,4.844925,4.790807,0.000000,3.673392,1.48239
0.271,1,0,-1.344893,4.843478,4.790044,0.000000,3.665091,1.48331
0.272,1,0,-1.313934,4.842117,4.789224,0.000000,3.656148,1.48398
0.273,1,0,-1.282974,4.840755,4.788404,0.000000,3.648736,1.48432
0.274,1,0,-1.252014,4.839393,4.787583,0.000000,3.641628,1.48280
0.275,1,0,-1.211844,4.838107,4.786717,0.000000,3.640960,1.48342
0.276,1,0,-1.168635,4.836845,4.785836,0.000000,3.641573,1.48469
0.277,1,0,-1.125427,4.835583,4.784955,0.000000,3.644837,1.48311
0.278,1,0,-1.082219,4.834321,4.784073,0.000000,3.648628,1.48462
0.279,1,0,-1.045676,4.833398,4.783206,0.000000,3.650452,1.48466
0.280,1,0,-1.011331,4.832585,4.782345,0.000000,3.651885,1.48305
0.281,1,0,-0.976986,4.831773,4.781483,0.000000,3.654104,1.48349
0.282,1,0,-0.942641,4.830961,4.780621,0.000000,3.656479,1.48293
0.283,1,0,-0.924812,4.830227,4.779903,0.000000,3.662737,1.48401
0.284,1,0,-0.912429,4.829520,4.779233,0.000000,3.669768,1.48388
0.285,1,0,-0.900046,4.828813,4.778562,0.000000,3.675908,1.48395
0.286,1,0,-0.887663,4.828106,4.777892,0.000000,3.681870,1.48298
0.287,1,0,-0.892104,4.827335,4.777410,0.000000,3.682003,1.48443
0.288,1,0,-0.902093,4.826542,4.776989,0.000000,3.680976,1.48310
0.289,1,0,-0.912082,4.825750,4.776569,0.000000,3.678519,1.48210
0.290,1,0,-0.922070,4.824958,4.776149,0.000000,3.675777,1.48305
0.291,1,0,-0.939425,4.823873,4.775912,0.000000,3.676990,1.48387
0.292,1,0,-0.959209,4.822692,4.775735,0.000000,3.678990,1.47957
0.293,1,0,-0.978992,4.821511,4.775559,0.000000,3.682857,1.48689
0.294,1,0,-0.998776,4.820330,4.775382,0.000000,3.687096,1.48351
0.295,1,0,-1.013658,4.819384,4.775226,0.000000,3.689929,1.48467
0.296,1,0,-1.026922,4.818516,4.775076,0.000000,3.692482,1.48174
0.297,1,0,-1.040187,4.817648,4.774926,0.000000,3.694556,1.48391
0.298,1,0,-1.053451,4.816780,4.774776,0.000000,3.696533,1.48279
0.299,1,0,-1.053102,4.815653,4.774569,0.000000,3.699481,1.48397
0.300,1,0,-1.048265,4.814442,4.774342,0.000000,3.702623,1.48468
0.301,1,0,-1.043427,4.813231,4.774116,0.000000,3.705197,1.48407
0.302,1,0,-1.038589,4.812019,4.773889,0.000000,3.707658,1.48179
0.303,1,0,-1.015456,4.810830,4.773567,0.000000,3.707908,1.48346
0.304,1,0,-0.986289,4.809648,4.773214,0.000000,3.707718,1.48365
0.305,1,0,-0.957123,4.808466,4.772861,0.000000,3.707018,1.48326
0.306,1,0,-0.927956,4.807284,4.772508,0.000000,3.706216,1.48307
0.307,1,0,-0.889500,4.806296,4.772173,0.000000,3.706916,1.48104
0.308,1,0,-0.847981,4.805372,4.771845,0.000000,3.707914,1.48471
0.309,1,0,-0.806461,4.804449,4.771517,0.000000,3.709535,1.47672
0.310,1,0,-0.764941,4.803525,4.771189,0.000000,3.711280,1.48310
0.311,1,0,-0.727319,4.802917,4.771013,0.000000,3.712243,1.48427
0.312,1,0,-0.690983,4.802413,4.770889,0.000000,3.713050,1.48463
0.313,1,0,-0.654646,4.801910,4.770764,0.000000,3.712972,1.48330
0.314,1,0,-0.618310,4.801406,4.770639,0.000000,3.712717,1.48452
0.315,1,0,-0.596169,4.800956,4.770764,0.000000,3.711731,1.48387
0.316,1,0,-0.578710,4.800522,4.770971,0.000000,3.710598,1.48509
0.317,1,0,-0.561251,4.800089,4.771178,0.000000,3.708383,1.48463
0.318,1,0,-0.543792,4.799655,4.771384,0.000000,3.705951,1.48746
0.319,1,1,-0.535572,4.799299,4.771796,2.375799,3.702378,1.48533
0.320,1,1,-0.530398,4.798967,4.772276,5.224480,3.698577,1.48528
0.321,1,1,-0.525225,4.798635,4.772756,5.696148,3.695550,1.48479
0.322,1,1,-0.520052,4.798304,4.773235,5.694694,3.692678,1.48302
0.323,1,1,-0.515417,4.797614,4.773898,5.696239,3.692467,1.48216
0.324,1,1,-0.510959,4.796806,4.774622,5.698380,3.692786,1.48371
0.325,1,1,-0.506501,4.795998,4.775345,5.701319,3.694993,1.48285
0.326,1,1,-0.502043,4.795189,4.776069,5.704415,3.697577,1.48295
0.327,1,1,-0.488450,4.794514,4.776885,5.706112,3.700538,1.48421
0.328,1,1,-0.471846,4.793883,4.777731,5.707530,3.703575,1.48387
0.329,1,1,-0.455241,4.793252,4.778578,5.710763,3.705526,1.48297
0.330,1,1,-0.438636,4.792620,4.779424,5.714355,3.707261,1.48469
0.331,1,1,-0.415935,4.792333,4.780216,5.723042,3.707142,1.48421
0.332,1,1,-0.391224,4.792161,4.780990,5.732743,3.706655,1.48498
0.333,1,1,-0.366513,4.791987,4.781763,5.744204,3.706616,1.48401
0.334,1,1,-0.341802,4.791815,4.782537,5.756015,3.706666,1.48513
0.335,1,1,-0.306824,4.791584,4.783212,5.765118,3.709466,1.48508
0.336,1,1,-0.268461,4.791334,4.783855,5.773681,3.712812,1.48358
0.337,1,1,-0.230098,4.791083,4.784499,5.778382,3.717269,1.48432
0.338,1,1,-0.191735,4.790833,4.785142,5.782315,3.721946,1.48213
0.339,1,1,-0.152196,4.790505,4.785749,5.782772,3.725462,1.48256
0.340,1,1,-0.112268,4.790153,4.786345,5.782537,3.728746,1.48418
0.341,1,1,-0.072340,4.789800,4.786941,5.781940,3.730771,1.48407
0.342,1,1,-0.032413,4.789447,4.787536,5.781271,3.732546,1.48391
0.343,1,1,0.004557,4.789373,4.788186,5.782643,3.733688,1.48336
0.344,1,1,0.040550,4.789391,4.788854,5.784420,3.734704,1.48282
0.345,1,1,0.076544,4.789409,4.789522,5.783949,3.736211,1.48391
0.346,1,1,0.112538,4.789427,4.790190,5.783031,3.737816,1.48269
0.347,1,1,0.137040,4.789855,4.791010,5.775591,3.740664,1.48294
0.348,1,1,0.157753,4.790420,4.791882,5.766853,3.743760,1.48422
0.349,1,1,0.178465,4.790983,4.792753,5.755962,3.746542,1.48315
0.350,1,1,0.199178,4.791547,4.793625,5.744642,3.749262,1.48406
0.351,1,1,0.203260,4.791898,4.794615,5.736497,3.750119,1.48451
0.352,1,1,0.201856,4.792178,4.795645,5.728984,3.750606,1.48380
0.353,1,1,0.200453,4.792458,4.796675,5.723281,3.750667,1.48479
0.354,1,1,0.199050,4.792737,4.797705,5.717939,3.750644,1.48660
0.355,1,1,0.193109,4.792888,4.798841,5.712160,3.752195,1.48453
0.356,1,1,0.185670,4.792996,4.800014,5.706294,3.754058,1.48047
0.357,1,1,0.178232,4.793104,4.801186,5.702307,3.758202,1.48303
0.358,1,1,0.170794,4.793211,4.802358,5.698695,3.762801,1.48214
0.359,1,1,0.166309,4.793254,4.803634,5.699272,3.769488,1.48356
0.360,1,1,0.162797,4.793275,4.804943,5.700683,3.776591,1.48543
0.361,1,1,0.159285,4.793297,4.806253,5.702722,3.783168,1.48432
0.362,1,1,0.155773,4.793318,4.807563,5.704886,3.789639,1.48280
0.363,1,1,0.165712,4.793348,4.809000,5.703916,3.793171,1.48322
0.364,1,1,0.180087,4.793381,4.810479,5.702322,3.796118,1.48315
0.365,1,1,0.194462,4.793413,4.811958,5.700426,3.797720,1.48356
0.366,1,1,0.208836,4.793446,4.813437,5.698471,3.799055,1.48158
0.367,1,1,0.231552,4.793793,4.815014,5.699649,3.801094,1.48228
0.368,1,1,0.257018,4.794244,4.816624,5.701452,3.803272,1.48278
0.369,1,1,0.282484,4.794695,4.818233,5.704128,3.805112,1.48282
0.370,1,1,0.307950,4.795146,4.819843,5.706979,3.806885,1.48448
0.371,1,1,0.339816,4.795483,4.821531,5.707781,3.807217,1.48488
0.372,1,1,0.373793,4.795783,4.823246,5.708175,3.807261,1.48270
0.373,1,1,0.407771,4.796082,4.824960,5.707893,3.808429,1.48456
0.374,1,1,0.441748,4.796381,4.826674,5.707476,3.809820,1.48374
0.375,1,1,0.485537,4.796718,4.828570,5.708529,3.814833,1.48149
0.376,1,1,0.532563,4.797067,4.830525,5.709874,3.820567,1.48405
0.377,1,1,0.579588,4.797415,4.832480,5.712851,3.827431,1.48325
0.378,1,1,0.626614,4.797764,4.834435,5.716153,3.834520,1.48336
0.379,1,1,0.675658,4.798404,4.836586,5.720537,3.839709,1.48442
0.380,1,1,0.725369,4.799139,4.838802,5.725135,3.844520,1.48290
0.381,1,1,0.775079,4.799876,4.841018,5.729573,3.848339,1.48266
0.382,1,1,0.824789,4.800611,4.843234,5.733979,3.851959,1.48355
0.383,1,1,0.874500,4.801585,4.845616,5.736876,3.856158,1.48337
0.384,1,1,0.924210,4.802636,4.848054,5.739471,3.860471,1.48286
0.385,1,1,0.973920,4.803687,4.850493,5.739612,3.864901,1.48459
0.386,1,1,1.023630,4.804739,4.852931,5.739263,3.869353,1.48262
0.387,1,1,1.066262,4.805942,4.855459,5.736586,3.873073,1.48302
0.388,1,1,1.106560,4.807195,4.858016,5.733446,3.876647,1.48291
0.389,1,1,1.146858,4.808448,4.860574,5.732448,3.879495,1.48468
0.390,1,1,1.187156,4.809700,4.863132,5.731877,3.882198,1.48488
0.391,1,1,1.221365,4.810899,4.865742,5.737190,3.884467,1.48202
0.392,1,1,1.253566,4.812080,4.868370,5.743675,3.886650,1.48382
0.393,1,1,1.285768,4.813261,4.870998,5.750928,3.888885,1.48353
0.394,1,1,1.317969,4.814442,4.873626,5.758335,3.891130,1.48496
0.395,1,1,1.350503,4.815740,4.876415,5.760753,3.893906,1.48249
0.396,1,1,1.383146,4.817076,4.879258,5.762179,3.896788,1.48341
0.397,1,1,1.415790,4.818412,4.882100,5.761283,3.900392,1.48391
0.398,1,1,1.448433,4.819748,4.884943,5.759925,3.904139,1.48330
0.399,1,1,1.473860,4.821248,4.888008,5.760226,3.908367,1.48209
0.400,1,1,1.496907,4.822801,4.891147,5.760856,3.912691,1.48406
0.401,1,1,1.519955,4.824354,4.894286,5.762302,3.915671,1.48418
0.402,1,1,1.543002,4.825907,4.897425,5.763912,3.918384,1.48403
0.403,1,1,1.558478,4.827568,4.900823,5.764493,3.918264,1.48398
0.404,1,1,1.571456,4.829265,4.904307,5.764870,3.917581,1.48523
0.405,1,1,1.584435,4.830961,4.907790,5.764010,3.916122,1.48611
0.406,1,1,1.597414,4.832658,4.911274,5.762903,3.914510,1.48437
0.407,1,1,1.604110,4.834434,4.914967,5.760697,3.914542,1.48447
0.408,1,1,1.608735,4.836236,4.918728,5.758271,3.914901,1.48357
0.409,1,1,1.613359,4.838039,4.922489,5.754369,2.282422,1.48484
0.410,0,1,1.617984,4.839841,4.926250,5.750172,0.324942,1.48366
0.411,0,1,1.635778,4.841324,4.930200,5.744492,0.000000,1.48525
0.412,0,1,1.657916,4.842701,4.934211,5.738516,0.000000,1.48442
0.413,0,1,1.680055,4.844079,4.938222,5.733395,0.000000,1.48381
0.414,0,1,1.702193,4.845456,4.942234,5.728445,0.000000,1.48330
0.415,0,1,1.751736,4.846936,4.946461,5.726478,0.000000,1.48418
0.416,0,1,1.810318,4.848449,4.950761,5.725104,0.000000,1.48300
0.417,0,1,1.868899,4.849963,4.955060,5.724891,0.000000,1.48644
0.418,0,1,1.927481,4.851476,4.959360,5.724909,0.000000,1.48427
0.419,0,1,2.004606,4.853293,4.963892,5.723868,0.000000,1.48229
0.420,0,1,2.087846,4.855210,4.968502,5.722616,0.000000,1.48329
0.421,0,1,2.171086,4.857127,4.973112,5.721339,0.000000,1.48437
0.422,0,1,2.254327,4.859045,4.977722,5.720057,0.000000,1.48326
0.423,0,1,2.342040,4.861538,4.982598,5.720157,0.000000,1.48221
0.424,0,1,2.431228,4.864223,4.987564,5.720532,0.000000,1.48336
0.425,0,1,2.520417,4.866907,4.992528,5.721220,0.000000,1.48538
0.426,0,1,2.609605,4.869591,4.997494,5.721972,0.000000,1.48499
0.427,0,1,2.685496,4.872578,5.002675,5.721807,0.000000,1.48380
0.428,0,1,2.757002,4.875665,5.007926,5.721461,0.000000,1.48260
0.429,0,1,2.828508,4.878752,5.013179,5.721398,0.000000,1.48421
0.430,0,1,2.900013,4.881839,5.018431,5.721391,0.000000,1.48346
0.431,0,1,2.965522,4.884799,5.023841,5.723145,0.000000,1.48444
0.432,0,1,3.029053,4.887716,5.029304,5.725250,0.000000,1.48298
0.433,0,1,3.092584,4.890634,5.034766,5.728737,0.000000,1.48448
0.434,0,1,3.156116,4.893551,5.040228,5.732499,0.000000,1.48291
0.435,0,1,3.216490,4.896594,5.045728,5.737099,0.000000,1.48482
0.436,0,1,3.275824,4.899679,5.051240,5.741866,0.000000,1.48279
0.437,0,1,3.335158,4.902763,5.056752,5.748543,0.000000,1.48254
0.438,0,1,3.394492,4.905848,5.062264,5.755600,0.000000,1.48437
0.439,0,1,3.453118,4.909278,5.067572,5.765032,0.000000,1.48421
0.440,0,1,3.511511,4.912823,5.072813,5.774938,0.000000,1.48464
0.441,0,1,3.569904,4.916368,5.078053,5.782863,0.000000,1.48304
0.442,0,1,3.628296,4.919913,5.083293,5.790394,0.000000,1.48326
0.443,0,1,3.681925,4.923882,5.088075,5.792483,0.000000,1.48403
0.444,0,1,3.733982,4.927990,5.092707,5.793489,0.000000,1.48595
0.445,0,1,3.786039,4.932099,5.097338,5.795798,0.000000,1.48299
0.446,0,1,3.838096,4.936207,5.101970,5.798368,0.000000,1.48371
0.447,0,1,3.876393,4.940146,5.106000,5.808680,0.000000,1.48200
0.448,0,1,3.910151,4.944029,5.109832,5.820534,0.000000,1.48407
0.449,0,1,3.943910,4.947913,5.113664,5.832146,0.000000,1.47979
0.450,0,1,3.977669,4.951796,5.117496,5.843709,0.000000,1.48089
0.451,0,1,3.992968,4.955692,5.120778,5.846447,0.000000,1.48291
0.452,0,1,4.002179,4.959592,5.123878,5.847429,0.000000,1.48589
0.453,0,1,4.011391,4.963492,5.126978,5.846776,0.000000,1.48493
0.454,0,1,4.020602,4.967393,5.130078,5.845796,0.000000,1.48317
0.455,0,1,4.001915,4.971565,5.132684,5.851925,0.000000,1.48479
0.456,0,1,3.974027,4.975827,5.135127,5.859468,0.000000,1.48381
0.457,0,1,3.946140,4.980090,5.137569,5.869746,0.000000,1.48291
0.458,0,1,3.918252,4.984352,5.140012,5.880569,0.000000,1.48463
0.459,0,1,3.864043,4.988564,5.141982,5.887641,0.000000,1.48049
0.460,0,1,3.801152,4.992760,5.143796,5.893969,0.000000,1.48429
0.461,0,1,3.738262,4.996956,5.145610,5.897298,0.000000,1.48529
0.462,0,1,3.675372,5.001152,5.147424,5.900030,0.000000,1.48377
0.463,0,1,3.588737,5.004840,5.148745,5.902216,0.000000,1.48300
0.464,0,1,3.494271,5.008360,5.149903,5.904294,0.000000,1.48372
0.465,0,1,3.399805,5.011881,5.151062,5.906728,0.000000,1.48383
0.466,0,1,3.305339,5.015402,5.152220,5.909234,0.000000,1.48454
0.467,0,1,3.204924,5.018408,5.152897,5.912261,0.000000,1.48376
0.468,0,1,3.102549,5.021245,5.153416,5.915392,0.000000,1.48280
0.469,0,1,3.000173,5.024082,5.153935,5.917868,0.000000,1.48529
0.470,0,1,2.897797,5.026918,5.154454,5.920213,0.000000,1.48454
0.471,0,1,2.803308,5.029629,5.154644,5.920750,0.000000,1.48422
0.472,0,1,2.711420,5.032299,5.154725,5.920926,0.000000,1.48489
0.473,0,1,2.619532,5.034968,5.154806,5.919959,0.000000,1.48480
0.474,0,1,2.527644,5.037638,5.154887,5.918765,0.000000,1.48424
0.475,0,1,2.445839,5.040043,5.154773,5.917450,0.000000,1.48301
0.476,0,1,2.367359,5.042361,5.154595,5.916111,0.000000,1.48409
0.477,0,1,2.288880,5.044678,5.154418,5.914944,0.000000,1.48483
0.478,0,1,2.210400,5.046996,5.154240,5.913812,0.000000,1.48374
0.479,0,1,2.140407,5.049133,5.153967,5.912829,0.000000,1.48398
0.480,0,1,2.073213,5.051210,5.153664,5.911876,0.000000,1.48338
0.481,0,1,2.006019,5.053288,5.153361,5.910551,0.000000,1.48372
0.482,0,1,1.938825,5.055366,5.153058,5.909153,0.000000,1.48441
0.483,0,1,1.878905,5.057195,5.152744,5.907230,1.637199,1.48237
0.484,1,1,1.821384,5.058942,5.152428,5.905203,3.600267,1.48361
0.485,1,1,1.763863,5.060690,5.152111,5.904808,3.928110,1.48369
0.486,1,1,1.706342,5.062437,5.151795,5.904737,3.930478,1.48356
0.487,1,1,1.660990,5.063950,5.151538,5.908167,3.930502,1.48110
0.488,1,1,1.619652,5.065385,5.151300,5.912294,3.930060,1.48412
0.489,1,1,1.578313,5.066820,5.151063,5.917541,3.927982,1.48287
0.490,1,1,1.536975,5.068255,5.150826,5.923010,3.925578,1.48572
0.491,1,1,1.514311,5.069675,5.150665,5.926975,3.922541,1.48317
0.492,1,1,1.497806,5.071092,5.150528,5.930639,3.919378,1.48417
0.493,1,1,1.481300,5.072508,5.150392,5.934495,3.914199,1.48252
0.494,1,1,1.464795,5.073924,5.150255,5.938389,3.908619,1.48482
0.495,1,1,1.461176,5.075367,5.150119,5.944326,3.900249,1.48330
0.496,1,1,1.461806,5.076820,5.149984,5.950670,3.891323,1.48341
0.497,1,1,1.462437,5.078273,5.149848,5.956080,3.884636,1.48274
0.498,1,1,1.463068,5.079725,5.149713,5.961306,3.878396,1.48341
0.499,1,1,1.467894,5.081056,5.149580,5.962542,3.878580,1.48452
0.500,1,1,1.474102,5.082345,5.149447,5.962984,3.880044,1.48730
0.501,1,1,1.480311,5.083635,5.149314,5.962184,3.880873,1.48409
0.502,1,1,1.486520,5.084924,5.149182,5.961136,3.881577,1.48331
0.503,1,1,1.478202,5.086542,5.148977,5.961928,3.874154,1.48504
0.504,1,1,1.465094,5.088267,5.148748,5.963086,3.865114,1.48393
0.505,1,1,1.451986,5.089993,5.148520,5.963259,3.852868,1.48333
0.506,1,1,1.438878,5.091718,5.148291,5.963237,3.839984,1.48184
0.507,1,1,1.409350,5.093359,5.147864,5.959148,3.831136,1.48331
0.508,1,1,1.374407,5.094973,5.147373,5.954250,3.823091,1.48080
0.509,1,1,1.339464,5.096587,5.146881,5.948582,3.820953,1.48380
0.510,1,1,1.304521,5.098201,5.146389,5.942760,3.819992,1.48261
0.511,1,1,1.262038,5.099550,5.145575,5.940063,3.824570,1.48215
0.512,1,1,1.217069,5.100813,5.144654,5.937987,3.830251,1.48301
0.513,1,1,1.172099,5.102076,5.143734,5.937484,3.837845,1.48255
0.514,1,1,1.127130,5.103338,5.142814,5.937293,3.845819,1.48315
0.515,1,1,1.079543,5.104142,5.141461,5.936254,3.852033,1.48387
0.516,1,1,1.031091,5.104795,5.139966,5.935046,3.857898,1.48340
0.517,1,1,0.982640,5.105448,5.138471,5.933616,3.862293,1.48416
0.518,1,1,0.934189,5.106101,5.136976,5.932142,3.866395,1.48361
0.519,1,1,0.886864,5.106921,5.135008,5.931400,3.870206,1.48366
0.520,1,1,0.839911,5.107796,5.132885,5.930804,3.873959,1.48300
0.521,1,1,0.792957,5.108671,5.130762,5.929484,3.877541,1.48411
0.522,1,1,0.746004,5.109546,5.128638,5.928021,3.881089,1.48476
0.523,1,1,0.685110,5.110471,5.126075,5.924447,3.884352,1.48365
0.524,1,1,0.619619,5.111414,5.123368,5.920453,3.887558,1.48230
0.525,1,1,0.554129,5.112356,5.120660,5.916355,3.890656,1.48685
0.526,1,1,0.488638,5.113299,5.117953,5.912236,3.893733,1.48376
0.527,1,1,0.403280,5.113877,5.114820,5.910067,3.896784,1.48280
0.528,1,1,0.311370,5.114336,5.111546,5.908285,3.899830,1.48213
0.529,1,1,0.219459,5.114795,5.108272,5.906390,3.902117,1.48411
0.530,1,1,0.127549,5.115253,5.104998,5.904472,3.904254,1.48442
0.531,1,1,0.022896,5.115273,5.101381,5.899957,3.904969,1.48579
0.532,1,1,-0.085960,5.115147,5.097651,5.894925,3.905400,1.48426
0.533,1,1,-0.194815,5.115021,5.093921,5.888184,3.905085,1.48460
0.534,1,1,-0.303671,5.114895,5.090190,5.881103,3.904622,1.48312
0.535,1,1,-0.411008,5.114348,5.086208,5.873903,3.904220,1.48240
0.536,1,1,-0.517844,5.113662,5.082142,5.866679,3.903831,1.48452
0.537,1,1,-0.624680,5.112977,5.078076,5.859797,3.903192,1.48483
0.538,1,1,-0.731517,5.112290,5.074010,5.852983,3.902505,1.48113
0.539,1,1,-0.827254,5.111271,5.069832,5.846631,3.901163,1.48709
0.540,1,1,-0.919331,5.110141,5.065617,5.840370,3.899692,1.48463
0.541,1,1,-1.011407,5.109012,5.061402,5.834606,3.898165,1.48381
0.542,1,1,-1.103484,5.107882,5.057187,5.828940,3.896626,1.48388
0.543,1,1,-1.186088,5.106750,5.052922,5.823473,3.895838,1.48397
0.544,1,1,-1.265569,5.105616,5.048642,5.818045,3.895201,1.48239
0.545,1,1,-1.345049,5.104483,5.044361,5.811130,3.895796,1.48417
0.546,1,1,-1.424529,5.103350,5.040080,5.803919,3.896637,1.48356
0.547,1,1,-1.501022,5.101873,5.035891,5.793854,3.898938,1.48451
0.548,1,1,-1.576528,5.100283,5.031732,5.783222,3.901529,1.48251
0.549,1,0,-1.652035,5.098693,5.027574,3.370589,3.905071,1.48488
0.550,1,0,-1.727541,5.097104,5.023415,0.479861,3.908801,1.48337
0.551,1,0,-1.794373,5.095168,5.019558,0.000000,3.912592,1.48705
0.552,1,0,-1.858344,5.093118,5.015802,0.000000,3.916395,1.48367
0.553,1,0,-1.922314,5.091069,5.012045,0.000000,3.918589,1.48382
0.554,1,0,-1.986285,5.089019,5.008289,0.000000,3.920462,1.48528
0.555,1,0,-2.041002,5.086918,5.004922,0.000000,3.919513,1.48420
0.556,1,0,-2.092667,5.084802,5.001684,0.000000,3.918002,1.48440
0.557,1,0,-2.144331,5.082685,4.998446,0.000000,3.915528,1.48399
0.558,1,0,-2.195996,5.080568,4.995207,0.000000,3.912862,1.48510
0.559,1,0,-2.222445,5.078233,4.992388,0.000000,3.911243,1.48640
0.560,1,0,-2.240577,5.075827,4.989707,0.000000,3.909833,1.48285
0.561,1,0,-2.258709,5.073420,4.987026,0.000000,3.908249,1.48552
0.562,1,0,-2.276841,5.071013,4.984344,0.000000,3.906631,1.48320
0.563,1,0,-2.275513,5.068612,4.982028,0.000000,3.903312,1.48587
0.564,1,0,-2.267767,5.066212,4.979832,0.000000,3.899655,1.48356
0.565,1,0,-2.260021,5.063812,4.977636,0.000000,3.895535,1.48330
0.566,1,0,-2.252275,5.061412,4.975440,0.000000,3.891322,1.48447
0.567,1,0,-2.223469,5.058978,4.973570,0.000000,3.888395,1.48236
0.568,1,0,-2.187719,5.056531,4.971809,0.000000,3.885723,1.48306
0.569,1,0,-2.151968,5.054085,4.970047,0.000000,3.884873,1.48307
0.570,1,0,-2.116218,5.051639,4.968286,0.000000,3.884386,1.48339
0.571,1,0,-2.069120,5.049693,4.966888,0.000000,3.885607,1.48483
0.572,1,0,-2.018280,5.047912,4.965609,0.000000,3.887168,1.48122
0.573,1,0,-1.967440,5.046132,4.964331,0.000000,3.888937,1.48311
0.574,1,0,-1.916599,5.044351,4.963052,0.000000,3.890748,1.48424
0.575,1,0,-1.864360,5.042424,4.962223,0.000000,3.891266,1.48229
0.576,1,0,-1.811660,5.040450,4.961542,0.000000,3.891528,1.48343
0.577,1,0,-1.758959,5.038476,4.960862,0.000000,3.890779,1.48406
0.578,1,0,-1.706259,5.036501,4.960181,0.000000,3.889830,1.48295
0.579,1,0,-1.662489,5.034920,4.959918,0.000000,3.888759,1.48406
0.580,1,0,-1.621665,5.033467,4.959794,0.000000,3.887664,1.48402
0.581,1,0,-1.580841,5.032015,4.959670,0.000000,3.887803,1.48367
0.582,1,0,-1.540017,5.030563,4.959546,0.000000,3.888188,1.48407
0.583,1,0,-1.509123,5.029160,4.959747,0.000000,3.890580,1.48449
0.584,1,0,-1.481503,5.027775,4.960057,0.000000,3.893373,1.48306
0.585,1,0,-1.453884,5.026389,4.960367,0.000000,3.895723,1.48518
0.586,1,0,-1.426265,5.025003,4.960677,0.000000,3.897985,1.48391
0.587,1,0,-1.400167,5.023713,4.961102,0.000000,3.897472,1.48406
0.588,1,0,-1.374572,5.022453,4.961566,0.000000,3.896407,1.48438
0.589,1,0,-1.348977,5.021194,4.962030,0.000000,3.894884,1.48572
0.590,1,0,-1.323382,5.019935,4.962494,0.000000,3.893270,1.48376
0.591,1,0,-1.288185,5.018422,4.962883,0.000000,3.894091,1.48407
0.592,1,0,-1.249822,5.016825,4.963248,0.000000,3.895395,1.48240
0.593,1,0,-1.211459,5.015228,4.963613,0.000000,3.898666,1.48316
0.594,1,0,-1.173096,5.013631,4.963977,0.000000,3.902328,1.48416
0.595,1,0,-1.122287,5.012465,4.964099,0.000000,3.906869,1.48393
0.596,1,0,-1.067374,5.011439,4.964140,0.000000,3.911585,1.48336
0.597,1,0,-1.012461,5.010413,4.964182,0.000000,3.917582,1.48215
0.598,1,0,-0.957547,5.009387,4.964223,0.000000,3.923833,1.48352
0.599,1,0,-0.902834,5.008410,4.964016,0.000000,3.931452,1.48248
0.600,1,0,-0.848186,5.007449,4.963727,0.000000,3.939343,1.48342
0.601,1,0,-0.793539,5.006487,4.963438,0.000000,3.945362,1.48467
0.602,1,0,-0.738891,5.005526,4.963149,0.000000,3.951009,1.48529
0.603,1,0,-0.696540,5.005085,4.962622,0.000000,3.952104,1.48436
0.604,1,0,-0.658244,5.004817,4.962017,0.000000,3.952292,1.48301
0.605,1,0,-0.619948,5.004548,4.961411,0.000000,3.952039,1.48448
0.606,1,0,-0.581652,5.004279,4.960805,0.000000,3.951698,1.48431
0.607,1,0,-0.571582,5.003930,4.960019,0.000000,3.955194,1.48502
0.608,1,0,-0.570819,5.003554,4.959174,0.000000,3.959452,1.48434
0.609,1,0,-0.570057,5.003178,4.958329,0.000000,3.963907,1.48381
0.610,1,0,-0.569294,5.002802,4.957484,0.000000,3.968402,1.48360
0.611,1,0,-0.589311,5.002248,4.956458,0.000000,3.968785,1.48430
0.612,1,0,-0.616180,5.001634,4.955373,0.000000,3.968349,1.48554
0.613,1,0,-0.643049,5.001020,4.954288,0.000000,3.966599,1.48307
0.614,1,0,-0.669919,5.000406,4.953204,0.000000,3.964586,1.48548
0.615,1,0,-0.712129,4.999685,4.951870,0.000000,3.964983,1.48249
0.616,1,0,-0.759398,4.998930,4.950455,0.000000,3.965860,1.48344
0.617,1,0,-0.806666,4.998173,4.949040,0.000000,3.967985,1.48366
0.618,1,0,-0.853935,4.997417,4.947625,0.000000,3.970359,1.48428
0.619,1,0,-0.902629,4.996592,4.945728,0.000000,3.971895,1.48382
0.620,1,0,-0.951793,4.995742,4.943673,0.000000,3.973265,1.48315
0.621,1,0,-1.000957,4.994893,4.941617,0.000000,3.973774,1.48499
0.622,1,0,-1.050121,4.994043,4.939562,0.000000,3.974112,1.48372
0.623,1,0,-1.090317,4.992862,4.936920,0.000000,3.973800,1.48243
0.624,1,0,-1.127555,4.991572,4.934084,0.000000,3.973359,1.48442
0.625,1,0,-1.164793,4.990281,4.931249,0.000000,3.970902,1.48341
0.626,1,0,-1.202031,4.988991,4.928413,0.000000,3.968043,1.48238
0.627,1,0,-1.232883,4.987628,4.924903,0.000000,3.962258,1.48340
0.628,1,0,-1.261630,4.986240,4.921172,0.000000,3.955890,1.48247
0.629,1,0,-1.290377,4.984852,4.917439,0.000000,3.949769,1.48361
0.630,1,0,-1.319124,4.983465,4.913708,0.000000,3.943698,1.48311
0.631,1,0,-1.346748,4.982047,4.909472,0.000000,3.941149,1.48409
0.632,1,0,-1.374002,4.980619,4.905072,0.000000,3.939301,1.48269
0.633,1,0,-1.401257,4.979192,4.900671,0.000000,3.939493,1.48391
0.634,1,0,-1.428511,4.977765,4.896270,0.000000,3.940092,1.48376
0.635,1,0,-1.471449,4.976515,4.891531,0.000000,3.940275,1.48430
0.636,1,0,-1.519560,4.975323,4.886679,0.000000,3.940377,1.48250
0.637,1,0,-1.567671,4.974132,4.881828,0.000000,3.939301,1.48396
0.638,1,0,-1.615782,4.972940,4.876977,0.000000,3.937991,1.48265
0.639,1,0,-1.689645,4.971399,4.871917,0.000000,3.935714,1.48341
0.640,1,0,-1.772002,4.969742,4.866787,0.000000,3.933245,1.48219
0.641,1,0,-1.854358,4.968086,4.861657,0.000000,3.932261,1.48314
0.642,1,0,-1.936714,4.966429,4.856527,0.000000,3.931573,1.48155
0.643,1,0,-2.037681,4.964524,4.851235,0.000000,3.934161,1.48386
0.644,1,0,-2.144786,4.962536,4.845890,0.000000,3.937402,1.48593
0.645,1,0,-2.251890,4.960549,4.840544,0.000000,3.939859,1.48346
0.646,1,0,-2.358995,4.958561,4.835199,0.000000,3.942160,1.48240
0.647,1,0,-2.475260,4.955985,4.829670,0.000000,3.939549,1.48417
0.648,1,0,-2.594546,4.953214,4.824081,0.000000,3.935961,1.48333
0.649,1,0,-2.713833,4.950443,4.818492,0.000000,3.930515,1.48437
0.650,1,0,-2.833119,4.947672,4.812904,0.000000,3.924699,1.48211
0.651,1,0,-2.935107,4.944578,4.807126,0.000000,3.921155,1.48502
0.652,1,0,-3.031391,4.941376,4.801286,0.000000,3.918064,1.48345
0.653,1,0,-3.127675,4.938175,4.795446,0.000000,3.917062,1.48398
0.654,1,0,-3.223959,4.934973,4.789606,0.000000,3.916477,1.48322
0.655,1,0,-3.302168,4.931589,4.783606,0.000000,3.916588,1.48255
0.656,1,0,-3.374416,4.928145,4.777552,0.000000,3.916837,1.48383
0.657,1,0,-3.446665,4.924701,4.771499,0.000000,3.916430,1.48331
0.658,1,0,-3.518913,4.921256,4.765446,0.000000,3.915892,1.48386
0.659,1,0,-3.570918,4.917458,4.759430,0.000000,3.913699,1.48331
0.660,1,0,-3.616247,4.913542,4.753427,0.000000,3.911177,1.48300
0.661,1,0,-3.661577,4.909626,4.747423,0.000000,3.907560,1.48230
0.662,1,0,-3.706906,4.905711,4.741420,0.000000,3.903726,1.48300
0.663,1,0,-3.747742,4.901975,4.735743,0.000000,3.899497,1.48399
0.664,1,0,-3.787096,4.898299,4.730173,0.000000,3.895190,1.48387
0.665,1,0,-3.826450,4.894622,4.724603,0.000000,3.889826,1.48406
0.666,1,0,-3.865804,4.890945,4.719033,0.000000,3.884252,1.48402
0.667,1,0,-3.905711,4.887149,4.714040,0.000000,3.877184,1.48269
0.668,1,0,-3.945800,4.883314,4.709238,0.000000,3.869819,1.48356
0.669,1,0,-3.985889,4.879478,4.704436,0.000000,3.863284,1.48332
0.670,1,0,-4.025978,4.875643,4.699634,0.000000,3.856914,1.48290
0.671,1,0,-4.058698,4.871623,4.695621,0.000000,3.853311,1.48245
0.672,1,0,-4.088986,4.867543,4.691866,0.000000,3.850259,1.48367
0.673,1,0,-4.119276,4.863462,4.688112,0.000000,3.846643,1.48448
0.674,1,0,-4.149565,4.859382,4.684358,0.000000,3.842916,1.48412
0.675,1,0,-4.165268,4.854960,4.681441,0.000000,3.834910,1.48295
0.676,1,0,-4.176160,4.850426,4.678800,0.000000,3.826053,1.48448
0.677,1,0,-4.187053,4.845891,4.676158,0.000000,3.814207,1.48373
0.678,1,0,-4.197946,4.841357,4.673517,0.000000,3.801767,1.48423
0.679,1,0,-4.177233,4.836964,4.671753,0.000000,3.788873,1.48534
0.680,1,0,-4.146097,4.832618,4.670278,0.000000,3.775888,1.48438
0.681,1,0,-4.114961,4.828272,4.668803,0.000000,3.764206,1.48452
0.682,1,0,-4.083825,4.823926,4.667327,0.000000,3.752783,1.48194
0.683,1,0,-4.023519,4.819840,4.666737,0.000000,3.743751,1.48340
0.684,1,0,-3.953593,4.815839,4.666438,0.000000,3.735194,1.48390
0.685,1,0,-3.883667,4.811838,4.666139,0.000000,3.728083,1.48305
0.686,1,0,-3.813740,4.807837,4.665840,0.000000,3.721260,1.48428
0.687,1,0,-3.712253,4.804010,4.666472,0.000000,3.715030,1.48349
0.688,1,0,-3.600358,4.800242,4.667412,0.000000,3.708918,1.48396
0.689,1,0,-3.488463,4.796474,4.668353,0.000000,3.705562,1.48234
0.690,1,0,-3.376567,4.792706,4.669292,0.000000,3.702755,1.48459
0.691,1,0,-3.246233,4.789375,4.671257,0.000000,3.704543,1.48605
0.692,1,0,-3.109818,4.786189,4.673560,0.000000,3.707246,1.48449
0.693,1,0,-2.973403,4.783002,4.675862,0.000000,3.711063,1.48538
0.694,1,0,-2.836988,4.779816,4.678165,0.000000,3.715102,1.48286
0.695,1,0,-2.687376,4.777033,4.681525,0.000000,3.716411,1.48443
0.696,1,0,-2.533412,4.774384,4.685234,0.000000,3.717177,1.48427
0.697,1,0,-2.379448,4.771734,4.688942,0.000000,3.716535,1.48754
0.698,1,0,-2.225485,4.769084,4.692651,0.000000,3.715614,1.48320
0.699,1,0,-2.063565,4.767168,4.697329,0.000000,3.715433,1.48371
0.700,1,0,-1.899021,4.765493,4.702326,0.000000,3.715400,1.48382
0.701,1,0,-1.734478,4.763819,4.707324,0.000000,3.715387,1.48485
0.702,1,0,-1.569934,4.762145,4.712321,0.000000,3.715378,1.48433
0.703,1,0,-1.397987,4.760794,4.718027,0.000000,3.713851,1.48287
0.704,1,0,-1.223599,4.759551,4.723966,0.000000,3.712022,1.48295
0.705,1,0,-1.049211,4.758308,4.729905,2.326435,3.707109,1.48382
0.706,1,1,-0.874822,4.757065,4.735844,5.115925,3.701583,1.48776
0.707,1,1,-0.690452,4.756269,4.742217,5.579001,3.692626,1.48671
0.708,1,1,-0.502789,4.755621,4.748732,5.579026,3.682988,1.48355
0.709,1,1,-0.315126,4.754973,4.755247,5.579798,3.675121,1.48416
0.710,1,1,-0.127464,4.754326,4.761762,5.580719,3.667608,1.48395
0.711,1,1,0.065524,4.754304,4.768416,5.581532,3.666561,1.48127
0.712,1,1,0.260267,4.754489,4.775118,5.582324,3.666801,1.48068
0.713,1,1,0.455010,4.754674,4.781819,5.582541,3.668814,1.48157
0.714,1,1,0.649754,4.754859,4.788521,5.582644,3.671180,1.47710
0.715,1,1,0.837264,4.755899,4.795102,5.582424,3.669727,1.47829
0.716,1,1,1.022388,4.757223,4.801644,5.582139,3.667513,1.47336
0.717,1,1,1.207513,4.758545,4.808186,5.584539,3.663836,1.47309
0.718,1,1,1.392637,4.759869,4.814728,5.587472,3.659866,1.47100
0.719,1,1,1.554499,4.761650,4.820976,5.595490,3.658051,1.46724
0.720,1,1,1.708689,4.763583,4.827127,5.604518,3.656664,1.46133
0.721,1,1,1.862878,4.765515,4.833279,5.614760,3.656606,1.45706
0.722,1,1,2.017068,4.767448,4.839430,5.625244,3.656812,1.44955
0.723,1,1,2.134897,4.769827,4.845065,5.632835,3.656972,1.44139
0.724,1,1,2.240735,4.772354,4.850529,5.639849,3.657123,1.43498
0.725,1,1,2.346573,4.774880,4.855994,5.646815,3.659058,1.42613
0.726,1,1,2.452411,4.777407,4.861459,5.653770,3.661347,1.41919
0.727,1,1,2.524967,4.780079,4.866345,5.663940,3.667096,1.41343
0.728,1,1,2.586546,4.782800,4.871040,5.674750,3.673533,1.40461
0.729,1,1,2.648125,4.785521,4.875736,5.685033,3.680318,1.39695
0.730,1,1,2.709704,4.788241,4.880431,5.695212,3.687172,1.38990
0.731,1,1,2.732933,4.791183,4.884440,5.700532,3.691103,1.36629
0.732,1,1,2.743515,4.794197,4.888224,5.704885,3.694452,1.35818
0.733,1,1,2.754098,4.797211,4.892007,5.706321,3.697003,1.34372
0.734,1,1,2.764680,4.800224,4.895790,5.707176,3.699395,1.33481
0.735,1,1,2.745502,4.803067,4.898800,5.708303,3.703544,1.32242
0.736,1,1,2.716509,4.805853,4.901556,5.709485,3.708043,1.30896
0.737,1,1,2.687517,4.808639,4.904310,5.711766,3.711905,1.29483
0.738,1,1,2.658524,4.811425,4.907065,5.714266,3.715640,1.27030
0.739,1,1,2.607925,4.814325,4.909010,5.717495,3.716179,1.25953
0.740,1,1,2.550200,4.817264,4.910688,5.720870,3.716082,1.24529
0.741,1,1,2.492476,4.820201,4.912366,5.722209,3.715816,1.23316
0.742,1,1,2.434751,4.823139,4.914044,5.723143,3.715516,1.21617
0.743,1,1,2.364019,4.825345,4.915056,5.720005,3.718488,1.20158
0.744,1,1,2.288996,4.827309,4.915849,5.716056,3.722111,1.18132
0.745,1,1,2.213974,4.829272,4.916642,5.712368,3.727175,1.15646
0.746,1,1,2.138951,4.831236,4.917435,5.708732,3.732525,1.14043
0.747,1,1,2.063548,4.833203,4.917788,5.709882,3.736567,1.12086
0.748,1,1,1.988019,4.835171,4.917995,5.711985,3.740350,1.10392
0.749,1,1,1.912490,4.837139,4.918203,5.716144,3.742661,1.08604
0.750,1,1,1.836961,4.839107,4.918411,5.720713,3.744680,1.07209
0.751,1,1,1.758085,4.840962,4.918376,5.723516,3.745982,1.04117
0.752,1,1,1.678106,4.842780,4.918262,5.725967,3.747141,1.01465
0.753,1,1,1.598126,4.844598,4.918149,5.727165,3.749167,0.99564
0.754,1,1,1.518147,4.846416,4.918034,5.728114,3.751366,0.97759
0.755,1,1,1.443880,4.847883,4.917844,5.729157,3.755466,0.95530
0.756,1,1,1.371498,4.849234,4.917628,5.730219,3.759944,0.93771
0.757,1,1,1.299115,4.850585,4.917412,5.730942,3.763799,0.91799
0.758,1,1,1.226733,4.851935,4.917196,5.731598,3.767530,0.88786
0.759,1,1,1.164158,4.852942,4.917036,5.731474,3.768420,0.85155
0.760,1,1,1.104816,4.853836,4.916894,5.731195,3.768745,0.83282
0.761,1,1,1.045475,4.854729,4.916752,5.731931,3.769948,0.81225
0.762,1,1,0.986133,4.855622,4.916610,5.732869,3.771327,0.78755
0.763,1,1,0.949045,4.856435,4.916490,5.736495,3.777408,0.76716
0.764,1,1,0.919294,4.857222,4.916378,5.740657,3.784425,0.74238
0.765,1,1,0.889544,4.858008,4.916266,5.745779,3.792843,0.71293
0.766,1,1,0.859794,4.858795,4.916154,5.751092,3.801539,0.67677
0.767,1,1,0.859481,4.859438,4.916165,5.755294,3.807313,0.65271
0.768,1,1,0.868876,4.860034,4.916217,5.759276,3.812506,0.62912
0.769,1,1,0.878272,4.860630,4.916269,5.762891,3.814944,0.60633
0.770,1,1,0.887667,4.861225,4.916320,5.766432,3.816834,0.58135
0.771,1,1,0.908525,4.862054,4.916395,5.770550,3.817241,0.55919
0.772,1,1,0.933164,4.862961,4.916478,5.774783,3.817353,0.52460
0.773,1,1,0.957803,4.863867,4.916561,5.777844,3.816507,0.48610
0.774,1,1,0.982442,4.864773,4.916644,5.780671,3.815470,0.46131
0.775,1,1,1.008811,4.865849,4.916685,5.780665,3.813818,0.43495
0.776,1,1,1.035750,4.866982,4.916712,5.780095,3.812044,0.41071
0.777,1,1,1.062689,4.868114,4.916739,5.778867,3.810136,0.38625
0.778,1,1,1.089627,4.869246,4.916767,5.777508,3.808200,0.35036
0.779,1,1,1.109150,4.870613,4.916688,5.778116,3.806804,0.31030
0.780,1,1,1.126227,4.872056,4.916574,5.779115,3.805516,0.28308
0.781,1,1,1.143303,4.873498,4.916460,5.781841,3.806146,0.26051
0.782,1,1,1.160380,4.874941,4.916346,5.784911,3.807158,0.23105
0.783,1,1,1.159627,4.875963,4.916039,5.788575,3.811192,0.20904
0.784,1,1,1.152993,4.876846,4.915668,5.792356,3.815827,0.18200
0.785,1,1,1.146360,4.877729,4.915297,5.795216,3.822428,0.13272
0.786,1,1,1.139726,4.878612,4.914925,5.797893,3.829420,0.10737
0.787,1,1,1.122072,4.879775,4.914240,5.798629,3.836696,0.07945
0.788,1,1,1.100783,4.881031,4.913452,5.798978,3.844028,0.04661
0.789,1,1,1.079494,4.882287,4.912664,5.799090,3.849891,0.02873
0.790,1,1,1.058206,4.883542,4.911876,5.799155,3.855460,0.00398
0.791,1,1,1.012124,4.884843,4.910586,5.800695,3.858499,-0.03146
0.792,1,1,0.957867,4.886158,4.909130,5.802528,3.861035,-0.07465
0.793,1,1,0.903609,4.887474,4.907675,5.804116,3.863213,-0.10004
0.794,1,1,0.849351,4.888789,4.906219,5.805655,3.865320,-0.12711
0.795,0,1,0.785705,4.889561,4.904174,5.804852,2.253685,-0.15561
0.796,0,1,0.718963,4.890152,4.901934,5.803583,0.320851,-0.17673
0.797,0,1,0.652221,4.890745,4.899693,5.800570,0.000000,-0.21270
0.798,0,1,0.585478,4.891336,4.897453,5.797210,0.000000,-0.25690
0.799,0,1,0.502678,4.891881,4.894639,5.793255,0.000000,-0.28131
0.800,0,1,0.414583,4.892410,4.891637,5.789183,0.000000,-0.30562
0.801,0,1,0.326487,4.892939,4.888635,5.784715,0.000000,-0.33035
0.802,0,1,0.238391,4.893468,4.885633,5.780167,0.000000,-0.35564
0.803,0,1,0.143062,4.893491,4.882157,5.775323,0.000000,-0.38709
0.804,0,1,0.045348,4.893347,4.878525,5.770420,0.000000,-0.43089
0.805,0,1,-0.052366,4.893203,4.874894,5.766088,0.000000,-0.45609
0.806,0,1,-0.150081,4.893060,4.871263,5.761871,0.000000,-0.48187
0.807,0,1,-0.255706,4.892923,4.867293,5.758945,0.000000,-0.50613
0.808,0,1,-0.363941,4.892788,4.863213,5.756275,0.000000,-0.52974
0.809,0,1,-0.472175,4.892653,4.859132,5.753940,0.000000,-0.55417
0.810,0,1,-0.580410,4.892519,4.855051,5.751672,0.000000,-0.59621
0.811,0,1,-0.696093,4.891893,4.850663,5.748551,0.000000,-0.62566
0.812,0,1,-0.814231,4.891106,4.846173,5.745259,0.000000,-0.64838
0.813,0,1,-0.932370,4.890319,4.841683,5.740997,0.000000,-0.67005
0.814,0,1,-1.050509,4.889532,4.837193,5.736543,0.000000,-0.69198
0.815,0,1,-1.164263,4.888335,4.832413,5.731446,0.000000,-0.71574
0.816,0,1,-1.276571,4.887003,4.827536,5.726223,0.000000,-0.74606
0.817,0,1,-1.388878,4.885671,4.822659,5.721329,0.000000,-0.78221
0.818,0,1,-1.501186,4.884339,4.817782,5.716502,0.000000,-0.80632
0.819,0,1,-1.591706,4.882430,4.812685,5.712837,0.000000,-0.82440
0.820,0,1,-1.675040,4.880331,4.807517,5.709402,0.000000,-0.84705
0.821,0,1,-1.758375,4.878232,4.802348,5.706492,0.000000,-0.86693
0.822,0,1,-1.841710,4.876133,4.797179,5.703687,0.000000,-0.89739
0.823,0,1,-1.905719,4.874117,4.791828,5.700761,0.000000,-0.93055
0.824,0,1,-1.963354,4.872128,4.786417,5.697812,0.000000,-0.94915
0.825,0,1,-2.020989,4.870139,4.781005,5.695925,0.000000,-0.96970
0.826,0,1,-2.078624,4.868150,4.775594,5.694250,0.000000,-0.98820
0.827,0,1,-2.125083,4.865875,4.770149,5.694820,0.000000,-1.00830
0.828,0,1,-2.167857,4.863507,4.764693,5.695837,0.000000,-1.03287
0.829,0,1,-2.210631,4.861139,4.759236,5.697929,0.000000,-1.06536
0.830,0,1,-2.253405,4.858771,4.753780,5.700236,0.000000,-1.08181
0.831,0,1,-2.301744,4.856757,4.748331,5.702035,0.000000,-1.09802
0.832,0,1,-2.351919,4.854860,4.742884,5.703734,0.000000,-1.11710
0.833,0,1,-2.402094,4.852964,4.737437,5.704487,0.000000,-1.13382
0.834,0,1,-2.452268,4.851067,4.731991,5.705052,0.000000,-1.15133
0.835,0,1,-2.509090,4.848552,4.726717,5.704595,0.000000,-1.18067
0.836,0,1,-2.568103,4.845832,4.721501,5.703934,0.000000,-1.19604
0.837,0,1,-2.627117,4.843112,4.716284,5.702352,0.000000,-1.21093
0.838,0,1,-2.686131,4.840393,4.711068,5.700586,0.000000,-1.22589
0.839,0,1,-2.747148,4.837569,4.706143,5.698192,0.000000,-1.24265
0.840,0,1,-2.808826,4.834713,4.701314,5.695673,0.000000,-1.25210
0.841,0,1,-2.870505,4.831855,4.696486,5.693465,0.000000,-1.28208
0.842,0,1,-2.932183,4.828999,4.691657,5.691319,0.000000,-1.29383
0.843,0,1,-2.995197,4.825818,4.687138,5.690305,0.000000,-1.30769
0.844,0,1,-3.058651,4.822530,4.682720,5.689516,0.000000,-1.31719
0.845,0,1,-3.122105,4.819242,4.678303,5.689310,0.000000,-1.32858
0.846,0,1,-3.185559,4.815954,4.673886,5.689220,0.000000,-1.34170
0.847,0,1,-3.237735,4.812926,4.669657,5.688985,0.000000,-1.35576
0.848,0,1,-3.286191,4.809984,4.665489,5.688722,0.000000,-1.37183
0.849,0,1,-3.334647,4.807043,4.661322,5.688521,0.000000,-1.38154
0.850,0,1,-3.383103,4.804101,4.657154,5.688334,0.000000,-1.39001
0.851,0,1,-3.417128,4.800577,4.653171,5.688446,0.000000,-1.39717
0.852,0,1,-3.446394,4.796862,4.649249,5.688617,0.000000,-1.40521
0.853,0,1,-3.475660,4.793146,4.645327,5.688249,0.000000,-1.41925
0.854,0,1,-3.504926,4.789431,4.641404,5.687773,0.000000,-1.42975
0.855,0,1,-3.510750,4.785605,4.637735,5.686032,0.000000,-1.43616
0.856,0,1,-3.508842,4.781744,4.634149,5.684041,0.000000,-1.44169
0.857,0,1,-3.506935,4.777882,4.630563,5.681956,0.000000,-1.44956
0.858,0,1,-3.505028,4.774020,4.626977,5.679853,0.000000,-1.45375
0.859,0,1,-3.483607,4.770345,4.623916,5.678944,0.000000,-1.45837
0.860,0,1,-3.455752,4.766732,4.621028,5.678272,0.000000,-1.46270
0.861,0,1,-3.427897,4.763118,4.618140,5.678184,0.000000,-1.46575
0.862,0,1,-3.400042,4.759505,4.615252,5.678212,0.000000,-1.47154
0.863,0,1,-3.368132,4.756341,4.613018,5.677923,0.000000,-1.47277
0.864,0,1,-3.334885,4.753325,4.611000,5.677570,0.000000,-1.47178
0.865,0,1,-3.301638,4.750309,4.608983,5.677108,0.000000,-1.47461
0.866,0,1,-3.268391,4.747292,4.606965,5.676624,0.000000,-1.47700
0.867,0,1,-3.239398,4.744119,4.605752,5.676345,0.000000,-1.47613
0.868,0,1,-3.211809,4.740895,4.604803,5.676106,0.000000,-1.47707
0.869,0,1,-3.184219,4.737671,4.603855,5.675435,0.000000,-1.47846
0.870,0,1,-3.156630,4.734447,4.602907,5.674677,0.000000,-1.47972
0.871,0,1,-3.129292,4.731435,4.602604,5.673110,0.000000,-1.47948
0.872,0,1,-3.102038,4.728494,4.602514,5.671382,0.000000,-1.47909
0.873,0,1,-3.074784,4.725552,4.602424,5.670872,0.000000,-1.47777
0.874,0,1,-3.047530,4.722610,4.602334,5.670603,0.000000,-1.47955
0.875,0,1,-2.994228,4.719302,4.602844,5.673247,0.000000,-1.47909
0.876,0,1,-2.932336,4.715873,4.603552,5.676471,0.000000,-1.48035
0.877,0,1,-2.870444,4.712444,4.604260,5.679739,0.000000,-1.47935
0.878,0,1,-2.808552,4.709015,4.604969,5.683015,0.000000,-1.47836
0.879,0,1,-2.712808,4.706062,4.606163,5.683156,0.000000,-1.47892
0.880,0,1,-2.605899,4.703266,4.607517,5.682672,0.000000,-1.47939
0.881,0,1,-2.498991,4.700469,4.608871,5.680294,0.000000,-1.47710
0.882,0,1,-2.392083,4.697672,4.610225,5.677538,0.000000,-1.47721
0.883,0,1,-2.266427,4.695234,4.611969,5.675167,0.000000,-1.47852
0.884,0,1,-2.134589,4.692914,4.613840,5.672871,0.000000,-1.47838
0.885,0,1,-2.002751,4.690595,4.615712,5.672269,0.000000,-1.47903
0.886,0,1,-1.870913,4.688275,4.617584,5.672003,0.000000,-1.47870
0.887,0,1,-1.731802,4.686876,4.619784,5.673925,0.000000,-1.47874
0.888,0,1,-1.590294,4.685781,4.622093,5.676282,0.000000,-1.47703
0.889,0,1,-1.448785,4.684686,4.624402,5.678869,0.000000,-1.47771
0.890,0,1,-1.307276,4.683591,4.626710,5.681502,0.000000,-1.47762
0.891,0,1,-1.187121,4.682532,4.629393,5.682324,0.000000,-1.48115
0.892,0,1,-1.074009,4.681483,4.632197,5.682786,0.000000,-1.47871
0.893,0,1,-0.960897,4.680435,4.635003,5.682165,0.000000,-1.47767
0.894,0,1,-0.847785,4.679387,4.637807,5.681327,0.000000,-1.47849
0.895,0,1,-0.749032,4.678604,4.640976,5.680974,0.000000,-1.47764
0.896,0,1,-0.655016,4.677908,4.644266,5.680719,0.000000,-1.47838
0.897,0,1,-0.561000,4.677212,4.647555,5.682803,0.000000,-1.47736
0.898,0,1,-0.466983,4.676517,4.650844,5.685352,0.000000,-1.47851
0.899,0,1,-0.389815,4.676337,4.654316,5.691100,0.000000,-1.48015
0.900,0,1,-0.318202,4.676328,4.657849,5.697484,0.000000,-1.47935
0.901,0,1,-0.246590,4.676319,4.661382,5.703075,0.000000,-1.47688
0.902,0,1,-0.174977,4.676311,4.664915,5.708508,0.000000,-1.47808
0.903,0,1,-0.101555,4.676250,4.668413,5.709227,0.000000,-1.47853
0.904,0,1,-0.027536,4.676173,4.671900,5.709007,0.000000,-1.47850
0.905,0,1,0.046483,4.676095,4.675386,5.706689,0.000000,-1.48112
0.906,0,1,0.120502,4.676018,4.678873,5.703954,0.000000,-1.48855
0.907,0,1,0.190521,4.676101,4.682193,5.702714,0.000000,-1.47991
0.908,0,1,0.259220,4.676237,4.685459,5.701772,0.000000,-1.47842
0.909,0,1,0.327919,4.676373,4.688725,5.701990,0.000000,-1.47628
0.910,0,1,0.396619,4.676509,4.691990,5.702440,0.000000,-1.47747
0.911,0,1,0.461699,4.676949,4.694959,5.702715,0.000000,-1.48118
0.912,0,1,0.525585,4.677489,4.697831,5.702955,0.000000,-1.47888
0.913,0,1,0.589471,4.678029,4.700702,5.702173,0.000000,-1.47837
0.914,0,1,0.653357,4.678568,4.703573,5.701189,0.000000,-1.47907
0.915,0,1,0.709945,4.679548,4.706254,5.699016,0.000000,-1.47893
0.916,0,1,0.764126,4.680672,4.708871,5.696605,0.000000,-1.47954
0.917,0,1,0.818306,4.681796,4.711488,5.695281,0.000000,-1.47869
0.918,0,1,0.872487,4.682920,4.714106,5.694172,0.000000,-1.47934
0.919,0,1,0.906731,4.683839,4.716579,5.696110,0.000000,-1.47675
0.920,0,1,0.934400,4.684691,4.719005,5.698655,0.000000,-1.47833
0.921,0,1,0.962069,4.685543,4.721430,5.701669,0.000000,-1.47780
0.922,0,1,0.989738,4.686394,4.723855,5.704775,0.000000,-1.47649
0.923,0,1,1.005424,4.687463,4.726089,5.705340,0.000000,-1.47915
0.924,0,1,1.017159,4.688603,4.728260,5.705399,0.000000,-1.47828
0.925,0,1,1.028893,4.689744,4.730430,5.703753,0.000000,-1.47817
0.926,0,1,1.040628,4.690885,4.732600,5.701769,0.000000,-1.47808
0.927,0,1,1.046728,4.692075,4.734524,5.699832,0.000000,-1.47924
0.928,0,1,1.050970,4.693282,4.736367,5.697904,0.000000,-1.47995
0.929,0,1,1.055212,4.694489,4.738210,5.696975,0.000000,-1.47863
0.930,0,1,1.059454,4.695696,4.740053,5.696244,0.000000,-1.47917
0.931,0,1,1.066902,4.696583,4.741655,5.696910,0.000000,-1.48146
0.932,0,1,1.075408,4.697363,4.743177,5.697855,0.000000,-1.47965
0.933,0,1,1.083914,4.698143,4.744699,5.699104,0.000000,-1.47875
0.934,0,1,1.092420,4.698924,4.746221,5.700413,0.000000,-1.47842
0.935,0,1,1.100180,4.699938,4.747461,5.700871,0.000000,-1.47827
0.936,0,1,1.107692,4.701030,4.748607,5.701160,0.000000,-1.47737
0.937,0,1,1.115205,4.702121,4.749753,5.701058,0.000000,-1.47825
0.938,0,1,1.122718,4.703212,4.750900,5.700877,0.000000,-1.47811
0.939,0,1,1.126790,4.704572,4.751795,5.701089,0.000000,-1.47993
0.940,0,1,1.129728,4.706020,4.752606,5.701380,0.000000,-1.47887
0.941,0,1,1.132666,4.707468,4.753418,5.702254,0.000000,-1.47982
0.942,0,1,1.135604,4.708916,4.754230,5.703245,0.000000,-1.47914
0.943,0,1,1.127618,4.710078,4.754899,5.704588,0.000000,-1.48145
0.944,0,1,1.116030,4.711146,4.755519,5.706001,0.000000,-1.47862
0.945,0,1,1.104442,4.712214,4.756141,5.706382,0.000000,-1.47906
0.946,0,1,1.092854,4.713283,4.756762,5.706557,0.000000,-1.47971
0.947,0,1,1.070777,4.714279,4.757243,5.704665,0.000000,-1.47924
0.948,0,1,1.045242,4.715251,4.757679,5.702362,0.000000,-1.47776
0.949,0,1,1.019706,4.716224,4.758113,5.700011,0.000000,-1.47696
0.950,0,1,0.994171,4.717196,4.758549,5.697650,0.000000,-1.47798
0.951,0,1,0.965876,4.718325,4.758821,5.697400,0.000000,-1.47868
0.952,0,1,0.936673,4.719504,4.759039,5.697570,0.000000,-1.47882
0.953,0,1,0.907469,4.720683,4.759258,5.698739,0.000000,-1.47657
0.954,0,1,0.878265,4.721863,4.759476,5.700105,0.000000,-1.48023
0.955,0,1,0.851362,4.722615,4.759465,5.700708,0.000000,-1.47843
0.956,0,1,0.825218,4.723227,4.759377,5.701159,0.000000,-1.48006
0.957,0,1,0.799074,4.723839,4.759289,5.700337,0.000000,-1.47853
0.958,0,1,0.772930,4.724451,4.759202,5.699262,0.000000,-1.47834
0.959,0,1,0.756516,4.725047,4.758862,5.697127,0.000000,-1.48068
0.960,0,1,0.743311,4.725637,4.758441,5.694781,0.000000,-1.47903
0.961,0,1,0.730106,4.726228,4.758019,5.693249,0.000000,-1.47861
0.962,0,1,0.716901,4.726819,4.757598,5.691880,0.000000,-1.47908
0.963,0,1,0.700150,4.727630,4.756858,5.692962,0.000000,-1.47756
0.964,0,1,0.682229,4.728515,4.756014,5.694531,0.000000,-1.47869
0.965,0,1,0.664308,4.729399,4.755169,5.696990,0.000000,-1.47515
0.966,0,1,0.646386,4.730283,4.754324,5.699625,0.000000,-1.47918
0.967,0,1,0.628273,4.730871,4.753255,5.701101,0.000000,-1.47513
0.968,0,1,0.610096,4.731361,4.752111,5.702346,0.000000,-1.47812
0.969,0,1,0.591919,4.731851,4.750967,5.702268,0.000000,-1.47762
0.970,0,1,0.573742,4.732341,4.749823,5.701927,0.000000,-1.47782
0.971,0,1,0.541340,4.733030,4.748479,5.700774,0.000000,-1.47895
0.972,0,1,0.504246,4.733786,4.747070,5.699461,0.000000,-1.47614
0.973,0,1,0.467152,4.734541,4.745661,5.698486,0.000000,-1.47979
0.974,0,1,0.430058,4.735297,4.744252,5.697578,0.000000,-1.47847
0.975,0,1,0.381146,4.735692,4.742637,5.697926,0.000000,-1.47899
0.976,0,1,0.328336,4.735968,4.740954,5.698523,0.000000,-1.47831
0.977,0,1,0.275526,4.736244,4.739272,5.699424,0.000000,-1.48764
0.978,0,1,0.222716,4.736520,4.737589,5.700386,0.000000,-1.47964
0.979,0,1,0.170784,4.736726,4.735768,5.700702,0.000000,-1.47960
0.980,0,1,0.119142,4.736909,4.733902,5.700888,0.000000,-1.47864
0.981,0,1,0.067500,4.737092,4.732035,5.701875,0.000000,-1.47879
0.982,0,1,0.015857,4.737275,4.730168,5.703021,0.000000,-1.47617
0.983,0,1,-0.041947,4.737113,4.728163,5.706213,0.000000,-1.47732
0.984,0,1,-0.101782,4.736839,4.726113,5.709813,0.000000,-1.47888
0.985,0,1,-0.161618,4.736565,4.724062,5.712737,0.000000,-1.47821
0.986,0,1,-0.221453,4.736290,4.722012,5.715527,0.000000,-1.47904
0.987,0,1,-0.275802,4.735987,4.719914,5.714920,0.000000,-1.47928
0.988,0,1,-0.328341,4.735673,4.717801,5.713638,0.000000,-1.47933
0.989,0,1,-0.380880,4.735360,4.715689,5.711312,0.000000,-1.47868
0.990,0,1,-0.433419,4.735046,4.713576,5.708778,0.000000,-1.47766
0.991,0,1,-0.490974,4.734691,4.711439,5.708189,0.000000,-1.47848
0.992,0,1,-0.550184,4.734322,4.709295,5.707987,0.000000,-1.47868
0.993,0,1,-0.609394,4.733952,4.707150,5.709111,0.000000,-1.47817
0.994,0,1,-0.668604,4.733582,4.705006,5.710500,0.000000,-1.47888
0.995,0,1,-0.719038,4.732758,4.702908,5.711773,0.000000,-1.47905
0.996,0,1,-0.766577,4.731783,4.700826,5.713023,0.000000,-1.47954
0.997,0,1,-0.814117,4.730808,4.698743,5.713610,0.000000,-1.47883
0.998,0,1,-0.861657,4.729833,4.696661,5.714066,0.000000,-1.47893
0.999,0,1,-0.899832,4.728845,4.694721,5.713813,0.000000,-1.47791
1.000,0,1,-0.934919,4.727851,4.692828,5.713419,0.000000,-1.48285
1.001,0,1,-0.970007,4.726859,4.690936,5.713409,0.000000,-1.47931
1.002,0,1,-1.005094,4.725865,4.689043,5.713475,0.000000,-1.47707
1.003,0,1,-1.026209,4.724658,4.687275,5.714892,0.000000,-1.47758
1.004,0,1,-1.042718,4.723378,4.685549,5.716578,0.000000,-1.47904
1.005,0,1,-1.059226,4.722099,4.683822,5.718576,0.000000,-1.47742
1.006,0,1,-1.075734,4.720819,4.682096,5.720637,0.000000,-1.47904
1.007,0,1,-1.074496,4.719775,4.680564,5.721653,0.000000,-1.47882
1.008,0,1,-1.067405,4.718808,4.679097,5.722461,0.000000,-1.47983
1.009,0,1,-1.060315,4.717842,4.677629,5.721999,0.000000,-1.48105
1.010,0,1,-1.053224,4.716875,4.676161,5.721285,0.000000,-1.48045
1.011,0,1,-1.045222,4.715811,4.674835,5.719569,0.000000,-1.48015
1.012,0,1,-1.036920,4.714715,4.673556,5.717653,0.000000,-1.48030
1.013,0,1,-1.028617,4.713619,4.672276,5.715781,0.000000,-1.47758
1.014,0,1,-1.020315,4.712523,4.670997,5.713917,0.000000,-1.47954
1.015,0,1,-1.005814,4.711449,4.669857,5.713015,0.000000,-1.47952
1.016,0,1,-0.989269,4.710382,4.668764,5.712304,0.000000,-1.47818
1.017,0,1,-0.972723,4.709315,4.667671,5.711894,0.000000,-1.47898
1.018,0,1,-0.956178,4.708248,4.666578,5.711545,0.000000,-1.47908
1.019,0,1,-0.941777,4.707424,4.665571,5.710659,0.000000,-1.47958
1.020,0,1,-0.928083,4.706680,4.664593,5.709667,0.000000,-1.47991
1.021,0,1,-0.914389,4.705936,4.663615,5.708506,0.000000,-1.47815
1.022,0,1,-0.900694,4.705192,4.662638,5.707312,0.000000,-1.47979
1.023,0,1,-0.887161,4.704233,4.661654,5.706711,0.000000,-1.47940
1.024,0,1,-0.873680,4.703204,4.660670,5.706227,0.000000,-1.47807
1.025,0,1,-0.860200,4.702174,4.659686,5.707328,0.000000,-1.47825
1.026,0,1,-0.846719,4.701144,4.658701,5.708744,0.000000,-1.48081
1.027,0,1,-0.834464,4.700307,4.657629,5.712212,0.000000,-1.47778
1.028,0,1,-0.822612,4.699533,4.656529,5.716088,0.000000,-1.47893
1.029,0,1,-0.810761,4.698759,4.655428,5.719821,0.000000,-1.47852
1.030,0,1,-0.798910,4.697985,4.654327,5.723526,0.000000,-1.47749
1.031,0,1,-0.796475,4.697290,4.652988,5.724703,0.000000,-1.48129
1.032,0,1,-0.797145,4.696621,4.651570,5.725376,0.000000,-1.47852
1.033,0,1,-0.797816,4.695952,4.650152,5.723667,0.000000,-1.48063
1.034,0,1,-0.798486,4.695284,4.648734,5.721484,0.000000,-1.47826
1.035,0,1,-0.802976,4.694504,4.647103,5.717932,0.000000,-1.47571
1.036,0,1,-0.808725,4.693686,4.645402,5.714107,0.000000,-1.47838
1.037,0,1,-0.814475,4.692870,4.643702,5.710598,0.000000,-1.47894
1.038,0,1,-0.820224,4.692053,4.642001,5.707152,0.000000,-1.47848
1.039,0,1,-0.840001,4.691259,4.640094,5.705511,0.000000,-1.47958
1.040,0,1,-0.864404,4.690473,4.638118,5.704228,0.000000,-1.47447
1.041,0,1,-0.888807,4.689687,4.636142,5.704492,0.000000,-1.47921
1.042,0,1,-0.913211,4.688900,4.634167,5.705064,0.000000,-1.48306
1.043,0,1,-0.947066,4.687971,4.632030,5.706384,0.000000,-1.47723
1.044,0,1,-0.984038,4.686994,4.629841,5.707853,0.000000,-1.47873
1.045,0,1,-1.021010,4.686018,4.627653,5.709051,0.000000,-1.48030
1.046,0,1,-1.057983,4.685040,4.625463,5.710196,0.000000,-1.47990
1.047,0,1,-1.104902,4.684057,4.623178,5.710410,0.000000,-1.47892
1.048,0,1,-1.155101,4.683072,4.620861,5.710438,0.000000,-1.47856
1.049,0,1,-1.205301,4.682086,4.618543,5.710768,0.000000,-1.47941
1.050,0,1,-1.255500,4.681101,4.616226,5.711159,0.000000,-1.47943
1.051,0,1,-1.310740,4.679752,4.613794,5.712981,0.000000,-1.47710
1.052,0,1,-1.367643,4.678283,4.611326,5.715087,0.000000,-1.47736
1.053,0,1,-1.424546,4.676814,4.608857,5.716858,0.000000,-1.48046
1.054,0,1,-1.481448,4.675345,4.606388,5.718563,0.000000,-1.47732
1.055,0,1,-1.531379,4.673784,4.603801,5.718134,0.000000,-1.47944
1.056,0,1,-1.579010,4.672192,4.601176,5.717281,0.000000,-1.47906
1.057,0,1,-1.626642,4.670599,4.598551,5.716058,0.000000,-1.47924
1.058,0,1,-1.674274,4.669007,4.595925,5.714761,0.000000,-1.47807
1.059,0,1,-1.708475,4.667162,4.593222,5.715168,0.000000,-1.47863
1.060,0,1,-1.738248,4.665234,4.590493,5.715915,0.000000,-1.47904
1.061,0,1,-1.768020,4.663305,4.587763,5.717295,0.000000,-1.47853
1.062,0,1,-1.797793,4.661377,4.585034,5.718802,0.000000,-1.48126
1.063,0,1,-1.813088,4.659425,4.582288,5.719522,0.000000,-1.47776
1.064,0,1,-1.823608,4.657466,4.579535,5.720085,0.000000,-1.47849
1.065,0,1,-1.834128,4.655507,4.576783,5.720876,0.000000,-1.47858
1.066,0,1,-1.844648,4.653548,4.574031,5.721712,0.000000,-1.47929
1.067,0,1,-1.846994,4.651686,4.571393,5.723859,0.000000,-1.47899
1.068,0,1,-1.846644,4.649857,4.568791,5.726268,0.000000,-1.47773
1.069,0,1,-1.846294,4.648026,4.566191,3.338648,0.000000,-1.48003
1.070,0,0,-1.845943,4.646197,4.563590,0.475313,0.000000,-1.47756
1.071,0,0,-1.849076,4.644475,4.561200,0.000000,0.000000,-1.47929
1.072,0,0,-1.853358,4.642788,4.558881,0.000000,0.000000,-1.47965
1.073,0,0,-1.857639,4.641101,4.556562,0.000000,0.000000,-1.47999
1.074,0,0,-1.861921,4.639415,4.554243,0.000000,0.000000,-1.47837
1.075,0,0,-1.870102,4.637509,4.552255,0.000000,0.000000,-1.47700
1.076,0,0,-1.879569,4.635531,4.550377,0.000000,0.000000,-1.47857
1.077,0,0,-1.889037,4.633553,4.548499,0.000000,0.000000,-1.47897
1.078,0,0,-1.898504,4.631575,4.546621,0.000000,0.000000,-1.47985
1.079,0,0,-1.907777,4.629732,4.545103,0.000000,0.000000,-1.47960
1.080,0,0,-1.916986,4.627934,4.543703,0.000000,0.000000,-1.47969
1.081,0,0,-1.926195,4.626136,4.542303,0.000000,0.000000,-1.48020
1.082,0,0,-1.935404,4.624337,4.540903,0.000000,0.000000,-1.47797
1.083,0,0,-1.938225,4.622277,4.539890,0.000000,0.000000,-1.48026
1.084,0,0,-1.938941,4.620131,4.539004,0.000000,0.000000,-1.47954
1.085,0,0,-1.939656,4.617984,4.538118,0.000000,0.000000,-1.47907
1.086,0,0,-1.940371,4.615837,4.537232,0.000000,0.000000,-1.47970
1.087,0,0,-1.925329,4.613812,4.536775,0.000000,0.000000,-1.48080
1.088,0,0,-1.905091,4.611827,4.536458,0.000000,0.000000,-1.47974
1.089,0,0,-1.884853,4.609842,4.536142,0.000000,0.000000,-1.48013
1.090,0,0,-1.864614,4.607857,4.535826,0.000000,0.000000,-1.47939
1.091,0,0,-1.834220,4.606008,4.535995,0.000000,0.000000,-1.47794
1.092,0,0,-1.800477,4.604203,4.536323,0.000000,0.000000,-1.47949
1.093,0,0,-1.766733,4.602398,4.536651,0.000000,0.000000,-1.47762
1.094,0,0,-1.732989,4.600593,4.536978,0.000000,0.000000,-1.47928
1.095,0,0,-1.685489,4.598861,4.537903,0.000000,0.000000,-1.47899
1.096,0,0,-1.633451,4.597154,4.539024,0.000000,0.000000,-1.47812
1.097,0,0,-1.581414,4.595447,4.540145,0.000000,0.000000,-1.47807
1.098,0,0,-1.529377,4.593740,4.541266,0.000000,0.000000,-1.47847
1.099,0,0,-1.469998,4.592234,4.543072,0.000000,0.000000,-1.47788
1.100,0,0,-1.408198,4.590795,4.545104,0.000000,0.000000,-1.47931
1.101,0,0,-1.346398,4.589355,4.547136,0.000000,0.000000,-1.47914
1.102,0,0,-1.284597,4.587916,4.549168,0.000000,0.000000,-1.47755
1.103,0,0,-1.212994,4.586684,4.551810,0.000000,0.000000,-1.47750
1.104,0,0,-1.138158,4.585520,4.554654,0.000000,0.000000,-1.47929
1.105,0,0,-1.063322,4.584356,4.557498,0.000000,0.000000,-1.47953
1.106,0,0,-0.988486,4.583193,4.560341,0.000000,0.000000,-1.47535
1.107,0,0,-0.894983,4.582276,4.563682,0.000000,0.000000,-1.47707
1.108,0,0,-0.795324,4.581440,4.567187,0.000000,0.000000,-1.47666
1.109,0,0,-0.695665,4.580604,4.570693,0.000000,0.000000,-1.47920
1.110,0,0,-0.596006,4.579769,4.574198,0.000000,0.000000,-1.47807
1.111,0,0,-0.477880,4.579162,4.577999,0.000000,0.000000,-1.47954
1.112,0,0,-0.353664,4.578630,4.581897,0.000000,0.000000,-1.47803
1.113,0,0,-0.229448,4.578099,4.585795,0.000000,0.000000,-1.47905
1.114,0,0,-0.105232,4.577567,4.589694,0.000000,0.000000,-1.47807
1.115,0,0,0.035548,4.577441,4.593798,0.000000,0.000000,-1.47670
1.116,0,0,0.181791,4.577449,4.597970,0.000000,0.000000,-1.47928
1.117,0,0,0.328033,4.577457,4.602143,0.000000,0.000000,-1.47573
1.118,0,0,0.474275,4.577465,4.606316,0.000000,0.000000,-1.47765
1.119,0,0,0.616852,4.578217,4.610618,0.000000,0.000000,-1.47825
1.120,0,0,0.758219,4.579214,4.614964,0.000000,0.000000,-1.47909
1.121,0,0,0.899586,4.580211,4.619308,0.000000,0.000000,-1.47965
1.122,0,0,1.040954,4.581207,4.623653,0.000000,0.000000,-1.47807
1.123,0,0,1.159398,4.582597,4.628096,0.000000,0.000000,-1.47981
1.124,0,0,1.270283,4.584116,4.632571,0.000000,0.000000,-1.48018
1.125,0,0,1.381167,4.585635,4.637045,0.000000,0.000000,-1.47826
1.126,0,0,1.492052,4.587153,4.641521,0.000000,0.000000,-1.48118
1.127,0,0,1.569909,4.589014,4.646004,0.000000,0.000000,-1.47839
1.128,0,0,1.636875,4.590987,4.650490,0.000000,0.000000,-1.47855
1.129,0,0,1.703841,4.592960,4.654977,0.000000,0.000000,-1.47863
1.130,0,0,1.770807,4.594933,4.659463,0.000000,0.000000,-1.47827
1.131,0,0,1.809106,4.596877,4.663730,0.000000,0.000000,-1.47715
1.132,0,0,1.837953,4.598811,4.667924,0.000000,0.000000,-1.47945
1.133,0,0,1.866799,4.600746,4.672118,0.000000,0.000000,-1.47797
1.134,0,0,1.895645,4.602680,4.676312,0.000000,0.000000,-1.47952
1.135,0,0,1.917321,4.604580,4.680069,0.000000,0.000000,-1.47913
1.136,0,0,1.936633,4.606468,4.683681,0.000000,0.000000,-1.47844
1.137,0,0,1.955945,4.608357,4.687294,0.000000,0.000000,-1.47869
1.138,0,0,1.975257,4.610245,4.690907,0.000000,0.000000,-1.47823
1.139,0,0,1.991373,4.612154,4.693865,0.000000,0.000000,-1.47843
1.140,0,0,2.006436,4.614069,4.696608,0.000000,0.000000,-1.47904
1.141,0,0,2.021499,4.615984,4.699351,0.000000,0.000000,-1.47873
1.142,0,0,2.036561,4.617899,4.702094,0.000000,0.000000,-1.47946
1.143,0,0,2.053245,4.619931,4.704097,0.000000,0.000000,-1.47964
1.144,0,0,2.070463,4.622001,4.705855,0.000000,0.000000,-1.47829
1.145,0,0,2.087682,4.624071,4.707613,0.000000,0.000000,-1.47792
1.146,0,0,2.104900,4.626140,4.709371,0.000000,0.000000,-1.48020
1.147,0,0,2.110653,4.628435,4.710494,0.000000,0.000000,-1.47863
1.148,0,0,2.112625,4.630803,4.711407,0.000000,0.000000,-1.47862
1.149,0,0,2.114597,4.633171,4.712320,0.000000,0.000000,-1.47913
1.150,0,0,2.116569,4.635539,4.713234,0.000000,0.000000,-1.48025
1.151,0,0,2.093275,4.637691,4.713727,0.000000,0.000000,-1.47887
1.152,0,0,2.061650,4.639772,4.714081,0.000000,0.000000,-1.48040
1.153,0,0,2.030025,4.641853,4.714435,0.000000,0.000000,-1.47872
1.154,0,0,1.998400,4.643934,4.714789,0.000000,0.000000,-1.47854
1.155,0,0,1.938359,4.646040,4.714944,0.000000,0.000000,-1.48011
1.156,0,0,1.868947,4.648156,4.715034,0.000000,0.000000,-1.47833
1.157,0,0,1.799535,4.650271,4.715124,0.000000,0.000000,-1.47828
1.158,0,0,1.730123,4.652387,4.715213,0.000000,0.000000,-1.47979
1.159,0,0,1.640460,4.654244,4.715119,0.000000,0.000000,-1.47899
1.160,0,0,1.544119,4.656016,4.714963,0.000000,0.000000,-1.47853
1.161,0,0,1.447778,4.657788,4.714808,0.000000,0.000000,-1.48036
1.162,0,0,1.351437,4.659559,4.714653,0.000000,0.000000,-1.47863
1.163,0,0,1.260206,4.660712,4.714311,0.000000,0.000000,-1.48001
1.164,0,0,1.170660,4.661660,4.713909,0.000000,0.000000,-1.47822
1.165,0,0,1.081114,4.662608,4.713506,0.000000,0.000000,-1.47907
1.166,0,0,0.991568,4.663556,4.713104,0.000000,0.000000,-1.48337
1.167,0,0,0.920076,4.664142,4.712465,0.000000,0.000000,-1.47960
1.168,0,0,0.854538,4.664609,4.711747,0.000000,0.000000,-1.47970
1.169,0,0,0.789000,4.665077,4.711030,0.000000,0.000000,-1.47961
1.170,0,0,0.723462,4.665544,4.710312,0.000000,0.000000,-1.47877
1.171,0,0,0.681843,4.666055,4.709298,0.000000,0.000000,-1.47858
1.172,0,0,0.648112,4.666580,4.708186,0.000000,0.000000,-1.48091
1.173,0,0,0.614381,4.667104,4.707074,0.000000,0.000000,-1.47845
1.174,0,0,0.580649,4.667629,4.705962,0.000000,0.000000,-1.47971
1.175,0,0,0.567365,4.668269,4.704667,0.000000,0.000000,-1.47960
1.176,0,0,0.560823,4.668947,4.703311,0.000000,0.000000,-1.47821
1.177,0,0,0.554282,4.669624,4.701956,0.000000,0.000000,-1.47933
1.178,0,0,0.547740,4.670302,4.700600,0.000000,0.000000,-1.47802
1.179,0,0,0.539805,4.670836,4.699137,0.000000,0.000000,-1.47959
1.180,0,0,0.531411,4.671323,4.697638,0.000000,0.000000,-1.47888
1.181,0,0,0.523016,4.671810,4.696138,0.000000,0.000000,-1.47757
1.182,0,0,0.514622,4.672297,4.694639,0.000000,0.000000,-1.47871
1.183,0,0,0.504442,4.672721,4.693169,0.000000,0.000000,-1.47646
1.184,0,0,0.493674,4.673124,4.691709,0.000000,0.000000,-1.47888
1.185,0,0,0.482905,4.673528,4.690248,0.000000,0.000000,-1.47807
1.186,0,0,0.472137,4.673931,4.688788,0.000000,0.000000,-1.47809
1.187,0,0,0.448116,4.674585,4.687412,0.000000,0.000000,-1.47878
1.188,0,0,0.419724,4.675321,4.686065,0.000000,0.000000,-1.48073
1.189,0,0,0.391332,4.676056,4.684718,0.000000,0.000000,-1.47939
1.190,0,0,0.362940,4.676792,4.683370,0.000000,0.000000,-1.47449
1.191,0,0,0.323577,4.677071,4.682085,0.000000,1.505937,-1.47778
1.192,1,0,0.280594,4.677198,4.680821,0.000000,3.311617,-1.47994
1.193,1,0,0.237612,4.677326,4.679556,0.000000,3.610293,-1.47899
1.194,1,0,0.194629,4.677454,4.678292,0.000000,3.609015,-1.47826
1.195,1,0,0.145564,4.677718,4.676977,0.000000,3.602087,-1.47842
1.196,1,0,0.094493,4.678027,4.675645,0.000000,3.594033,-1.47812
1.197,1,0,0.043422,4.678336,4.674313,0.000000,3.583647,-1.47973
1.198,1,0,-0.007650,4.678645,4.672981,0.000000,3.572797,-1.47700
1.199,1,0,-0.060135,4.678547,4.671482,0.000000,3.563764,-1.48073
1.200,1,0,-0.113086,4.678316,4.669928,0.000000,3.555093,-1.47823
1.201,1,0,-0.166037,4.678084,4.668373,0.000000,3.546084,-1.47786
1.202,1,0,-0.218988,4.677853,4.666819,0.000000,3.537009,-1.47781
1.203,1,0,-0.260925,4.677409,4.665119,0.000000,3.524390,-1.47858
1.204,1,0,-0.299228,4.676894,4.663372,0.000000,3.511065,-1.47794
1.205,1,0,-0.337531,4.676380,4.661625,0.000000,3.494288,-1.47873
1.206,1,0,-0.375835,4.675865,4.659878,0.000000,3.476824,-1.47407
1.207,1,0,-0.410302,4.675408,4.657985,0.000000,3.457637,-1.47908
1.208,1,0,-0.443504,4.674969,4.656044,0.000000,3.438107,-1.47884
1.209,1,0,-0.476707,4.674531,4.654104,0.000000,3.421779,-1.47715
1.210,1,0,-0.509909,4.674092,4.652163,0.000000,3.406089,-1.47786
1.211,1,0,-0.538508,4.673671,4.650101,0.000000,3.398439,-1.47994
1.212,1,0,-0.565588,4.673254,4.647998,0.000000,3.392391,-1.47905
1.213,1,0,-0.592668,4.672838,4.645895,0.000000,3.394758,-1.47831
1.214,1,0,-0.619749,4.672422,4.643793,0.000000,3.398801,-1.47996
1.215,1,0,-0.642821,4.671733,4.641716,0.000000,3.409285,-1.47823
1.216,1,0,-0.664572,4.670955,4.639649,0.000000,3.421052,-1.47946
1.217,1,0,-0.686323,4.670176,4.637581,0.000000,3.432374,-1.47853
1.218,1,0,-0.708073,4.669397,4.635514,0.000000,3.443608,-1.47812
1.219,1,0,-0.733393,4.668575,4.633544,0.000000,3.448357,-1.47968
1.220,1,0,-0.759890,4.667739,4.631607,0.000000,3.451814,-1.47948
1.221,1,0,-0.786387,4.666903,4.629669,0.000000,3.452841,-1.47929
1.222,1,0,-0.812883,4.666068,4.627731,0.000000,3.453384,-1.48016
1.223,1,0,-0.838086,4.665206,4.626040,0.000000,3.456753,-1.47923
1.224,1,0,-0.862862,4.664337,4.624431,0.000000,3.460684,-1.48022
1.225,1,0,-0.887637,4.663467,4.622821,0.000000,3.465215,-1.47823
1.226,1,0,-0.912413,4.662597,4.621212,0.000000,3.469866,-1.48055
1.227,1,0,-0.943021,4.661849,4.619803,0.000000,3.471734,-1.47945
1.228,1,0,-0.975553,4.661142,4.618461,0.000000,3.473049,-1.47838
1.229,1,0,-1.008085,4.660434,4.617118,0.000000,3.472523,-1.47943
1.230,1,0,-1.040616,4.659727,4.615776,0.000000,3.471630,-1.48005
1.231,1,0,-1.065517,4.658553,4.614634,0.000000,3.470544,-1.47893
1.232,1,0,-1.087901,4.657225,4.613557,0.000000,3.469418,-1.47818
1.233,1,0,-1.110285,4.655897,4.612481,0.000000,3.467397,-1.47908
1.234,1,0,-1.132669,4.654569,4.611405,0.000000,3.465199,-1.47985
1.235,1,0,-1.143181,4.653349,4.610524,0.000000,3.461455,-1.48044
1.236,1,0,-1.149777,4.652164,4.609706,0.000000,3.457404,-1.47705
1.237,1,0,-1.156373,4.650980,4.608890,0.000000,3.454390,-1.47964
1.238,1,0,-1.162969,4.649796,4.608073,0.000000,3.451582,-1.47853
1.239,1,0,-1.150342,4.648349,4.607521,0.000000,3.452098,-1.47801
1.240,1,0,-1.131376,4.646815,4.607057,0.000000,3.453274,-1.48737
1.241,1,0,-1.112409,4.645282,4.606592,0.000000,3.454595,-1.47899
1.242,1,0,-1.093442,4.643748,4.606128,0.000000,3.455945,-1.47837
1.243,1,0,-1.061800,4.642789,4.606020,0.000000,3.454285,-1.47925
1.244,1,0,-1.025978,4.642019,4.606030,0.000000,3.452026,-1.47862
1.245,1,0,-0.990155,4.641250,4.606040,0.000000,3.450715,-1.47928
1.246,1,0,-0.954333,4.640480,4.606051,0.000000,3.449592,-1.47914
1.247,1,0,-0.920393,4.639598,4.606496,0.000000,3.453757,-1.47945
1.248,1,0,-0.887074,4.638680,4.607085,0.000000,3.458973,-1.47848
1.249,1,0,-0.853755,4.637761,4.607674,0.000000,3.466463,-1.47837
1.250,1,0,-0.820436,4.636842,4.608263,0.000000,3.474405,-1.47914
1.251,1,0,-0.787102,4.636147,4.609251,0.000000,3.480653,-1.47909
1.252,1,0,-0.753763,4.635526,4.610373,0.000000,3.486563,-1.47924
1.253,1,0,-0.720424,4.634905,4.611494,0.000000,3.491904,-1.47661
1.254,1,0,-0.687086,4.634284,4.612616,0.000000,3.497131,-1.47795
1.255,1,0,-0.647281,4.633538,4.614143,2.229550,3.503376,-1.47919
1.256,1,1,-0.605344,4.632752,4.615805,4.902871,3.509825,-1.47833
1.257,1,1,-0.563407,4.631965,4.617467,5.345967,3.514472,-1.47666
1.258,1,1,-0.521470,4.631179,4.619129,5.345157,3.518759,-1.47802
1.259,1,1,-0.469809,4.630622,4.621037,5.343950,3.518430,-1.47914
1.260,1,1,-0.414940,4.630142,4.623027,5.342665,3.517181,-1.47786
1.261,1,1,-0.360072,4.629661,4.625017,5.341729,3.514169,-1.47888
1.262,1,1,-0.305203,4.629180,4.627007,5.340863,3.510806,-1.47902
1.263,1,1,-0.235173,4.628795,4.629083,5.341094,3.509187,-1.47767
1.264,1,1,-0.160144,4.628440,4.631188,5.341542,3.507914,-1.47756
1.265,1,1,-0.085114,4.628086,4.633293,5.341767,3.507590,-1.48121
1.266,1,1,-0.010084,4.627731,4.635398,5.341948,3.507454,-1.47981
1.267,1,1,0.069671,4.628048,4.637295,5.340528,3.506656,-1.47907
1.268,1,1,0.150984,4.628587,4.639122,5.338790,3.505727,-1.47731
1.269,1,1,0.232297,4.629125,4.640949,5.336468,3.504321,-1.47918
1.270,1,1,0.313610,4.629664,4.642776,5.334028,3.502821,-1.47943
1.271,1,1,0.390243,4.629890,4.644321,5.332346,3.501577,-1.47762
1.272,1,1,0.465333,4.630013,4.645773,5.330815,3.500383,-1.47807
1.273,1,1,0.540422,4.630136,4.647225,5.329813,3.500341,-1.47888
1.274,1,1,0.615512,4.630260,4.648677,5.328917,3.500528,-1.48070
1.275,1,1,0.674698,4.631081,4.649653,5.328088,3.502247,-1.47760
1.276,1,1,0.728641,4.632133,4.650472,5.327273,3.504271,-1.47777
1.277,1,1,0.782583,4.633183,4.651291,5.327011,3.505677,-1.47964
1.278,1,1,0.836525,4.634235,4.652111,5.326859,3.506960,-1.47853
1.279,1,1,0.866175,4.635328,4.652324,5.327754,3.505969,-1.47747
1.280,1,1,0.887814,4.636435,4.652339,5.328857,3.504525,-1.47792
1.281,1,1,0.909453,4.637542,4.652352,5.330321,3.504627,-1.47802
1.282,1,1,0.931092,4.638649,4.652367,5.331857,3.505037,-1.47882
1.283,1,1,0.927950,4.639788,4.651684,5.332877,3.510507,-1.47781
1.284,1,1,0.916635,4.640937,4.650772,5.333794,3.516985,-1.47857
1.285,1,1,0.905320,4.642087,4.649859,5.333961,3.523661,-1.48077
1.286,1,1,0.894005,4.643236,4.648947,5.333977,3.530377,-1.47937
1.287,1,1,0.846202,4.644003,4.647233,5.333405,3.531926,-1.47939
1.288,1,1,0.786367,4.644643,4.645255,5.332717,3.532446,-1.47889
1.289,1,1,0.726531,4.645283,4.643276,5.332571,3.530871,-1.47778
1.290,1,1,0.666695,4.645923,4.641298,5.332532,3.528878,-1.48015
1.291,1,1,0.580170,4.646805,4.638421,5.333892,3.528806,-1.47910
1.292,1,1,0.484842,4.647768,4.635247,5.335530,3.529117,-1.47843
1.293,1,1,0.389514,4.648730,4.632072,5.336927,3.528854,-1.48036
1.294,1,1,0.294187,4.649692,4.628899,5.338277,3.528478,-1.47914
1.295,1,1,0.171347,4.650033,4.624900,5.337863,3.524266,-1.47976
1.296,1,1,0.039435,4.650169,4.620630,5.337099,3.519292,-1.47811
1.297,1,1,-0.092478,4.650305,4.616360,5.336760,3.512071,-1.48030
1.298,1,1,-0.224390,4.650441,4.612090,5.336505,3.504402,-1.47990
1.299,1,1,-0.370151,4.649976,4.606954,5.338866,3.497142,-1.47789
1.300,1,1,-0.520479,4.649314,4.601533,5.341747,3.489963,-1.47828
1.301,1,1,-0.670807,4.648651,4.596112,5.344704,3.484475,-1.47914
1.302,1,1,-0.821135,4.647989,4.590691,5.347676,3.479324,-1.47729
1.303,1,1,-0.970404,4.646957,4.584585,5.347881,3.476454,-1.47900
1.304,1,1,-1.119323,4.645805,4.578255,5.347536,3.474038,-1.47884
1.305,1,1,-1.268243,4.644652,4.571924,5.346256,3.473122,-1.47833
1.306,1,1,-1.417163,4.643499,4.565594,5.344790,3.472505,-1.47897
1.307,1,1,-1.563735,4.641887,4.558764,5.344784,3.472316,-1.48113
1.308,1,1,-1.709533,4.640122,4.551771,5.345068,3.472211,-1.47949
1.309,1,1,-1.855331,4.638357,4.544777,5.345772,3.471905,-1.48035
1.310,1,1,-2.001129,4.636592,4.537784,5.346560,3.471558,-1.47824
1.311,1,1,-2.138056,4.634230,4.530662,5.346315,3.470495,-1.48026
1.312,1,1,-2.272057,4.631670,4.523498,5.345863,3.469289,-1.47545
1.313,1,1,-2.406058,4.629109,4.516333,5.345442,3.466810,-1.47765
1.314,1,1,-2.540059,4.626549,4.509169,5.345027,3.464078,-1.47789
1.315,1,1,-2.670516,4.624119,4.502090,5.346062,3.459784,-1.47852
1.316,1,1,-2.799803,4.621731,4.495040,5.347385,3.455178,-1.47871
1.317,1,1,-2.929090,4.619343,4.487989,5.349966,3.449976,-1.47816
1.318,1,1,-3.058378,4.616956,4.480939,5.352798,3.444655,-1.47888
1.319,1,1,-3.176766,4.613559,4.474309,5.356114,3.439658,-1.47837
1.320,1,1,-3.291560,4.609829,4.467817,5.359528,3.434725,-1.47854
1.321,1,1,-3.406353,4.606100,4.461325,5.362082,3.429206,-1.47833
1.322,1,1,-3.521147,4.602370,4.454833,5.364466,3.423572,-1.47853
1.323,1,1,-3.613871,4.598516,4.448957,5.365049,3.416644,-1.48032
1.324,1,1,-3.699317,4.594622,4.443286,5.365274,3.409459,-1.47720
1.325,1,1,-3.784762,4.590727,4.437615,5.365306,3.403509,-1.47818
1.326,1,1,-3.870208,4.586833,4.431944,5.365301,3.397805,-1.47847
1.327,1,1,-3.933438,4.582814,4.426868,5.366806,3.395125,-1.47620
1.328,1,1,-3.989342,4.578755,4.421989,5.368610,3.393047,-1.47671
1.329,1,1,-4.045247,4.574696,4.417109,5.370789,3.388295,-1.47755
1.330,1,1,-4.101151,4.570637,4.412230,5.373042,3.383011,-1.47886
1.331,1,1,-4.111259,4.566420,4.407948,5.374144,3.369883,-1.47710
1.332,1,1,-4.106265,4.562151,4.403863,5.375016,3.355193,-1.47747
1.333,1,1,-4.101271,4.557882,4.399779,5.375088,3.339450,-1.47733
1.334,1,1,-4.096276,4.553613,4.395694,5.375001,3.323497,-1.48032
1.335,1,1,-4.059342,4.549207,4.392164,5.374952,3.314255,-1.47956
1.336,1,1,-4.011875,4.544756,4.388816,5.374911,3.306349,-1.47925
1.337,1,1,-3.964407,4.540306,4.385469,5.375556,3.302039,-1.47986
1.338,1,1,-3.916939,4.535855,4.382122,5.376338,3.298444,-1.47991
1.339,1,1,-3.839334,4.531761,4.379326,5.378100,3.293732,-1.47816
1.340,1,1,-3.751790,4.527786,4.376713,5.380057,3.288799,-1.47968
1.341,1,1,-3.664245,4.523810,4.374099,5.381936,3.284725,-1.47811
1.342,1,1,-3.576701,4.519835,4.371486,5.383800,3.280822,-1.47772
1.343,1,1,-3.484691,4.516580,4.369489,5.384522,3.280487,-1.47803
1.344,1,1,-3.391209,4.513563,4.367696,5.385017,3.280862,-1.47924
1.345,1,1,-3.297726,4.510546,4.365902,5.385019,3.282262,-1.47944
1.346,1,1,-3.204244,4.507528,4.364110,5.384923,3.283867,-1.47833
1.347,1,1,-3.123893,4.504560,4.362797,5.385208,3.283668,-1.47754
1.348,1,1,-3.047872,4.501609,4.361643,5.385570,3.283109,-1.47872
1.349,1,1,-2.971851,4.498658,4.360490,5.386029,3.283322,-1.47955
1.350,1,1,-2.895830,4.495706,4.359336,5.386507,3.283689,-1.47899
1.351,1,1,-2.832287,4.493013,4.358565,5.386615,3.287509,-1.47556
1.352,1,1,-2.772859,4.490405,4.357921,5.386649,3.292016,-1.47938
1.353,1,1,-2.713430,4.487797,4.357276,5.386498,3.296224,-1.48016
1.354,1,1,-2.654002,4.485188,4.356632,5.386310,3.300373,-1.47806
1.355,1,1,-2.608019,4.482550,4.356161,5.386354,3.300178,-1.47854
1.356,1,1,-2.566469,4.479901,4.355746,5.386445,3.299119,-1.47918
1.357,1,1,-2.524920,4.477252,4.355331,5.387394,3.296578,-1.47906
1.358,1,1,-2.483371,4.474604,4.354917,5.388513,3.293744,-1.47936
1.359,1,1,-2.437884,4.472039,4.354555,5.390811,3.293192,-1.47939
1.360,1,1,-2.391099,4.469501,4.354210,5.393343,3.293095,-1.47849
1.361,1,1,-2.344315,4.466963,4.353866,5.395720,3.294286,-1.48063
1.362,1,1,-2.297530,4.464426,4.353521,5.398066,3.295733,-1.47853
1.363,1,1,-2.256356,4.462363,4.353081,5.398850,3.296722,-1.47706
1.364,1,1,-2.217031,4.460458,4.352611,5.399324,3.297620,-1.48072
1.365,1,1,-2.177707,4.458553,4.352139,5.398626,3.298992,-1.48058
1.366,1,1,-2.138383,4.456648,4.351669,5.397695,3.300460,-1.47964
1.367,1,1,-2.107898,4.454566,4.351047,5.396399,3.303379,-1.47873
1.368,1,1,-2.080329,4.452427,4.350375,5.395030,3.306587,-1.47924
1.369,1,1,-2.052759,4.450287,4.349704,5.393693,3.308983,-1.48115
1.370,1,1,-2.025190,4.448148,4.349032,5.392365,3.311219,-1.47990
1.371,1,1,-2.004629,4.446175,4.348318,5.391262,3.310541,-1.47860
1.372,1,1,-1.986380,4.444257,4.347589,5.390203,3.309283,-1.47854
1.373,1,1,-1.968131,4.442339,4.346860,5.389161,3.307875,-1.47929
1.374,1,1,-1.949882,4.440422,4.346132,5.388122,3.306436,-1.48065
1.375,1,1,-1.939873,4.438555,4.345421,3.141174,3.307622,-1.47883
1.376,1,1,-1.932582,4.436705,4.344716,0.447200,3.309330,-1.47900
1.377,1,0,-1.925290,4.434856,4.344011,0.000000,3.310281,-1.47867
1.378,1,0,-1.917998,4.433006,4.343306,0.000000,3.311080,-1.47857
1.379,1,0,-1.907549,4.431043,4.342727,0.000000,3.307464,-1.47969
1.380,1,0,-1.896057,4.429042,4.342189,0.000000,3.302970,-1.47928
1.381,1,0,-1.884566,4.427042,4.341651,0.000000,3.297050,-1.47839
1.382,1,0,-1.873075,4.425041,4.341113,0.000000,3.290845,-1.47970
1.383,1,0,-1.860879,4.423149,4.340700,0.000000,3.287155,-1.47954
1.384,1,0,-1.848452,4.421292,4.340328,0.000000,3.283964,-1.47949
1.385,1,0,-1.836024,4.419436,4.339955,0.000000,3.283032,-1.47944
1.386,1,0,-1.823597,4.417580,4.339583,0.000000,3.282548,-1.47919
1.387,1,0,-1.806097,4.415800,4.339279,0.000000,3.283046,-1.48232
1.388,1,0,-1.786924,4.414044,4.338997,0.000000,3.283740,-1.47918
1.389,1,0,-1.767751,4.412288,4.338715,0.000000,3.284883,-1.47934
1.390,1,0,-1.748578,4.410532,4.338433,0.000000,3.286117,-1.47762
1.391,1,0,-1.716179,4.408786,4.338295,0.000000,3.287552,-1.47812
1.392,1,0,-1.679418,4.407043,4.338204,0.000000,3.289028,-1.47917
1.393,1,0,-1.642657,4.405299,4.338113,0.000000,3.290788,-1.47824
1.394,1,0,-1.605895,4.403555,4.338022,0.000000,3.292604,-1.47989
1.395,1,0,-1.562973,4.401865,4.338127,0.000000,3.294873,-1.47857
1.396,1,0,-1.518019,4.400193,4.338296,0.000000,3.297232,-1.47960
1.397,1,0,-1.473064,4.398520,4.338465,0.000000,3.300187,-1.48287
1.398,1,0,-1.428110,4.396848,4.338634,0.000000,3.303262,-1.47965
1.399,1,0,-1.376694,4.395402,4.339084,0.000000,3.307006,-1.47923
1.400,1,0,-1.323146,4.394032,4.339626,0.000000,3.310884,-1.47869
1.401,1,0,-1.269599,4.392663,4.340168,0.000000,3.315215,-1.47680
1.402,1,0,-1.216052,4.391293,4.340711,0.000000,3.319637,-1.47907
1.403,1,0,-1.166133,4.390347,4.341577,0.000000,3.324206,-1.47950
1.404,1,0,-1.117411,4.389541,4.342551,0.000000,3.328805,-1.47970
1.405,1,0,-1.068690,4.388736,4.343524,0.000000,3.333218,-1.47831
1.406,1,0,-1.019968,4.387930,4.344498,0.000000,3.337593,-1.47740
1.407,1,0,-0.976567,4.386962,4.345832,0.000000,3.341447,-1.47858
1.408,1,0,-0.934920,4.385940,4.347287,0.000000,3.345197,-1.47842
1.409,1,0,-0.893274,4.384918,4.348741,0.000000,3.348112,-1.47848
1.410,1,0,-0.851628,4.383896,4.350195,0.000000,3.350860,-1.47876
1.411,1,0,-0.808712,4.383060,4.351964,0.000000,3.352676,-1.47772
1.412,1,0,-0.765377,4.382287,4.353838,0.000000,3.354306,-1.47968
1.413,1,0,-0.722042,4.381513,4.355712,0.000000,3.355847,-1.47773
1.414,1,0,-0.678707,4.380739,4.357586,0.000000,3.357370,-1.47838
1.415,1,0,-0.628566,4.380057,4.359684,0.000000,3.359864,-1.47848
1.416,1,0,-0.576181,4.379405,4.361854,0.000000,3.362550,-1.47763
1.417,1,0,-0.523796,4.378754,4.364025,0.000000,3.367040,-1.47738
1.418,1,0,-0.471411,4.378102,4.366195,0.000000,3.371889,-1.47793
1.419,1,0,-0.409824,4.377622,4.368534,0.000000,3.378642,-1.47884
1.420,1,0,-0.345203,4.377199,4.370929,0.000000,3.385774,-1.47838
1.421,1,0,-0.280581,4.376775,4.373323,0.000000,3.391894,-1.47830
1.422,1,0,-0.215960,4.376351,4.375718,0.000000,3.397812,-1.47771
1.423,1,0,-0.146466,4.376215,4.378203,0.000000,3.399878,-1.47843
1.424,1,0,-0.075365,4.376172,4.380719,0.000000,3.401177,-1.47907
1.425,1,0,-0.004264,4.376130,4.383235,0.000000,3.399980,-1.47928
1.426,1,0,0.066837,4.376087,4.385751,0.000000,3.398287,-1.47685
1.427,1,0,0.142986,4.376362,4.388395,0.000000,3.396503,-1.47710
1.428,1,0,0.220800,4.376740,4.391081,0.000000,3.394702,-1.47890
1.429,1,0,0.298613,4.377120,4.393766,0.000000,3.394588,-1.47798
1.430,1,0,0.376427,4.377499,4.396452,0.000000,3.394810,-1.47798
1.431,1,0,0.451105,4.377831,4.399498,0.000000,3.397819,-1.47836
1.432,1,0,0.524749,4.378150,4.402661,0.000000,3.401382,-1.47875
1.433,1,0,0.598393,4.378467,4.405824,0.000000,3.406559,-1.47768
1.434,1,0,0.672038,4.378785,4.408988,0.000000,3.412057,-1.47751
1.435,1,0,0.728427,4.379516,4.412630,0.000000,3.417557,-1.47879
1.436,1,0,0.779125,4.380383,4.416430,0.000000,3.423056,-1.47838
1.437,1,0,0.829824,4.381250,4.420230,0.000000,3.427854,-1.47823
1.438,1,0,0.880523,4.382117,4.424031,0.000000,3.432512,-1.47864
1.439,1,0,0.916576,4.383410,4.428331,0.000000,3.436151,-1.47935
1.440,1,0,0.947799,4.384842,4.432797,0.000000,3.439587,-1.48030
1.441,1,0,0.979022,4.386275,4.437263,0.000000,3.442267,-1.48080
1.442,1,0,1.010244,4.387708,4.441729,0.000000,3.444795,-1.47933
1.443,1,0,1.039228,4.388927,4.446555,0.000000,3.447267,-1.47993
1.444,1,0,1.067473,4.390074,4.451500,0.000000,3.449727,-1.47782
1.445,1,0,1.095718,4.391222,4.456446,0.000000,3.454072,-1.47762
1.446,1,0,1.123964,4.392371,4.461391,0.000000,3.458792,-1.47772
1.447,1,0,1.176570,4.393037,4.466649,0.000000,3.466583,-1.47812
1.448,1,0,1.237210,4.393544,4.472009,0.000000,3.474984,-1.48031
1.449,1,0,1.297850,4.394051,4.477369,0.000000,3.482627,-1.47972
1.450,1,0,1.358491,4.394557,4.482730,0.000000,3.490120,-1.48104
1.451,1,0,1.450313,4.395742,4.488376,0.000000,3.493268,-1.47928
1.452,1,0,1.552418,4.397149,4.494116,0.000000,3.495550,-1.47868
1.453,1,0,1.654523,4.398557,4.499856,0.000000,3.497409,-1.47923
1.454,1,0,1.756628,4.399964,4.505596,0.000000,3.499184,-1.47863
1.455,1,0,1.881685,4.401861,4.511706,0.000000,3.504931,-1.47923
1.456,1,0,2.014310,4.403920,4.517937,0.000000,3.511469,-1.47786
1.457,1,0,2.146935,4.405979,4.524169,0.000000,3.518924,-1.47867
1.458,1,0,2.279561,4.408038,4.530401,0.000000,3.526562,-1.47994
1.459,1,0,2.412679,4.410724,4.537154,0.000000,3.531362,-1.47883
1.460,1,0,2.545960,4.413616,4.544079,0.000000,3.535596,-1.47955
1.461,1,0,2.679241,4.416508,4.551004,0.000000,3.539587,-1.47815
1.462,1,0,2.812522,4.419401,4.557929,0.000000,3.543529,-1.47840
1.463,1,0,2.923386,4.422402,4.565456,0.000000,3.550344,-1.47945
1.464,1,0,3.026857,4.425440,4.573181,0.000000,3.557730,-1.47823
1.465,1,0,3.130328,4.428478,4.580906,0.000000,3.565347,-1.47989
1.466,1,0,3.233799,4.431515,4.588631,0.000000,3.573010,-1.48020
1.467,1,0,3.329419,4.434899,4.596966,0.000000,3.577838,-1.47990
1.468,1,0,3.422449,4.438398,4.605503,0.000000,3.582103,-1.47887
1.469,1,0,3.515480,4.441896,4.614039,0.000000,3.585928,-1.47846
1.470,1,0,3.608510,4.445395,4.622575,0.000000,3.589667,-1.47986
1.471,1,0,3.701701,4.449146,4.631537,0.000000,3.595741,-1.47898
1.472,1,0,3.794945,4.452981,4.640639,0.000000,3.602280,-1.48079
1.473,1,0,3.888190,4.456816,4.649740,0.000000,3.608664,-1.48121
1.474,1,0,3.981434,4.460650,4.658842,0.000000,3.615017,-1.48101
1.475,1,0,4.087848,4.464603,4.667980,0.000000,3.618120,-1.47791
1.476,1,0,4.198606,4.468596,4.677130,0.000000,3.620575,-1.47947
1.477,1,0,4.309364,4.472588,4.686280,0.000000,3.620682,-1.47875
1.478,1,0,4.420122,4.476580,4.695429,0.000000,3.620322,-1.47766
1.479,1,0,4.547987,4.481050,4.704309,0.000000,3.619564,-1.47820
1.480,1,0,4.681493,4.485677,4.713099,0.000000,3.618727,-1.47863
1.481,1,0,4.815001,4.490305,4.721889,0.000000,3.619081,-1.47917
1.482,1,0,4.948507,4.494933,4.730680,0.000000,3.619672,-1.47893
1.483,1,0,5.084758,4.500054,4.738988,0.000000,3.622135,-1.47753
1.484,1,0,5.221913,4.505339,4.747139,0.000000,3.624970,-1.47786
1.485,1,0,5.359068,4.510623,4.755289,0.000000,3.626730,-1.47924
1.486,1,0,5.496223,4.515908,4.763439,0.000000,3.628275,-1.47807
1.487,0,0,5.620660,4.521561,4.771214,0.000000,2.115434,-1.47580
1.488,0,0,5.740903,4.527336,4.778864,0.000000,0.301168,-1.47716
1.489,0,0,5.861145,4.533111,4.786515,0.000000,0.000000,-1.47756
1.490,0,0,5.981388,4.538886,4.794166,0.000000,0.000000,-1.47899
1.491,0,0,6.057659,4.545337,4.801410,0.000000,0.000000,-1.47802
1.492,0,0,6.119430,4.552011,4.808520,0.000000,0.000000,-1.47717
1.493,0,0,6.181200,4.558685,4.815630,0.000000,0.000000,-1.47822
1.494,0,0,6.242970,4.565360,4.822741,0.000000,0.000000,-1.47924
1.495,0,0,6.260151,4.571970,4.829350,0.000000,0.000000,-1.48446
1.496,0,0,6.262627,4.578558,4.835794,0.000000,0.000000,-1.48003
1.497,0,0,6.265103,4.585147,4.842237,0.000000,0.000000,-1.47868
1.498,0,0,6.267579,4.591735,4.848681,0.000000,0.000000,-1.47808
1.499,0,0,6.234134,4.598192,4.854498,0.000000,0.000000,-1.47969
1.500,0,0,6.188842,4.604605,4.860108,0.000000,0.000000,-1.47970
1.501,0,0,6.143549,4.611018,4.865718,0.000000,0.000000,-1.47860
1.502,0,0,6.098258,4.617432,4.871327,0.000000,0.000000,-1.47781
1.503,0,0,6.029514,4.623271,4.876101,0.000000,0.000000,-1.47840
1.504,0,0,5.953036,4.628922,4.880599,0.000000,0.000000,-1.47823
1.505,0,0,5.876558,4.634572,4.885097,0.000000,0.000000,-1.47953
1.506,0,0,5.800081,4.640222,4.889594,0.000000,0.000000,-1.48031
1.507,0,0,5.726130,4.645977,4.893082,0.000000,0.000000,-1.47924
1.508,0,0,5.653012,4.651766,4.896236,0.000000,0.000000,-1.48008
1.509,0,0,5.579895,4.657555,4.899391,0.000000,0.000000,-1.47828
1.510,0,0,5.506777,4.663343,4.902545,0.000000,0.000000,-1.48162
1.511,0,0,5.431906,4.668859,4.904668,0.000000,0.000000,-1.48036
1.512,0,0,5.356456,4.674283,4.906450,0.000000,0.000000,-1.47950
1.513,0,0,5.281007,4.679708,4.908232,0.000000,0.000000,-1.48041
1.514,0,0,5.205557,4.685132,4.910013,0.000000,0.000000,-1.47968
1.515,0,0,5.123507,4.690080,4.910905,0.000000,0.000000,-1.47812
1.516,0,0,5.039281,4.694872,4.911503,0.000000,0.000000,-1.47928
1.517,0,0,4.955055,4.699663,4.912101,0.000000,0.000000,-1.47878
1.518,0,0,4.870829,4.704455,4.912700,0.000000,0.000000,-1.47904
1.519,0,0,4.770479,4.709348,4.912639,0.000000,1.507165,-1.47860
1.520,1,0,4.664813,4.714274,4.912361,0.000000,3.314317,-1.47726
1.521,1,0,4.559146,4.719201,4.912083,0.000000,3.619114,-1.48059
1.522,1,0,4.453479,4.724128,4.911806,0.000000,3.624882,-1.48202
1.523,1,0,4.332558,4.728743,4.911099,0.000000,3.628681,-1.47831
1.524,1,0,4.206606,4.733256,4.910252,0.000000,3.632089,-1.47913
1.525,1,0,4.080654,4.737769,4.909405,0.000000,3.633767,-1.47945
1.526,1,0,3.954702,4.742281,4.908558,0.000000,3.635102,-1.47832
1.527,1,0,3.819386,4.745944,4.907530,0.000000,3.635615,-1.47972
1.528,1,0,3.680981,4.749325,4.906443,0.000000,3.635965,-1.47923
1.529,1,0,3.542577,4.752707,4.905355,0.000000,3.634598,-1.47975
1.530,1,0,3.404172,4.756088,4.904268,0.000000,3.632890,-1.48004
1.531,1,0,3.261185,4.759212,4.902995,0.000000,3.628307,-1.47929
1.532,1,0,3.116686,4.762250,4.901659,0.000000,3.623152,-1.47883
1.533,1,0,2.972187,4.765289,4.900323,0.000000,3.615093,-1.48015
1.534,1,0,2.827688,4.768328,4.898988,0.000000,3.606456,-1.47979
1.535,1,0,2.693038,4.771094,4.897392,0.000000,3.596242,-1.47885
1.536,1,0,2.561637,4.773771,4.895712,0.000000,3.585713,-1.47847
1.537,1,0,2.430236,4.776447,4.894031,0.000000,3.579640,-1.47934
1.538,1,0,2.298836,4.779124,4.892350,0.000000,3.574454,-1.47888
1.539,1,0,2.188879,4.781196,4.890327,0.000000,3.574175,-1.47822
1.540,1,0,2.085993,4.783068,4.888191,0.000000,3.574873,-1.47874
1.541,1,0,1.983108,4.784940,4.886055,0.000000,3.549665,-1.48036
1.542,1,0,1.880223,4.786812,4.883918,0.000000,3.519301,-1.47939
1.543,1,0,1.801559,4.788281,4.881386,0.000000,3.453864,-1.47780
1.544,1,0,1.730883,4.789618,4.878724,0.000000,3.381445,-1.47736
1.545,1,0,1.660207,4.790954,4.876061,0.000000,3.402700,-1.47815
1.546,1,0,1.589531,4.792290,4.873399,0.000000,3.442600,-1.47903
1.547,1,0,1.540153,4.793687,4.870413,0.000000,3.684611,-1.47820
1.548,1,0,1.497799,4.795105,4.867321,0.000000,3.966851,-1.47877
1.549,1,0,1.455445,4.796522,4.864229,0.000000,4.291409,-1.47975
1.550,1,0,1.413090,4.797939,4.861137,0.000000,4.624392,-1.47929
1.551,1,0,1.374201,4.799347,4.857956,0.000000,4.797433,-1.48005
1.552,1,0,1.336454,4.800752,4.854747,0.000000,4.938639,-1.47801
1.553,1,0,1.298707,4.802157,4.851537,0.000000,4.868527,-1.48087
1.554,1,0,1.260960,4.803562,4.848327,0.000000,4.756354,-1.47882
1.555,1,0,1.198958,4.804943,4.845219,0.000000,4.461655,-1.47693
1.556,1,0,1.128957,4.806315,4.842144,0.000000,4.130626,-1.47752
1.557,1,0,1.058956,4.807688,4.839068,0.000000,3.815609,-1.47722
1.558,1,0,0.988956,4.809061,4.835993,0.000000,3.503778,-1.47907
1.559,1,0,0.887424,4.810209,4.833072,0.000000,3.392954,-1.47740
1.560,1,0,0.775494,4.811284,4.830203,0.000000,3.322138,-1.47949
1.561,1,0,0.663564,4.812358,4.827333,0.000000,3.358988,-1.47766
1.562,1,0,0.551634,4.813432,4.824463,0.000000,3.417267,-1.48059
1.563,1,0,0.424656,4.813974,4.821697,0.000000,3.443638,-1.47848
1.564,1,0,0.292717,4.814341,4.818964,0.000000,3.463659,-1.47889
1.565,1,0,0.160777,4.814708,4.816232,0.000000,3.458965,-1.47914
1.566,1,0,0.028837,4.815074,4.813499,0.000000,3.449352,-1.47796
1.567,1,0,-0.091709,4.814682,4.810740,0.000000,3.453627,-1.47805
1.568,1,0,-0.208497,4.814039,4.807972,0.000000,3.460665,-1.47852
1.569,1,0,-0.325284,4.813396,4.805204,0.000000,3.474602,-1.47813
1.570,1,0,-0.442072,4.812754,4.802436,0.000000,3.489910,-1.47995
1.571,1,0,-0.526963,4.811916,4.799480,0.000000,3.496649,-1.47656
1.572,1,0,-0.601335,4.811015,4.796462,0.000000,3.501682,-1.47863
1.573,1,0,-0.675707,4.810113,4.793444,0.000000,3.502636,-1.47923
1.574,1,0,-0.750078,4.809212,4.790426,0.000000,3.502777,-1.47818
1.575,1,0,-0.789378,4.808284,4.787232,0.000000,3.506469,-1.47706
1.576,1,0,-0.817112,4.807347,4.783980,0.000000,3.510867,-1.47832
1.577,1,0,-0.844845,4.806410,4.780728,0.000000,3.515136,-1.47843
1.578,1,0,-0.872579,4.805473,4.777476,0.000000,3.519379,-1.47898
1.579,1,0,-0.883401,4.804524,4.774295,0.000000,3.518614,-1.47943
1.580,1,0,-0.888646,4.803570,4.771139,0.000000,3.516853,-1.47740
1.581,1,0,-0.893891,4.802617,4.767982,0.000000,3.514260,-1.48115
1.582,1,0,-0.899137,4.801663,4.764825,0.000000,3.511501,-1.47771
1.583,1,0,-0.909176,4.800764,4.762099,0.000000,3.513415,-1.47813
1.584,1,0,-0.920796,4.799883,4.759516,0.000000,3.516259,-1.48117
1.585,1,0,-0.932417,4.799002,4.756932,0.000000,3.523721,-1.47885
1.586,1,0,-0.944037,4.798120,4.754349,0.000000,3.532103,-1.47935
1.587,1,0,-0.974001,4.797395,4.752413,0.000000,3.543006,-1.48015
1.588,1,0,-1.010015,4.796721,4.750690,0.000000,3.554410,-1.47850
1.589,1,0,-1.046029,4.796047,4.748968,0.000000,3.564106,-1.47785
1.590,1,0,-1.082042,4.795373,4.747246,0.000000,3.573461,-1.47864
1.591,1,0,-1.125349,4.794320,4.746206,0.000000,3.577698,-1.47807
1.592,1,0,-1.171061,4.793142,4.745391,0.000000,3.580917,-1.47868
1.593,1,0,-1.216772,4.791965,4.744577,0.000000,3.582047,-1.47844
1.594,1,0,-1.262484,4.790787,4.743762,0.000000,3.582760,-1.47797
1.595,1,0,-1.296867,4.789369,4.743386,0.000000,3.585143,-1.47913
1.596,1,0,-1.327514,4.787870,4.743155,0.000000,3.587859,-1.47999
1.597,1,0,-1.358161,4.786373,4.742924,0.000000,3.591065,-1.47733
1.598,1,0,-1.388807,4.784874,4.742692,0.000000,3.594370,-1.47738
1.599,1,0,-1.380744,4.783131,4.742635,0.000000,3.596197,-1.48025
1.600,1,0,-1.359915,4.781306,4.742635,0.000000,3.597730,-1.48015
1.601,1,0,-1.339085,4.779482,4.742635,0.000000,3.598553,-1.48008
1.602,1,0,-1.318256,4.777658,4.742635,0.000000,3.599235,-1.47179
1.603,1,0,-1.256180,4.776167,4.742660,0.000000,3.600501,-1.47892
1.604,1,0,-1.180502,4.774786,4.742692,0.000000,3.601883,-1.47943
1.605,1,0,-1.104824,4.773406,4.742724,0.000000,3.604025,-1.48001
1.606,1,0,-1.029146,4.772025,4.742756,0.000000,3.606318,-1.47835
1.607,1,0,-0.935056,4.770932,4.742826,0.000000,3.609412,-1.47938
1.608,1,0,-0.834892,4.769933,4.742908,0.000000,3.612666,-1.48101
1.609,1,0,-0.734729,4.768934,4.742990,0.000000,3.617577,-1.48362
1.610,1,0,-0.634566,4.767935,4.743073,0.000000,3.622818,-1.47591
1.611,1,0,-0.547669,4.767709,4.743218,0.000000,3.630234,-1.48072
1.612,1,0,-0.465146,4.767739,4.743384,0.000000,3.638084,-1.48046
1.613,1,0,-0.382623,4.767768,4.743551,0.000000,3.646062,-1.47812
1.614,1,0,-0.300101,4.767798,4.743717,0.000000,3.654065,-1.47983
1.615,1,0,-0.248355,4.767882,4.743939,0.000000,3.660114,-1.47924
1.616,1,0,-0.206758,4.767983,4.744179,0.000000,3.665774,-1.47948
1.617,1,0,-0.165161,4.768085,4.744419,0.000000,3.670527,-1.47934
1.618,1,0,-0.123565,4.768187,4.744659,0.000000,3.675099,-1.47644
1.619,1,0,-0.107825,4.768192,4.744728,0.000000,3.680153,-1.47879
1.620,1,0,-0.100613,4.768166,4.744739,0.000000,3.685303,-1.48031
1.621,1,0,-0.093401,4.768139,4.744751,0.000000,3.689876,-1.47787
1.622,1,0,-0.086189,4.768113,4.744763,0.000000,3.694335,-1.48014
1.623,1,0,-0.092857,4.767867,4.744287,0.000000,3.696898,-1.47939
1.624,1,0,-0.104102,4.767549,4.743651,0.000000,3.699085,-1.47908
1.625,1,0,-0.115348,4.767231,4.743014,0.000000,3.700018,-1.47975
1.626,1,0,-0.126593,4.766912,4.742378,0.000000,3.700702,-1.47879
1.627,1,0,-0.143327,4.766827,4.740868,0.000000,3.701208,-1.47915
1.628,1,0,-0.161872,4.766819,4.739070,0.000000,3.701677,-1.47949
1.629,1,0,-0.180416,4.766810,4.737272,0.000000,3.702487,-1.47953
1.630,1,0,-0.198961,4.766801,4.735475,0.000000,3.703365,-1.47782
1.631,1,0,-0.223446,4.766653,4.732618,0.000000,3.704789,-1.47786
1.632,1,0,-0.249891,4.766458,4.729412,0.000000,3.706321,-1.47854
1.633,1,0,-0.276335,4.766263,4.726205,0.000000,3.707894,-1.47919
1.634,1,0,-0.302780,4.766069,4.722999,0.000000,3.709476,-1.47447
1.635,1,0,-0.345928,4.765847,4.718779,0.000000,3.710309,-1.47794
1.636,1,0,-0.394586,4.765615,4.714224,0.000000,3.710993,-1.47959
1.637,1,0,-0.443243,4.765383,4.709669,0.000000,3.709762,-1.47679
1.638,1,0,-0.491900,4.765152,4.705114,0.000000,3.708151,-1.47867
1.639,1,0,-0.580147,4.764563,4.699803,0.000000,3.704113,-1.47898
1.640,1,0,-0.681450,4.763856,4.694242,0.000000,3.699591,-1.47986
1.641,1,0,-0.782753,4.763149,4.688681,0.000000,3.695562,-1.47761
1.642,1,0,-0.884056,4.762443,4.683120,0.000000,3.691631,-1.47863
1.643,1,0,-1.026686,4.761753,4.676965,0.000000,3.690828,-1.47676
1.644,1,0,-1.182944,4.761068,4.670615,0.000000,3.690647,-1.47993
1.645,1,0,-1.339203,4.760384,4.664264,0.000000,3.690542,-1.47969
1.646,1,0,-1.495462,4.759700,4.657913,0.000000,3.690453,-1.47804
1.647,1,0,-1.681624,4.758428,4.650982,0.000000,3.687284,-1.47878
1.648,1,0,-1.877649,4.756961,4.643859,0.000000,3.683504,-1.47888
1.649,1,0,-2.073674,4.755496,4.636736,0.000000,3.680286,-1.47862
1.650,1,0,-2.269699,4.754029,4.629613,0.000000,3.677180,-1.47919
1.651,1,0,-2.457840,4.751299,4.621900,0.000000,3.678452,-1.47860
1.652,1,0,-2.643382,4.748152,4.613993,0.000000,3.680595,-1.47760
1.653,1,0,-2.828924,4.745005,4.606086,2.256777,3.683017,-1.48070
1.654,1,1,-3.014466,4.741858,4.598179,4.962745,3.685496,-1.48170
1.655,1,1,-3.172034,4.738054,4.589827,5.413308,3.683359,-1.47811
1.656,1,1,-3.320378,4.734034,4.581328,5.414954,3.680305,-1.47904
1.657,1,1,-3.468721,4.730014,4.572829,5.415698,3.674252,-1.47904
1.658,1,1,-3.617065,4.725994,4.564330,5.416263,3.667602,-1.47769
1.659,1,1,-3.736942,4.722090,4.555641,5.415721,3.660774,-1.47904
1.660,1,1,-3.847432,4.718226,4.546889,5.414958,3.653910,-1.48160
1.661,1,1,-3.957922,4.714361,4.538137,5.414204,3.646816,-1.48056
1.662,1,1,-4.068411,4.710497,4.529385,5.413451,3.639677,-1.47925
1.663,1,1,-4.168246,4.706622,4.520889,5.413861,3.631696,-1.47560
1.664,1,1,-4.264567,4.702744,4.512476,5.414503,3.623547,-1.47778
1.665,1,1,-4.360888,4.698865,4.504065,5.415936,3.615094,-1.47979
1.666,1,1,-4.457210,4.694987,4.495652,5.417529,3.606580,-1.47929
1.667,1,1,-4.556171,4.690509,4.487888,5.419013,3.598672,-1.47859
1.668,1,1,-4.656004,4.685834,4.480337,5.420476,3.590884,-1.47863
1.669,1,1,-4.755837,4.681159,4.472786,5.420479,3.584833,-1.48131
1.670,1,1,-4.855670,4.676484,4.465236,5.420192,3.579127,-1.48084
1.671,1,1,-4.946669,4.671276,4.458725,5.417557,3.575443,-1.47955
1.672,1,1,-5.034755,4.665893,4.452557,5.414454,3.572161,-1.47888
1.673,1,1,-5.122840,4.660510,4.446389,5.410798,3.567080,-1.47791
1.674,1,1,-5.210926,4.655126,4.440221,5.407031,3.561640,-1.47853
1.675,1,1,-5.270577,4.649582,4.435333,5.404691,3.551280,-1.47904
1.676,1,1,-5.320851,4.643985,4.430869,5.402635,3.539942,-1.48040
1.677,1,1,-5.371126,4.638389,4.426404,3.149537,3.528988,-1.47816
1.678,1,0,-5.421400,4.632792,4.421938,0.448390,3.518112,-1.47978
1.679,1,0,-5.429194,4.627212,4.418696,0.000000,3.513019,-1.47771
1.680,1,0,-5.422981,4.621637,4.415857,0.000000,3.509077,-1.47989
1.681,1,0,-5.416767,4.616062,4.413019,0.000000,3.505959,-1.47887
1.682,1,0,-5.410553,4.610487,4.410180,0.000000,3.503004,-1.47848
1.683,1,0,-5.348227,4.604988,4.408459,0.000000,3.495243,-1.47920
1.684,1,0,-5.267395,4.599513,4.407107,0.000000,3.486525,-1.47795
1.685,1,0,-5.186564,4.594038,4.405755,0.000000,3.477586,-1.47964
1.686,1,0,-5.105733,4.588564,4.404402,0.000000,3.468603,-1.47811
1.687,1,0,-4.976334,4.583220,4.404189,0.000000,3.465187,-1.48040
1.688,1,0,-4.830919,4.577919,4.404351,0.000000,3.462879,-1.47790
1.689,1,0,-4.685503,4.572619,4.404512,0.000000,3.464303,-1.47785
1.690,1,0,-4.540088,4.567318,4.404675,0.000000,3.466469,-1.47874
1.691,1,0,-4.356375,4.562558,4.406178,0.000000,3.468939,-1.47795
1.692,1,0,-4.160033,4.557976,4.408123,0.000000,3.471469,-1.48044
1.693,1,0,-3.963690,4.553395,4.410069,0.000000,3.473429,-1.47778
1.694,1,0,-3.767347,4.548813,4.412015,0.000000,3.475276,-1.47828
1.695,1,0,-3.562261,4.545577,4.415355,0.000000,3.476776,-1.47814
1.696,1,0,-3.354290,4.542784,4.419155,0.000000,3.478207,-1.47816
1.697,1,0,-3.146319,4.539991,4.422954,0.000000,3.481224,-1.47883
1.698,1,0,-2.938349,4.537199,4.426754,0.000000,3.484557,-1.48004
1.699,1,0,-2.738153,4.534783,4.431758,0.000000,3.490946,-1.47893
1.700,1,0,-2.540522,4.532491,4.437159,0.000000,3.497942,-1.47716
1.701,1,0,-2.342890,4.530199,4.442560,0.000000,3.505183,-1.47724
1.702,1,0,-2.145258,4.527907,4.447961,0.000000,3.512471,-1.47847
1.703,1,0,-1.948630,4.525954,4.454216,0.000000,3.517072,-1.48029
1.704,1,0,-1.752332,4.524113,4.460752,0.000000,3.521137,-1.48041
1.705,1,0,-1.556034,4.522272,4.467288,0.000000,3.524508,-1.47788
1.706,1,0,-1.359736,4.520431,4.473825,0.000000,3.527741,-1.47791
1.707,1,0,-1.157777,4.519041,4.480828,0.000000,3.532724,-1.48034
1.708,1,0,-0.953952,4.517799,4.487986,0.000000,3.538056,-1.47928
1.709,1,0,-0.750126,4.516558,4.495143,0.000000,3.543326,-1.47878
1.710,1,0,-0.546300,4.515316,4.502301,0.000000,3.548584,-1.47743
1.711,1,0,-0.328449,4.514929,4.509606,0.000000,3.551385,-1.47863
1.712,1,0,-0.105972,4.514822,4.516961,0.000000,3.553697,-1.47885
1.713,1,0,0.116505,4.514717,4.524315,0.000000,3.553977,-1.47874
1.714,1,0,0.338981,4.514610,4.531670,0.000000,3.553852,-1.47864
1.715,1,0,0.551806,4.515414,4.538902,0.000000,3.552836,-1.47867
1.716,1,0,0.761448,4.516518,4.546094,0.000000,3.551643,-1.47917
1.717,1,0,0.971090,4.517622,4.553286,0.000000,3.550350,-1.47908
1.718,1,0,1.180732,4.518725,4.560478,0.000000,3.549037,-1.47813
1.719,1,0,1.358487,4.520398,4.567398,0.000000,3.548372,-1.47883
1.720,1,0,1.525725,4.522258,4.574227,0.000000,3.547836,-1.47830
1.721,1,0,1.692963,4.524119,4.581057,0.000000,3.548953,-1.47849
1.722,1,0,1.860201,4.525979,4.587886,0.000000,3.550400,-1.47934
1.723,1,0,1.979955,4.528201,4.594437,0.000000,3.554075,-1.47914
1.724,1,0,2.084050,4.530541,4.600895,0.000000,3.558195,-1.47874
1.725,1,0,2.188144,4.532881,4.607353,0.000000,3.562849,-1.47903
1.726,1,0,2.292239,4.535222,4.613811,0.000000,3.567609,-1.47783
1.727,1,0,2.357663,4.537812,4.619936,0.000000,3.571167,-1.47969
1.728,1,0,2.410333,4.540485,4.625950,0.000000,3.574486,-1.47818
1.729,1,0,2.463004,4.543159,4.631965,0.000000,3.577580,-1.47782
1.730,1,0,2.515675,4.545832,4.637979,0.000000,3.580631,-1.47816
1.731,1,0,2.543036,4.548578,4.643525,0.000000,3.584683,-1.47938
1.732,1,0,2.562049,4.551348,4.648916,0.000000,3.588935,-1.47802
1.733,1,0,2.581063,4.554118,4.654307,0.000000,3.593064,-1.47962
1.734,1,0,2.600077,4.556888,4.659698,0.000000,3.597168,-1.48003
1.735,1,0,2.611077,4.559388,4.664473,0.000000,3.599540,-1.47773
1.736,1,0,2.619434,4.561800,4.669044,0.000000,3.601566,-1.47802
1.737,1,0,2.627791,4.564211,4.673615,0.000000,3.601064,-1.48099
1.738,1,0,2.636148,4.566622,4.678185,0.000000,3.600058,-1.47893
1.739,1,0,2.642795,4.569214,4.682117,0.000000,3.596491,-1.47794
1.740,1,0,2.648877,4.571866,4.685839,0.000000,3.592415,-1.47822
1.741,1,0,2.654959,4.574517,4.689561,0.000000,3.588166,-1.47721
1.742,1,0,2.661041,4.577168,4.693282,0.000000,3.583884,-1.47913
1.743,1,0,2.664626,4.579874,4.696518,0.000000,3.582231,-1.47935
1.744,1,0,2.667388,4.582598,4.699594,0.000000,3.581101,-1.47929
1.745,1,0,2.670150,4.585322,4.702670,0.000000,3.584179,-1.47869
1.746,1,0,2.672911,4.588046,4.705745,0.000000,3.588093,-1.48025
1.747,1,0,2.667717,4.590834,4.708643,0.000000,3.596457,-1.47909
1.748,1,0,2.659899,4.593644,4.711483,0.000000,3.605706,-1.47893
1.749,1,0,2.652081,4.596453,4.714322,0.000000,3.615176,-1.47964
1.750,1,0,2.644262,4.599262,4.717162,0.000000,3.624689,-1.47983
1.751,1,0,2.623162,4.601924,4.720063,0.000000,3.630438,-1.48129
1.752,1,0,2.597681,4.604537,4.722983,0.000000,3.635438,-1.47955
1.753,1,0,2.572200,4.607151,4.725904,0.000000,3.639514,-1.48102
1.754,1,0,2.546719,4.609764,4.728826,0.000000,3.643407,-1.47802
1.755,1,0,2.519796,4.612324,4.731959,0.000000,3.649848,-1.47982
1.756,1,0,2.492398,4.614867,4.735163,0.000000,3.656796,-1.47829
1.757,1,0,2.465000,4.617409,4.738367,0.000000,3.663898,-1.47901
1.758,1,0,2.437601,4.619952,4.741571,0.000000,3.671031,-1.47718
1.759,1,0,2.419491,4.622279,4.745107,0.000000,3.675237,-1.47736
1.760,1,0,2.404443,4.624534,4.748752,0.000000,3.678860,-1.47823
1.761,1,0,2.389395,4.626790,4.752398,0.000000,3.680867,-1.47956
1.762,1,0,2.374347,4.629045,4.756043,0.000000,3.682553,-1.47960
1.763,1,0,2.377091,4.631232,4.759947,0.000000,3.684861,-1.47800
1.764,1,0,2.385701,4.633395,4.763937,0.000000,3.687293,-1.47867
1.765,1,0,2.394312,4.635558,4.767927,0.000000,3.691162,-1.47927
1.766,1,0,2.402922,4.637722,4.771917,0.000000,3.695317,-1.48070
1.767,1,0,2.440339,4.640072,4.776109,0.000000,3.700989,-1.48030
1.768,1,0,2.487255,4.642485,4.780369,0.000000,3.706963,-1.47853
1.769,1,0,2.534171,4.644897,4.784628,0.000000,3.713032,-1.48135
1.770,1,0,2.581087,4.647310,4.788888,0.000000,3.719119,-1.48074
1.771,1,0,2.646893,4.649914,4.793275,0.000000,3.723911,-1.47827
1.772,1,0,2.718927,4.652581,4.797705,0.000000,3.728445,-1.47980
1.773,1,0,2.790962,4.655248,4.802135,0.000000,3.732359,-1.47868
1.774,1,0,2.862997,4.657915,4.806565,0.000000,3.736149,-1.47415
1.775,1,0,2.945643,4.660641,4.811063,0.000000,3.740218,-1.47779
1.776,1,0,3.031789,4.663386,4.815583,0.000000,3.744343,-1.47898
1.777,1,0,3.117935,4.666131,4.820103,0.000000,3.748027,-1.47782
1.778,1,0,3.204082,4.668876,4.824622,0.000000,3.751622,-1.47898
1.779,1,0,3.287531,4.672416,4.829046,0.000000,3.753877,-1.47792
1.780,1,0,3.370091,4.676217,4.833438,0.000000,3.755864,-1.47765
1.781,1,0,3.452651,4.680018,4.837830,0.000000,3.756879,-1.47871
1.782,1,0,3.535210,4.683820,4.842222,0.000000,3.757700,-1.47792
1.783,1,0,3.603722,4.687577,4.846371,0.000000,3.758169,-1.47753
1.784,1,0,3.667601,4.691319,4.850439,0.000000,3.758567,-1.48193
1.785,1,0,3.731480,4.695062,4.854508,0.000000,3.758753,-1.47822
1.786,1,0,3.795358,4.698805,4.858577,0.000000,3.758897,-1.48047
1.787,1,0,3.843120,4.702616,4.862308,0.000000,3.759099,-1.47841
1.788,1,0,3.885566,4.706450,4.865927,0.000000,3.759312,-1.47858
1.789,1,0,3.928012,4.710284,4.869547,0.000000,3.761059,-1.47772
1.790,1,0,3.970458,4.714118,4.873167,0.000000,3.763110,-1.47888
1.791,1,0,3.982781,4.718235,4.876296,0.000000,3.767920,-1.47869
1.792,1,0,3.985170,4.722446,4.879263,0.000000,3.773280,-1.47931
1.793,1,0,3.987559,4.726658,4.882231,0.000000,3.779958,-1.47862
1.794,1,0,3.989949,4.730869,4.885199,0.000000,3.786900,-1.47911
1.795,1,0,3.961160,4.735097,4.887629,0.000000,3.793444,-1.47979
1.796,1,0,3.922089,4.739332,4.889882,0.000000,3.799908,-1.47904
1.797,1,0,3.883018,4.743567,4.892136,0.000000,3.806406,-1.47892
1.798,1,0,3.843947,4.747802,4.894389,0.000000,3.812910,-1.47650
1.799,1,0,3.769464,4.751770,4.896070,0.000000,3.819983,-1.47638
1.800,1,0,3.683304,4.755651,4.897564,0.000000,3.827171,-1.47455
1.801,1,0,3.597142,4.759531,4.899057,0.000000,3.833195,-1.47362
1.802,1,0,3.510982,4.763412,4.900551,0.000000,3.838987,-1.47141
1.803,1,0,3.402996,4.766914,4.901308,0.000000,2.238690,-1.46842
1.804,0,0,3.287812,4.770292,4.901821,0.000000,0.318716,-1.46992
1.805,0,0,3.172629,4.773669,4.902334,0.000000,0.000000,-1.46354
1.806,0,0,3.057445,4.777046,4.902847,0.000000,0.000000,-1.46164
1.807,0,0,2.947913,4.779880,4.902738,0.000000,0.000000,-1.45469
1.808,0,0,2.840245,4.782534,4.902423,0.000000,0.000000,-1.44456
1.809,0,0,2.732576,4.785188,4.902109,0.000000,0.000000,-1.44231
1.810,0,0,2.624908,4.787843,4.901794,0.000000,0.000000,-1.43642
1.811,0,0,2.522816,4.790090,4.900903,0.000000,0.000000,-1.42940
1.812,0,0,2.422564,4.792202,4.899822,0.000000,0.000000,-1.41904
1.813,0,0,2.322311,4.794314,4.898741,0.000000,0.000000,-1.40691
1.814,0,0,2.222059,4.796427,4.897660,0.000000,0.000000,-1.39821
1.815,0,0,2.135117,4.798478,4.896135,0.000000,0.000000,-1.39068
1.816,0,0,2.052564,4.800509,4.894464,0.000000,0.000000,-1.38290
1.817,0,0,1.970012,4.802540,4.892794,0.000000,0.000000,-1.37224
1.818,0,0,1.887459,4.804571,4.891123,0.000000,0.000000,-1.36068
1.819,0,0,1.806293,4.806715,4.889230,0.000000,0.000000,-1.35016
1.820,0,0,1.725583,4.808896,4.887264,0.000000,0.000000,-1.32864
1.821,0,0,1.644873,4.811077,4.885298,0.000000,0.000000,-1.31832
1.822,0,0,1.564164,4.813258,4.883332,0.000000,0.000000,-1.30697
1.823,0,0,1.479534,4.814467,4.881372,0.000000,0.000000,-1.29289
1.824,0,0,1.393611,4.815355,4.879414,0.000000,0.000000,-1.28226
1.825,0,0,1.307689,4.816243,4.877455,0.000000,0.000000,-1.26745
1.826,0,0,1.221766,4.817131,4.875496,0.000000,0.000000,-1.24699
1.827,0,0,1.144218,4.818188,4.873765,0.000000,0.000000,-1.22720
1.828,0,0,1.069432,4.819300,4.872110,0.000000,0.000000,-1.21057
1.829,0,0,0.994645,4.820412,4.870454,0.000000,0.000000,-1.19663
1.830,0,0,0.919859,4.821525,4.868799,0.000000,0.000000,-1.18103
1.831,0,0,0.844320,4.822495,4.867353,0.000000,0.000000,-1.16562
1.832,0,0,0.768532,4.823418,4.865976,0.000000,0.000000,-1.14324
1.833,0,0,0.692745,4.824341,4.864600,0.000000,0.000000,-1.11790
1.834,0,0,0.616958,4.825264,4.863224,0.000000,0.000000,-1.09908
1.835,0,0,0.560702,4.825617,4.861971,0.000000,0.000000,-1.08465
1.836,0,0,0.510887,4.825782,4.860759,0.000000,0.000000,-1.06803
1.837,0,0,0.461073,4.825947,4.859547,0.000000,0.000000,-1.04594
1.838,0,0,0.411258,4.826111,4.858335,0.000000,0.000000,-1.02646
1.839,0,0,0.378611,4.826470,4.856996,0.000000,0.000000,-1.00350
1.840,0,0,0.351625,4.826892,4.855615,0.000000,0.000000,-0.97214
