"Time","60 right DS","59 left DS","37a CoMy (cm)","37 CoMy (cm)","v1 xCoM","v3 L COP","v2 R COP","3 Platform"
0.000,0,0,6.486542,5.084823,5.356771,0.000000,0.000000,0.00002
0.001,0,0,6.464265,5.091223,5.362229,0.000000,0.000000,0.00015
0.002,0,0,6.441988,5.097622,5.367688,0.000000,0.000000,0.00000
0.003,0,0,6.391550,5.104310,5.372674,0.000000,0.000000,-0.00014
0.004,0,0,6.324289,5.111169,5.377375,0.000000,0.000000,0.00014
0.005,0,0,6.257028,5.118029,5.382077,0.000000,0.000000,0.00016
0.006,0,0,6.189766,5.124888,5.386778,0.000000,0.000000,0.00000
0.007,0,0,6.097409,5.131453,5.390833,0.000000,0.000000,0.00027
0.008,0,0,5.990058,5.137842,5.394501,0.000000,0.000000,0.00000
0.009,0,0,5.882708,5.144231,5.398169,0.000000,0.000000,0.00015
0.010,0,0,5.775358,5.150621,5.401836,0.000000,0.000000,0.00013
0.011,0,0,5.676735,5.156081,5.404874,0.000000,0.000000,0.00015
0.012,0,0,5.583327,5.160986,5.407535,0.000000,0.000000,0.00000
0.013,0,0,5.489920,5.165892,5.410196,0.000000,0.000000,0.00029
0.014,0,0,5.396512,5.170797,5.412858,0.000000,0.000000,0.00000
0.015,0,0,5.308998,5.175710,5.414900,0.000000,0.000000,-0.00029
0.016,0,0,5.225005,5.180629,5.416574,0.000000,0.000000,-0.00001
0.017,0,0,5.141012,5.185548,5.418247,0.000000,0.000000,0.00000
0.018,0,0,5.057019,5.190466,5.419920,0.000000,0.000000,-0.00001
0.019,0,0,4.984400,5.195426,5.421084,0.000000,0.000000,-0.00014
0.020,0,0,4.918577,5.200409,5.421945,0.000000,0.000000,-0.00014
0.021,0,0,4.852753,5.205392,5.422805,0.000000,0.000000,-0.00013
0.022,0,0,4.786930,5.210375,5.423666,0.000000,0.000000,0.00001
0.023,0,0,4.711772,5.215533,5.424200,0.000000,0.000000,0.00015
0.024,0,0,4.631038,5.220796,5.424538,0.000000,0.000000,0.00015
0.025,0,0,4.550303,5.226059,5.424876,0.000000,0.000000,0.00015
0.026,0,0,4.469569,5.231322,5.425215,0.000000,0.000000,0.00000
0.027,0,0,4.369278,5.235717,5.425326,0.000000,0.000000,0.00016
0.028,0,0,4.257303,5.239593,5.425302,0.000000,0.000000,0.00014
0.029,0,0,4.145328,5.243469,5.425278,0.000000,0.000000,0.00029
0.030,0,0,4.033353,5.247345,5.425254,0.000000,0.000000,0.00015
0.031,0,0,3.916867,5.251245,5.425065,0.000000,0.000000,0.00014
0.032,0,0,3.797685,5.255160,5.424777,0.000000,0.000000,-0.00001
0.033,0,0,3.678503,5.259075,5.424489,0.000000,0.000000,0.00015
0.034,0,0,3.559321,5.262990,5.424201,0.000000,0.000000,0.00042
0.035,0,0,3.446973,5.266420,5.423729,0.000000,0.000000,-0.00013
0.036,0,0,3.338709,5.269561,5.423146,0.000000,0.000000,0.00015
0.037,0,0,3.230445,5.272702,5.422563,0.000000,0.000000,-0.00013
0.038,0,0,3.122180,5.275843,5.421980,0.000000,0.000000,0.00016
0.039,0,0,3.031583,5.278729,5.421137,0.000000,0.000000,0.00014
0.040,0,0,2.951542,5.281464,5.420138,0.000000,0.000000,0.00015
0.041,0,0,2.871500,5.284198,5.419139,0.000000,0.000000,0.00014
0.042,0,0,2.791459,5.286932,5.418140,0.000000,0.000000,0.00014
0.043,0,0,2.722491,5.289536,5.416877,0.000000,0.000000,-0.00014
0.044,0,0,2.660140,5.292062,5.415455,0.000000,0.000000,-0.00013
0.045,0,0,2.597788,5.294589,5.414033,0.000000,0.000000,0.00001
0.046,0,0,2.535437,5.297115,5.412611,0.000000,0.000000,-0.00029
0.047,0,0,2.473740,5.299685,5.411038,0.000000,0.000000,0.00000
0.048,0,0,2.412434,5.302281,5.409374,0.000000,0.000000,0.00015
0.049,0,0,2.351128,5.304878,5.407710,0.000000,0.000000,0.00002
0.050,0,0,2.289822,5.307474,5.406045,0.000000,0.000000,0.00031
0.051,0,0,2.220053,5.309677,5.404608,0.000000,0.000000,0.00001
0.052,0,0,2.145226,5.311644,5.403307,0.000000,0.000000,0.00001
0.053,0,0,2.070400,5.313612,5.402006,0.000000,0.000000,0.00001
0.054,0,0,1.995574,5.315578,5.400705,0.000000,0.000000,-0.00001
0.055,0,0,1.901453,5.317712,5.399674,0.000000,0.000000,0.00001
0.056,0,0,1.795803,5.319946,5.398805,0.000000,0.000000,0.00000
0.057,0,1,1.690154,5.322179,5.397935,2.146319,0.000000,-0.00015
0.058,0,1,1.584505,5.324412,5.397066,5.177843,0.000000,0.00001
0.059,0,1,1.480099,5.326035,5.396468,6.058735,0.000000,0.00000
0.060,0,1,1.376437,5.327294,5.396032,6.052644,0.000000,0.00000
0.061,0,1,1.272775,5.328552,5.395597,6.047672,0.000000,0.00000
0.062,0,1,1.169112,5.329810,5.395161,6.043162,0.000000,0.00001
0.063,0,1,1.083245,5.330765,5.394843,6.039117,0.000000,-0.00014
0.064,0,1,1.008009,5.331539,5.394596,6.035264,0.000000,0.00028
0.065,0,1,0.932773,5.332313,5.394348,6.032114,0.000000,0.00016
0.066,0,1,0.857537,5.333086,5.394101,6.029253,0.000000,-0.00013
0.067,0,1,0.813816,5.333367,5.393820,6.027418,0.000000,0.00015
0.068,0,1,0.788924,5.333354,5.393520,6.026006,0.000000,-0.00028
0.069,0,1,0.764031,5.333341,5.393220,6.025204,0.000000,0.00004
0.070,0,1,0.739139,5.333327,5.392920,6.024653,0.000000,0.00027
0.071,0,1,0.750991,5.333987,5.392482,6.024154,0.000000,0.00000
0.072,0,1,0.784797,5.335047,5.391963,6.023676,0.000000,0.00001
0.073,0,1,0.818603,5.336108,5.391444,6.022990,0.000000,0.00014
0.074,0,1,0.852409,5.337169,5.390924,6.022219,0.000000,0.00029
0.075,0,1,0.895865,5.338067,5.390332,6.021174,0.000000,0.00013
0.076,0,1,0.945086,5.338867,5.389695,6.020016,0.000000,0.00000
0.077,0,1,0.994307,5.339666,5.389059,6.019014,0.000000,-0.00014
0.078,0,1,1.043528,5.340466,5.388422,6.018075,0.000000,0.00000
0.079,0,1,1.083966,5.341523,5.387785,6.017647,0.000000,-0.00013
0.080,0,1,1.119158,5.342732,5.387146,6.017430,0.000000,-0.00014
0.081,0,1,1.154349,5.343942,5.386508,6.017110,0.000000,0.00015
0.082,0,1,1.189541,5.345152,5.385869,6.016747,0.000000,0.00016
0.083,0,1,1.195145,5.346626,5.385308,6.015635,0.000000,0.00015
0.084,0,1,1.183073,5.348258,5.384793,6.014215,0.000000,0.00001
0.085,0,1,1.171000,5.349889,5.384277,6.012490,0.000000,0.00001
0.086,0,1,1.158928,5.351521,5.383762,6.010639,0.000000,0.00000
0.087,0,1,1.123459,5.352972,5.383234,6.009158,0.000000,0.00001
0.088,0,1,1.074012,5.354314,5.382696,6.007828,0.000000,0.00015
0.089,0,1,1.024565,5.355657,5.382159,6.007180,0.000000,0.00015
0.090,0,1,0.975118,5.356999,5.381622,6.006814,0.000000,0.00001
0.091,0,1,0.913198,5.357853,5.380955,6.007278,0.000000,0.00016
0.092,0,1,0.843825,5.358416,5.380211,6.008085,0.000000,0.00001
0.093,0,1,0.774453,5.358978,5.379467,6.009585,0.000000,0.00015
0.094,0,1,0.705081,5.359541,5.378724,6.011372,0.000000,0.00027
0.095,0,1,0.633552,5.360118,5.377563,6.013544,0.000000,0.00001
0.096,0,1,0.560735,5.360704,5.376152,6.015875,0.000000,0.00015
0.097,0,1,0.487918,5.361290,5.374741,6.017879,0.000000,0.00002
0.098,0,1,0.415101,5.361876,5.373330,6.019748,0.000000,-0.00014
0.099,0,1,0.349743,5.362170,5.371417,6.020724,0.000000,0.00028
0.100,0,1,0.288842,5.362289,5.369203,6.021332,0.000000,0.00000
0.101,0,1,0.227941,5.362409,5.366990,6.021667,0.000000,-0.00014
0.102,0,1,0.167040,5.362528,5.364776,6.021890,0.000000,-0.00001
0.103,0,1,0.112442,5.362666,5.362047,6.022640,0.000000,-0.00014
0.104,0,1,0.061609,5.362814,5.359011,6.023609,0.000000,0.00002
0.105,0,1,0.010776,5.362963,5.355974,6.025206,0.000000,0.00000
0.106,0,1,-0.040057,5.363111,5.352938,6.027063,0.000000,0.00001
0.107,0,1,-0.096008,5.363026,5.349507,6.029295,0.000000,0.00001
0.108,0,1,-0.155016,5.362799,5.345840,6.031682,0.000000,0.00014
0.109,0,1,-0.214025,5.362573,5.342174,6.033477,0.000000,-0.00001
0.110,0,1,-0.273033,5.362346,5.338507,6.035029,0.000000,0.00000
0.111,0,1,-0.336579,5.362040,5.334661,6.035132,0.000000,0.00001
0.112,0,1,-0.402834,5.361685,5.330706,6.034638,0.000000,-0.00014
0.113,0,1,-0.469090,5.361331,5.326752,6.033234,0.000000,-0.00002
0.114,0,1,-0.535345,5.360976,5.322797,6.031455,0.000000,-0.00014
0.115,0,1,-0.615142,5.360474,5.318880,6.029754,0.000000,0.00002
0.116,0,1,-0.703029,5.359882,5.314984,6.028084,0.000000,-0.00014
0.117,0,1,-0.790916,5.359291,5.311088,6.027715,0.000000,-0.00012
0.118,0,1,-0.878803,5.358700,5.307192,6.027882,0.000000,0.00043
0.119,0,1,-0.974691,5.357832,5.303452,6.030063,0.000000,0.00014
0.120,0,1,-1.075358,5.356800,5.299807,6.033076,0.000000,0.00002
0.121,0,1,-1.176025,5.355767,5.296160,6.036218,0.000000,0.00000
0.122,0,1,-1.276693,5.354734,5.292514,6.039412,0.000000,0.00015
0.123,0,1,-1.377080,5.353399,5.289112,6.040792,0.000000,-0.00015
0.124,0,1,-1.477300,5.351885,5.285856,6.041424,0.000000,0.00028
0.125,0,1,-1.577520,5.350370,5.282599,6.041369,0.000000,0.00001
0.126,0,1,-1.677741,5.348855,5.279343,6.041030,0.000000,0.00013
0.127,0,1,-1.765654,5.346972,5.276330,6.041555,0.000000,0.00014
0.128,0,1,-1.846215,5.344869,5.273463,6.042436,0.000000,0.00026
0.129,0,1,-1.926775,5.342765,5.270596,6.043724,0.000000,-0.00015
0.130,0,1,-2.007336,5.340662,5.267728,6.045179,0.000000,0.00001
0.131,0,1,-2.060845,5.338382,5.265178,6.046247,0.000000,0.00015
0.132,0,1,-2.098192,5.335996,5.262816,6.047155,0.000000,0.00016
0.133,0,1,-2.135540,5.333610,5.260455,6.047908,0.000000,-0.00001
0.134,0,1,-2.172887,5.331223,5.258093,6.048596,0.000000,-0.00014
0.135,0,1,-2.183310,5.328892,5.256057,6.049430,0.000000,-0.00013
0.136,0,1,-2.177648,5.326592,5.254215,6.050325,0.000000,0.00029
0.137,0,1,-2.171985,5.324292,5.252372,6.050676,0.000000,0.00001
0.138,0,1,-2.166323,5.321993,5.250530,6.050802,0.000000,0.00015
0.139,0,1,-2.134014,5.319680,5.249107,6.049823,0.000000,0.00000
0.140,0,1,-2.085787,5.317360,5.247934,6.048388,0.000000,0.00000
0.141,0,1,-2.037559,5.315041,5.246761,6.047162,0.000000,-0.00013
0.142,0,1,-1.989332,5.312721,5.245589,6.046021,0.000000,0.00000
0.143,0,1,-1.925924,5.310711,5.244936,6.046394,0.000000,0.00015
0.144,0,1,-1.853447,5.308887,5.244592,6.047390,0.000000,0.00015
0.145,0,1,-1.780970,5.307064,5.244249,3.906801,0.000000,0.00015
0.146,0,0,-1.708494,5.305240,5.243906,0.882961,0.000000,0.00001
0.147,0,0,-1.632536,5.303563,5.244131,0.000000,0.000000,0.00015
0.148,0,0,-1.554499,5.301974,5.244693,0.000000,0.000000,0.00015
0.149,0,0,-1.476461,5.300386,5.245256,0.000000,0.000000,0.00014
0.150,0,0,-1.398424,5.298798,5.245819,0.000000,0.000000,0.00000
0.151,0,0,-1.320408,5.297539,5.246961,0.000000,0.000000,0.00029
0.152,0,0,-1.242406,5.296477,5.248449,0.000000,0.000000,0.00014
0.153,0,0,-1.164403,5.295415,5.249937,0.000000,0.000000,0.00001
0.154,0,0,-1.086401,5.294354,5.251424,0.000000,0.000000,0.00001
0.155,0,0,-1.015178,5.293408,5.253357,0.000000,0.000000,0.00000
0.156,0,0,-0.948006,5.292531,5.255556,0.000000,0.000000,0.00015
0.157,0,0,-0.880834,5.291655,5.257754,0.000000,0.000000,-0.00014
0.158,0,0,-0.813662,5.290778,5.259953,0.000000,0.000000,0.00000
0.159,0,0,-0.742591,5.289975,5.262428,0.000000,0.000000,0.00016
0.160,0,0,-0.669190,5.289216,5.265070,0.000000,0.000000,0.00014
0.161,0,0,-0.595790,5.288456,5.267712,0.000000,0.000000,0.00000
0.162,0,0,-0.522389,5.287697,5.270354,0.000000,0.000000,-0.00015
0.163,0,0,-0.444725,5.287192,5.273113,0.000000,0.000000,-0.00028
0.164,0,0,-0.364515,5.286840,5.275941,0.000000,0.000000,0.00000
0.165,0,0,-0.284304,5.286488,5.278770,0.000000,0.000000,0.00000
0.166,0,0,-0.204094,5.286136,5.281599,0.000000,0.000000,-0.00001
0.167,0,0,-0.121755,5.285917,5.284387,0.000000,0.000000,0.00000
0.168,0,0,-0.038145,5.285779,5.287152,0.000000,0.000000,0.00002
0.169,0,0,0.045466,5.285641,5.289916,0.000000,0.000000,0.00000
0.170,0,0,0.129076,5.285502,5.292681,0.000000,0.000000,0.00001
0.171,0,0,0.211575,5.285756,5.295341,0.000000,0.000000,-0.00001
0.172,0,0,0.293410,5.286242,5.297938,0.000000,0.000000,0.00002
0.173,0,0,0.375244,5.286729,5.300536,0.000000,0.000000,0.00031
0.174,0,0,0.457079,5.287216,5.303133,0.000000,0.000000,-0.00012
0.175,0,0,0.526325,5.287901,5.305534,0.000000,0.000000,0.00000
0.176,0,0,0.588051,5.288705,5.307818,0.000000,0.000000,0.00029
0.177,0,0,0.649777,5.289509,5.310101,0.000000,0.000000,-0.00001
0.178,0,0,0.711502,5.290313,5.312385,0.000000,0.000000,0.00000
0.179,0,0,0.762849,5.291073,5.314500,0.000000,0.000000,0.00029
0.180,0,0,0.807994,5.291808,5.316516,0.000000,0.000000,0.00016
0.181,0,0,0.853140,5.292542,5.318532,0.000000,0.000000,-0.00014
0.182,0,0,0.898285,5.293277,5.320547,0.000000,0.000000,0.00001
0.183,0,0,0.926519,5.294265,5.322376,0.000000,0.000000,0.00015
0.184,0,0,0.944649,5.295405,5.324092,0.000000,0.000000,0.00014
0.185,0,0,0.962778,5.296545,5.325809,0.000000,0.000000,0.00000
0.186,0,0,0.980908,5.297685,5.327526,0.000000,0.000000,0.00000
0.187,0,0,0.984620,5.298790,5.329029,0.000000,0.000000,0.00000
0.188,0,0,0.979717,5.299875,5.330404,0.000000,0.000000,-0.00016
0.189,0,0,0.974815,5.300960,5.331780,0.000000,0.000000,0.00000
0.190,0,0,0.969912,5.302045,5.333155,0.000000,0.000000,-0.00027
0.191,0,0,0.956346,5.303136,5.334354,0.000000,0.000000,0.00015
0.192,0,0,0.937602,5.304230,5.335446,0.000000,0.000000,0.00014
0.193,0,0,0.918859,5.305325,5.336539,0.000000,0.000000,-0.00031
0.194,0,0,0.900116,5.306419,5.337632,0.000000,0.000000,0.00000
0.195,0,0,0.871815,5.307277,5.338562,0.000000,0.000000,-0.00014
0.196,0,0,0.837803,5.307993,5.339395,0.000000,0.000000,-0.00013
0.197,0,0,0.803791,5.308709,5.340227,0.000000,0.000000,0.00014
0.198,0,0,0.769779,5.309425,5.341060,0.000000,0.000000,0.00000
0.199,0,0,0.739383,5.310089,5.341858,0.000000,0.000000,0.00000
0.200,0,0,0.711148,5.310721,5.342636,0.000000,0.000000,0.00000
0.201,0,0,0.682913,5.311354,5.343413,0.000000,0.000000,0.00002
0.202,0,0,0.654678,5.311986,5.344191,0.000000,0.000000,0.00028
0.203,0,0,0.626285,5.312668,5.345026,0.000000,0.000000,0.00001
0.204,0,0,0.597799,5.313379,5.345897,0.000000,0.000000,0.00014
0.205,0,0,0.569313,5.314090,5.346768,0.000000,0.000000,-0.00014
0.206,0,0,0.540827,5.314801,5.347639,0.000000,0.000000,0.00000
0.207,0,0,0.520764,5.315282,5.348650,0.000000,0.000000,0.00014
0.208,0,0,0.505734,5.315625,5.349746,0.000000,0.000000,0.00000
0.209,0,0,0.490704,5.315969,5.350842,0.000000,0.000000,-0.00002
0.210,0,0,0.475673,5.316312,5.351938,0.000000,0.000000,0.00028
0.211,0,0,0.472338,5.316744,5.353237,0.000000,0.000000,0.00015
0.212,0,0,0.475988,5.317230,5.354658,0.000000,0.000000,0.00028
0.213,0,0,0.479639,5.317716,5.356079,0.000000,0.000000,0.00000
0.214,0,0,0.483290,5.318201,5.357500,0.000000,0.000000,0.00001
0.215,0,0,0.500763,5.318537,5.359146,0.000000,0.000000,0.00016
0.216,0,0,0.526495,5.318784,5.360927,0.000000,0.000000,0.00000
0.217,0,0,0.552227,5.319031,5.362707,0.000000,0.000000,-0.00001
0.218,0,0,0.577959,5.319277,5.364488,0.000000,0.000000,0.00014
0.219,0,0,0.620749,5.319749,5.366577,0.000000,0.000000,-0.00016
0.220,0,0,0.673730,5.320354,5.368851,0.000000,0.000000,-0.00014
0.221,0,0,0.726711,5.320961,5.371125,0.000000,0.000000,0.00000
0.222,0,0,0.779692,5.321566,5.373399,0.000000,0.000000,0.00000
0.223,0,0,0.837838,5.322424,5.375942,0.000000,0.000000,0.00000
0.224,0,0,0.899069,5.323434,5.378646,0.000000,0.000000,0.00000
0.225,0,0,0.960300,5.324444,5.381349,0.000000,0.000000,-0.00013
0.226,0,0,1.021532,5.325453,5.384053,0.000000,0.000000,0.00001
0.227,0,0,1.088657,5.326557,5.387041,0.000000,0.000000,-0.00015
0.228,0,0,1.159303,5.327717,5.390200,0.000000,0.000000,0.00014
0.229,0,0,1.229950,5.328877,5.393358,0.000000,1.505892,0.00014
0.230,1,0,1.300596,5.330037,5.396517,0.000000,3.632859,0.00002
0.231,1,0,1.367059,5.331378,5.399964,0.000000,4.256237,-0.00013
0.232,1,0,1.431022,5.332827,5.403583,0.000000,4.259490,-0.00026
0.233,1,0,1.494985,5.334276,5.407202,0.000000,4.261284,0.00000
0.234,1,0,1.558949,5.335725,5.410821,0.000000,4.262477,0.00002
0.235,1,0,1.616418,5.337312,5.414633,0.000000,4.262031,-0.00015
0.236,1,0,1.670007,5.338980,5.418560,0.000000,4.260910,0.00016
0.237,1,0,1.723597,5.340648,5.422486,0.000000,4.260903,0.00015
0.238,1,0,1.777187,5.342316,5.426413,0.000000,4.261356,0.00000
0.239,1,0,1.829689,5.344277,5.430486,0.000000,4.265340,0.00028
0.240,1,0,1.881543,5.346413,5.434648,0.000000,4.270782,-0.00001
0.241,1,0,1.933396,5.348548,5.438808,0.000000,4.276901,0.00015
0.242,1,0,1.985250,5.350684,5.442970,0.000000,4.283299,0.00014
0.243,1,0,2.031382,5.352761,5.447172,0.000000,4.286805,-0.00001
0.244,1,0,2.074096,5.354803,5.451397,0.000000,4.289117,0.00014
0.245,1,0,2.116811,5.356844,5.455624,0.000000,4.288464,-0.00027
0.246,1,0,2.159525,5.358886,5.459849,0.000000,4.286589,-0.00015
0.247,1,0,2.207329,5.360910,5.464155,0.000000,4.283098,-0.00014
0.248,1,0,2.258174,5.362924,5.468507,0.000000,4.278942,-0.00001
0.249,1,0,2.309020,5.364937,5.472859,0.000000,4.276477,0.00014
0.250,1,0,2.359865,5.366951,5.477212,0.000000,4.274712,0.00014
0.251,1,0,2.405615,5.369401,5.481707,0.000000,4.277203,-0.00001
0.252,1,0,2.448322,5.372112,5.486288,0.000000,4.281450,0.00029
0.253,1,0,2.491029,5.374823,5.490868,0.000000,4.286650,0.00028
0.254,1,0,2.533736,5.377534,5.495449,0.000000,4.292244,-0.00015
0.255,1,0,2.569281,5.380162,5.500305,0.000000,4.294814,0.00000
0.256,1,0,2.600549,5.382740,5.505326,0.000000,4.296138,0.00028
0.257,1,0,2.631817,5.385319,5.510347,0.000000,4.294922,0.00001
0.258,1,0,2.663084,5.387898,5.515368,0.000000,4.292659,-0.00013
0.259,1,0,2.688621,5.390738,5.520738,0.000000,4.289634,-0.00013
0.260,1,0,2.710734,5.393734,5.526316,0.000000,4.286296,0.00028
0.261,1,0,2.732848,5.396731,5.531894,0.000000,4.284133,0.00016
0.262,1,0,2.754961,5.399727,5.537472,0.000000,4.282455,0.00000
0.263,1,0,2.778335,5.402517,5.543398,0.000000,4.283130,0.00001
0.264,1,0,2.802463,5.405183,5.549533,0.000000,4.284773,0.00000
0.265,1,0,2.826590,5.407848,5.555668,0.000000,4.286305,0.00013
0.266,1,0,2.850718,5.410514,5.561802,0.000000,4.287790,0.00028
0.267,1,0,2.895336,5.413142,5.568371,0.000000,4.286702,0.00001
0.268,1,0,2.952196,5.415747,5.575199,0.000000,4.284554,-0.00013
0.269,1,0,3.009057,5.418352,5.582027,0.000000,4.282045,0.00001
0.270,1,0,3.065917,5.420957,5.588855,0.000000,4.279388,0.00028
0.271,1,0,3.139091,5.423868,5.596058,0.000000,4.278952,0.00015
0.272,1,0,3.222011,5.426962,5.603486,0.000000,4.279432,0.00014
0.273,1,0,3.304931,5.430056,5.610913,0.000000,4.280396,0.00015
0.274,1,0,3.387851,5.433150,5.618341,0.000000,4.281561,0.00015
0.275,1,0,3.493084,5.436652,5.626112,0.000000,4.281026,-0.00013
0.276,1,0,3.611647,5.440397,5.634088,0.000000,4.279789,0.00014
0.277,1,0,3.730211,5.444142,5.642063,0.000000,4.278155,0.00014
0.278,1,0,3.848774,5.447887,5.650039,0.000000,4.276357,0.00026
0.279,1,0,3.975797,5.451874,5.658370,0.000000,4.275993,0.00026
0.280,1,0,4.107873,5.456005,5.666914,0.000000,4.276221,-0.00014
0.281,1,0,4.239950,5.460136,5.675457,0.000000,4.277653,-0.00015
0.282,1,0,4.372026,5.464267,5.684001,0.000000,4.279583,-0.00015
0.283,1,0,4.505982,5.468548,5.692848,0.000000,4.281812,0.00000
0.284,1,0,4.641061,5.472919,5.701877,0.000000,4.284166,-0.00002
0.285,1,0,4.776141,5.477290,5.710905,0.000000,4.285509,0.00016
0.286,1,0,4.911220,5.481661,5.719934,0.000000,4.286435,-0.00001
0.287,1,0,5.043601,5.486773,5.729184,0.000000,4.285601,0.00014
0.288,1,0,5.174371,5.492326,5.738568,0.000000,4.284041,-0.00013
0.289,1,0,5.305141,5.497880,5.747952,0.000000,4.283032,-0.00013
0.290,1,0,5.435911,5.503434,5.757335,0.000000,4.282251,0.00042
0.291,1,0,5.553535,5.509179,5.766657,0.000000,4.284139,-0.00015
0.292,1,0,5.663304,5.515038,5.775942,0.000000,4.287127,0.00000
0.293,1,0,5.773074,5.520897,5.785227,0.000000,4.290105,0.00000
0.294,1,0,5.882843,5.526756,5.794512,0.000000,4.293079,0.00001
0.295,1,0,5.986803,5.532729,5.803444,0.000000,4.293190,0.00016
0.296,1,0,6.087291,5.538770,5.812165,0.000000,4.292120,0.00014
0.297,1,0,6.187780,5.544811,5.820886,0.000000,4.290684,0.00001
0.298,1,0,6.288268,5.550853,5.829607,0.000000,4.289096,-0.00013
0.299,1,0,6.374915,5.557259,5.837642,0.000000,4.290142,-0.00014
0.300,1,0,6.453293,5.563883,5.845267,0.000000,4.292275,0.00014
0.301,1,0,6.531671,5.570507,5.852892,0.000000,4.295491,0.00014
0.302,1,0,6.610048,5.577131,5.860518,0.000000,4.299154,0.00013
0.303,1,0,6.675600,5.583777,5.867307,0.000000,4.301714,0.00002
0.304,1,0,6.733488,5.590436,5.873596,0.000000,4.303819,-0.00001
0.305,1,0,6.791377,5.597096,5.879885,0.000000,4.305588,0.00013
0.306,1,0,6.849265,5.603755,5.886173,0.000000,4.307219,0.00014
0.307,1,0,6.875964,5.610831,5.891546,0.000000,4.309665,-0.00001
0.308,1,0,6.884027,5.618155,5.896372,0.000000,4.312449,-0.00015
0.309,1,0,6.892092,5.625478,5.901198,0.000000,4.315173,0.00031
0.310,1,0,6.900156,5.632802,5.906024,0.000000,4.317873,-0.00014
0.311,1,0,6.862201,5.640069,5.909821,0.000000,4.319474,0.00013
0.312,1,0,6.796752,5.647302,5.913004,0.000000,4.320620,-0.00002
0.313,1,0,6.731304,5.654534,5.916186,0.000000,4.321459,0.00013
0.314,1,0,6.665855,5.661767,5.919369,0.000000,4.322172,-0.00014
0.315,1,0,6.561145,5.668695,5.921514,0.000000,4.323478,0.00031
0.316,1,0,6.432978,5.675442,5.923039,0.000000,4.325028,-0.00012
0.317,1,0,6.304811,5.682188,5.924564,0.000000,2.794261,0.00000
0.318,1,0,6.176643,5.688934,5.926089,0.000000,0.631520,0.00013
0.319,0,0,6.014785,5.695046,5.926556,0.000000,0.000000,-0.00014
0.320,0,0,5.832800,5.700779,5.926392,0.000000,0.000000,0.00014
0.321,0,0,5.650815,5.706511,5.926228,0.000000,0.000000,0.00002
0.322,0,0,5.468829,5.712245,5.926063,0.000000,0.000000,0.00001
0.323,0,0,5.274938,5.717510,5.924872,0.000000,0.000000,-0.00014
0.324,0,0,5.073934,5.722497,5.923069,0.000000,0.000000,0.00001
0.325,0,0,4.872930,5.727484,5.921265,0.000000,0.000000,0.00016
0.326,0,0,4.671926,5.732471,5.919461,0.000000,0.000000,0.00000
0.327,0,0,4.465955,5.737055,5.916691,0.000000,0.000000,0.00002
0.328,0,0,4.257019,5.741400,5.913343,0.000000,0.000000,0.00027
0.329,0,0,4.048082,5.745744,5.909995,0.000000,0.000000,0.00029
0.330,0,0,3.839146,5.750089,5.906647,0.000000,0.000000,0.00001
0.331,0,0,3.631674,5.753740,5.902531,0.000000,0.000000,0.00028
0.332,0,0,3.425076,5.756976,5.897956,0.000000,0.000000,0.00002
0.333,0,0,3.218479,5.760212,5.893382,0.000000,0.000000,0.00014
0.334,0,0,3.011882,5.763448,5.888807,0.000000,0.000000,0.00000
0.335,0,0,2.804173,5.766213,5.883780,0.000000,0.000000,0.00015
0.336,0,0,2.595801,5.768696,5.878482,0.000000,0.000000,-0.00001
0.337,0,0,2.387428,5.771179,5.873185,0.000000,0.000000,0.00000
0.338,0,0,2.179055,5.773662,5.867888,0.000000,0.000000,0.00013
0.339,0,0,1.972916,5.775665,5.862414,0.000000,0.000000,0.00000
0.340,0,0,1.768112,5.777383,5.856836,0.000000,0.000000,0.00029
0.341,0,0,1.563308,5.779101,5.851257,0.000000,0.000000,0.00001
0.342,0,0,1.358504,5.780818,5.845679,0.000000,0.000000,0.00014
0.343,0,0,1.165358,5.782053,5.840194,0.000000,0.000000,0.00002
0.344,0,0,0.979178,5.783000,5.834764,0.000000,0.000000,-0.00001
0.345,0,0,0.792998,5.783947,5.829336,0.000000,0.000000,-0.00012
0.346,0,0,0.606818,5.784894,5.823906,0.000000,0.000000,0.00000
0.347,0,0,0.436373,5.785186,5.818674,0.000000,0.000000,0.00002
0.348,0,0,0.275329,5.785088,5.813559,0.000000,0.000000,0.00000
0.349,0,0,0.114285,5.784988,5.808443,0.000000,0.000000,0.00001
0.350,0,0,-0.046760,5.784890,5.803328,0.000000,0.000000,-0.00029
0.351,0,0,-0.176437,5.784468,5.798452,0.000000,0.000000,-0.00012
0.352,0,0,-0.287373,5.783853,5.793721,0.000000,0.000000,0.00014
0.353,0,0,-0.398310,5.783238,5.788990,0.000000,0.000000,0.00029
0.354,0,0,-0.509247,5.782623,5.784258,0.000000,0.000000,0.00029
0.355,0,0,-0.590758,5.781901,5.779799,0.000000,0.000000,0.00002
0.356,0,0,-0.654689,5.781115,5.775504,0.000000,0.000000,0.00016
0.357,0,0,-0.718620,5.780329,5.771208,0.000000,0.000000,0.00015
0.358,0,0,-0.782551,5.779543,5.766912,0.000000,0.000000,0.00016
0.359,0,0,-0.821914,5.778509,5.762956,0.000000,0.000000,0.00028
0.360,0,0,-0.846601,5.777327,5.759203,0.000000,0.000000,0.00042
0.361,0,0,-0.871287,5.776145,5.755450,0.000000,0.000000,0.00014
0.362,0,0,-0.895973,5.774964,5.751697,0.000000,0.000000,0.00014
0.363,0,0,-0.909621,5.774026,5.748282,0.000000,0.000000,0.00002
0.364,0,0,-0.916674,5.773235,5.745069,0.000000,0.000000,0.00015
0.365,0,0,-0.923728,5.772443,5.741855,0.000000,0.000000,0.00000
0.366,0,0,-0.930781,5.771652,5.738642,0.000000,0.000000,0.00000
0.367,0,0,-0.934606,5.770816,5.735773,0.000000,0.000000,0.00015
0.368,0,0,-0.936504,5.769953,5.733110,0.000000,0.000000,0.00016
0.369,0,0,-0.938401,5.769091,5.730448,0.000000,0.000000,0.00001
0.370,0,0,-0.940299,5.768229,5.727785,0.000000,0.000000,0.00014
0.371,0,0,-0.943165,5.767261,5.725477,0.000000,0.000000,0.00027
0.372,0,0,-0.946609,5.766230,5.723380,0.000000,0.000000,0.00027
0.373,0,0,-0.950054,5.765199,5.721284,0.000000,0.000000,0.00001
0.374,0,0,-0.953499,5.764168,5.719187,0.000000,0.000000,0.00000
0.375,0,0,-0.962722,5.763139,5.717316,0.000000,0.000000,-0.00012
0.376,0,0,-0.975398,5.762111,5.715580,0.000000,0.000000,0.00001
0.377,0,0,-0.988074,5.761083,5.713843,0.000000,0.000000,-0.00015
0.378,0,0,-1.000750,5.760055,5.712107,0.000000,0.000000,0.00001
0.379,0,0,-1.012028,5.759175,5.710478,0.000000,0.000000,0.00015
0.380,0,0,-1.022471,5.758384,5.708913,0.000000,0.000000,0.00015
0.381,0,0,-1.032915,5.757592,5.707348,0.000000,0.000000,0.00000
0.382,0,0,-1.043358,5.756801,5.705783,0.000000,0.000000,-0.00028
0.383,0,0,-1.057030,5.755765,5.704218,0.000000,0.000000,-0.00014
0.384,0,0,-1.072632,5.754583,5.702654,0.000000,0.000000,-0.00015
0.385,0,0,-1.088233,5.753402,5.701090,0.000000,0.000000,0.00015
0.386,0,0,-1.103835,5.752221,5.699526,0.000000,0.000000,0.00029
0.387,0,0,-1.114679,5.750952,5.697901,0.000000,0.000000,0.00001
0.388,0,0,-1.122681,5.749632,5.696240,0.000000,0.000000,0.00001
0.389,0,0,-1.130683,5.748312,5.694580,0.000000,0.000000,0.00014
0.390,0,0,-1.138685,5.746992,5.692919,0.000000,0.000000,0.00001
0.391,0,0,-1.147975,5.745921,5.691191,0.000000,0.000000,0.00042
0.392,0,0,-1.158036,5.745000,5.689422,0.000000,0.000000,0.00001
0.393,0,0,-1.168097,5.744080,5.687653,0.000000,0.000000,-0.00002
0.394,0,0,-1.178158,5.743159,5.685884,0.000000,0.000000,0.00012
0.395,0,0,-1.188332,5.741964,5.684100,0.000000,0.000000,-0.00014
0.396,0,0,-1.198574,5.740606,5.682307,0.000000,0.000000,0.00014
0.397,0,0,-1.208816,5.739248,5.680514,0.000000,0.000000,0.00000
0.398,0,0,-1.219058,5.737889,5.678720,0.000000,0.000000,0.00001
0.399,0,0,-1.233328,5.736689,5.676953,0.000000,0.000000,0.00015
0.400,0,0,-1.250005,5.735583,5.675200,0.000000,0.000000,-0.00001
0.401,0,0,-1.266682,5.734477,5.673448,0.000000,0.000000,0.00029
0.402,0,0,-1.283359,5.733371,5.671695,0.000000,0.000000,0.00015
0.403,0,0,-1.303204,5.732136,5.669994,0.000000,0.000000,0.00000
0.404,0,0,-1.324943,5.730824,5.668325,0.000000,0.000000,-0.00014
0.405,0,0,-1.346681,5.729512,5.666656,0.000000,0.000000,0.00028
0.406,0,0,-1.368419,5.728200,5.664986,0.000000,0.000000,0.00015
0.407,0,0,-1.385727,5.726773,5.663481,0.000000,0.000000,0.00015
0.408,0,0,-1.400387,5.725277,5.662075,0.000000,0.000000,0.00000
0.409,0,0,-1.415047,5.723781,5.660669,0.000000,0.000000,0.00014
0.410,0,0,-1.429708,5.722285,5.659263,0.000000,0.000000,-0.00014
0.411,0,0,-1.442595,5.720728,5.658068,0.000000,0.000000,0.00029
0.412,0,0,-1.454425,5.719137,5.656999,0.000000,0.000000,0.00001
0.413,0,0,-1.466254,5.717545,5.655930,0.000000,0.000000,0.00015
0.414,0,0,-1.478083,5.715953,5.654861,0.000000,0.000000,0.00016
0.415,0,0,-1.484035,5.714519,5.654014,0.000000,0.000000,-0.00026
0.416,0,0,-1.486476,5.713179,5.653297,0.000000,0.000000,-0.00001
0.417,0,0,-1.488917,5.711838,5.652581,0.000000,0.000000,0.00001
0.418,0,0,-1.491359,5.710497,5.651865,0.000000,0.000000,0.00015
0.419,0,0,-1.487289,5.709027,5.651370,0.000000,0.000000,0.00016
0.420,0,0,-1.479329,5.707479,5.651006,0.000000,0.000000,0.00015
0.421,0,0,-1.471370,5.705932,5.650643,0.000000,0.000000,0.00015
0.422,0,0,-1.463410,5.704384,5.650279,0.000000,0.000000,-0.00001
0.423,0,0,-1.443975,5.702808,5.650073,0.000000,0.000000,0.00013
0.424,0,0,-1.417684,5.701214,5.649961,0.000000,0.000000,0.00028
0.425,0,0,-1.391394,5.699620,5.649848,0.000000,0.000000,0.00015
0.426,0,0,-1.365103,5.698027,5.649736,0.000000,0.000000,0.00015
0.427,0,0,-1.323608,5.696569,5.649783,0.000000,0.000000,-0.00027
0.428,0,0,-1.273028,5.695194,5.649925,0.000000,0.000000,0.00015
0.429,0,0,-1.222449,5.693818,5.650067,0.000000,0.000000,0.00014
0.430,0,0,-1.171869,5.692442,5.650209,0.000000,0.000000,0.00002
0.431,0,0,-1.111472,5.691254,5.650482,0.000000,0.000000,0.00000
0.432,0,0,-1.045209,5.690176,5.650834,0.000000,0.000000,-0.00001
0.433,0,0,-0.978946,5.689100,5.651186,0.000000,0.000000,0.00001
0.434,0,0,-0.912683,5.688023,5.651537,0.000000,0.000000,-0.00027
0.435,0,0,-0.844288,5.687140,5.652069,0.000000,0.000000,0.00002
0.436,0,0,-0.774621,5.686376,5.652707,0.000000,0.000000,0.00014
0.437,0,0,-0.704953,5.685610,5.653346,0.000000,0.000000,0.00001
0.438,0,0,-0.635285,5.684845,5.653984,0.000000,0.000000,-0.00013
0.439,0,0,-0.579039,5.684426,5.654810,0.000000,0.000000,0.00004
0.440,0,0,-0.530811,5.684215,5.655748,0.000000,0.000000,0.00029
0.441,0,0,-0.482583,5.684002,5.656686,0.000000,0.000000,0.00014
0.442,0,0,-0.434356,5.683791,5.657624,0.000000,0.000000,0.00001
0.443,0,0,-0.399704,5.683486,5.658769,0.000000,0.000000,0.00001
0.444,0,0,-0.373162,5.683127,5.660038,0.000000,0.000000,-0.00027
0.445,0,0,-0.346621,5.682768,5.661307,0.000000,0.000000,-0.00014
0.446,0,0,-0.320079,5.682409,5.662576,0.000000,0.000000,-0.00013
0.447,0,0,-0.302118,5.682192,5.663987,0.000000,0.000000,0.00014
0.448,0,0,-0.289283,5.682061,5.665483,0.000000,0.000000,0.00001
0.449,0,0,-0.276448,5.681930,5.666979,0.000000,0.000000,0.00015
0.450,0,0,-0.263614,5.681798,5.668475,0.000000,0.000000,0.00000
0.451,0,0,-0.251578,5.681491,5.670007,0.000000,0.000000,0.00015
0.452,0,0,-0.240019,5.681079,5.671559,0.000000,0.000000,-0.00014
0.453,0,0,-0.228461,5.680666,5.673111,0.000000,0.000000,0.00013
0.454,0,0,-0.216903,5.680254,5.674664,0.000000,0.000000,0.00001
0.455,0,1,-0.195873,5.679952,5.676130,2.275239,0.000000,0.00014
0.456,0,1,-0.169185,5.679715,5.677546,5.488854,0.000000,-0.00012
0.457,0,1,-0.142497,5.679479,5.678961,6.425594,0.000000,0.00014
0.458,0,1,-0.115809,5.679242,5.680377,6.423283,0.000000,0.00015
0.459,0,1,-0.080221,5.679109,5.681656,6.419229,0.000000,-0.00001
0.460,0,1,-0.039315,5.679038,5.682855,6.414454,0.000000,0.00015
0.461,0,1,0.001592,5.678967,5.684053,6.408893,0.000000,0.00029
0.462,0,1,0.042498,5.678895,5.685252,6.403006,0.000000,-0.00013
0.463,0,1,0.088676,5.678968,5.686342,6.397865,0.000000,0.00001
0.464,0,1,0.138004,5.679129,5.687366,6.393033,0.000000,0.00000
0.465,0,1,0.187331,5.679289,5.688391,6.390074,0.000000,0.00013
0.466,0,1,0.236659,5.679449,5.689415,6.387888,0.000000,-0.00013
0.467,0,1,0.279840,5.679690,5.690419,6.388031,0.000000,0.00000
0.468,0,1,0.319348,5.679979,5.691411,6.389134,0.000000,0.00027
0.469,0,1,0.358856,5.680269,5.692402,6.390487,0.000000,0.00001
0.470,0,1,0.398364,5.680558,5.693393,6.391943,0.000000,0.00014
0.471,0,1,0.424789,5.681126,5.694351,6.391673,0.000000,-0.00015
0.472,0,1,0.443398,5.681859,5.695288,6.390691,0.000000,0.00014
0.473,0,1,0.462007,5.682593,5.696225,6.389706,0.000000,-0.00014
0.474,0,1,0.480616,5.683327,5.697163,6.388719,0.000000,0.00001
0.475,0,1,0.486097,5.683993,5.697955,6.389701,0.000000,0.00000
0.476,0,1,0.483736,5.684617,5.698659,6.391495,0.000000,0.00014
0.477,0,1,0.481374,5.685241,5.699365,6.393631,0.000000,0.00031
0.478,0,1,0.479012,5.685865,5.700070,6.395906,0.000000,0.00000
0.479,0,1,0.474290,5.686344,5.700454,6.396415,0.000000,0.00001
0.480,0,1,0.468158,5.686734,5.700646,6.396194,0.000000,0.00015
0.481,0,1,0.462026,5.687125,5.700839,6.394520,0.000000,-0.00001
0.482,0,1,0.455895,5.687515,5.701031,6.392247,0.000000,-0.00013
0.483,0,1,0.451851,5.687822,5.700773,6.389538,0.000000,0.00029
0.484,0,1,0.449054,5.688078,5.700244,6.386649,0.000000,0.00015
0.485,0,1,0.446258,5.688334,5.699717,6.384408,0.000000,-0.00014
0.486,0,1,0.443461,5.688591,5.699188,6.382434,0.000000,0.00000
0.487,0,1,0.443619,5.688951,5.698164,6.381740,0.000000,0.00014
0.488,0,1,0.445541,5.689375,5.696844,6.381574,0.000000,0.00014
0.489,0,1,0.447463,5.689798,5.695524,6.381174,0.000000,0.00000
0.490,0,1,0.449386,5.690221,5.694204,6.380678,0.000000,-0.00014
0.491,0,1,0.439414,5.690801,5.692463,6.378537,0.000000,-0.00001
0.492,0,1,0.422338,5.691474,5.690473,6.375718,0.000000,0.00015
0.493,0,1,0.405261,5.692148,5.688481,6.373034,0.000000,0.00001
0.494,0,1,0.388184,5.692822,5.686491,6.370405,0.000000,-0.00001
0.495,0,1,0.342312,5.693398,5.684120,6.369806,0.000000,0.00028
0.496,0,1,0.279235,5.693916,5.681524,6.370044,0.000000,0.00028
0.497,0,1,0.216158,5.694434,5.678927,6.370643,0.000000,-0.00013
0.498,0,1,0.153082,5.694952,5.676331,6.371390,0.000000,-0.00001
0.499,0,1,0.065147,5.695253,5.673380,6.370579,0.000000,-0.00014
0.500,0,1,-0.037639,5.695425,5.670218,6.369125,0.000000,0.00002
0.501,0,1,-0.140424,5.695597,5.667055,6.367620,0.000000,0.00000
0.502,0,1,-0.243210,5.695769,5.663892,6.366095,0.000000,0.00001
0.503,0,1,-0.357343,5.695558,5.660299,6.366368,0.000000,0.00000
0.504,0,1,-0.478256,5.695118,5.656449,6.367384,0.000000,0.00002
0.505,0,1,-0.599169,5.694679,5.652599,6.369222,0.000000,-0.00013
0.506,0,1,-0.720082,5.694240,5.648750,6.371398,0.000000,0.00001
0.507,0,1,-0.830200,5.693194,5.644436,6.372886,0.000000,0.00029
0.508,0,1,-0.933867,5.691787,5.639845,6.374089,0.000000,0.00001
0.509,0,1,-1.037534,5.690380,5.635255,6.374298,0.000000,-0.00027
0.510,0,1,-1.141202,5.688973,5.630664,6.374098,0.000000,0.00014
0.511,0,1,-1.230539,5.687525,5.625637,6.373170,0.000000,0.00014
0.512,0,1,-1.311316,5.686053,5.620348,6.371943,0.000000,0.00001
0.513,0,1,-1.392093,5.684580,5.615059,6.371301,0.000000,-0.00010
0.514,0,1,-1.472870,5.683107,5.609770,6.370899,0.000000,0.00000
0.515,0,1,-1.549901,5.681580,5.604191,6.372130,0.000000,0.00015
0.516,0,1,-1.624695,5.680019,5.598439,6.374036,0.000000,0.00000
0.517,0,1,-1.699489,5.678458,5.592686,6.376103,0.000000,0.00000
0.518,0,1,-1.774283,5.676898,5.586934,6.378237,0.000000,0.00015
0.519,0,1,-1.856210,5.675254,5.581187,6.378833,0.000000,-0.00014
0.520,0,1,-1.942398,5.673562,5.575443,6.378796,0.000000,0.00000
0.521,0,1,-2.028586,5.671870,5.569699,6.377719,0.000000,0.00004
0.522,0,1,-2.114774,5.670177,5.563954,6.376214,0.000000,0.00013
0.523,0,1,-2.216085,5.668105,5.558448,6.374806,0.000000,0.00014
0.524,0,1,-2.326431,5.665806,5.553083,6.373439,0.000000,0.00000
0.525,0,1,-2.436776,5.663508,5.547719,6.373392,0.000000,0.00028
0.526,0,1,-2.547122,5.661209,5.542355,6.373888,0.000000,-0.00002
0.527,0,1,-2.656805,5.658523,5.537359,6.376426,0.000000,0.00014
0.528,0,1,-2.766093,5.655604,5.532584,6.379805,0.000000,-0.00015
0.529,0,1,-2.875381,5.652687,5.527809,6.383579,0.000000,0.00029
0.530,0,1,-2.984668,5.649768,5.523034,6.387516,0.000000,0.00027
0.531,0,1,-3.076588,5.646573,5.518629,6.390117,0.000000,0.00001
0.532,0,1,-3.158133,5.643213,5.514445,6.392168,0.000000,0.00015
0.533,0,1,-3.239676,5.639852,5.510261,6.393793,0.000000,0.00015
0.534,0,1,-3.321221,5.636492,5.506076,6.395244,0.000000,0.00001
0.535,0,1,-3.371525,5.632891,5.502114,6.397485,0.000000,0.00031
0.536,0,1,-3.403165,5.629148,5.498284,6.400051,0.000000,0.00000
0.537,0,1,-3.434805,5.625404,5.494453,6.402603,0.000000,0.00014
0.538,0,1,-3.466445,5.621660,5.490623,6.405150,0.000000,0.00014
0.539,0,1,-3.460121,5.617948,5.486984,6.406626,0.000000,0.00015
0.540,0,1,-3.431116,5.614254,5.483459,6.407659,0.000000,0.00002
0.541,0,1,-3.402111,5.610561,5.479933,6.407975,0.000000,-0.00012
0.542,0,1,-3.373106,5.606868,5.476407,6.407994,0.000000,0.00004
0.543,0,1,-3.322925,5.603366,5.473106,6.407905,0.000000,-0.00001
0.544,0,1,-3.260092,5.599980,5.469940,6.407770,0.000000,0.00014
0.545,0,1,-3.197258,5.596594,5.466774,6.407470,0.000000,0.00001
0.546,0,1,-3.134425,5.593208,5.463607,6.407103,0.000000,0.00016
0.547,0,1,-3.065166,5.590053,5.460784,6.406433,0.000000,0.00001
0.548,0,1,-2.992069,5.587037,5.458167,6.405638,0.000000,-0.00013
0.549,0,1,-2.918971,5.584021,5.455550,6.404870,0.000000,0.00000
0.550,0,1,-2.845873,5.581004,5.452932,6.404113,0.000000,0.00016
0.551,0,1,-2.785344,5.578482,5.450700,6.403710,0.000000,-0.00001
0.552,0,1,-2.732323,5.576254,5.448699,6.403453,0.000000,0.00014
0.553,0,1,-2.679302,5.574027,5.446697,6.403253,0.000000,0.00014
0.554,0,1,-2.626281,5.571799,5.444695,6.403076,0.000000,0.00001
0.555,0,1,-2.590533,5.569377,5.442992,6.402591,0.000000,0.00000
0.556,0,1,-2.565104,5.566840,5.441466,6.401978,0.000000,-0.00014
0.557,0,1,-2.539675,5.564302,5.439941,6.401159,0.000000,0.00029
0.558,0,1,-2.514246,5.561764,5.438416,6.400257,0.000000,0.00014
0.559,0,1,-2.493421,5.559219,5.437040,6.399308,0.000000,0.00000
0.560,0,1,-2.475346,5.556670,5.435754,6.398341,0.000000,0.00014
0.561,0,1,-2.457271,5.554120,5.434467,6.397127,0.000000,0.00000
0.562,0,1,-2.439196,5.551571,5.433181,6.395811,0.000000,-0.00013
0.563,0,1,-2.423073,5.549075,5.431888,6.394108,0.000000,0.00013
0.564,0,1,-2.408118,5.546611,5.430589,6.392246,0.000000,0.00013
0.565,0,1,-2.393162,5.544147,5.429291,6.390591,0.000000,0.00014
0.566,0,1,-2.378206,5.541683,5.427992,6.389020,0.000000,0.00015
0.567,0,1,-2.359455,5.539262,5.426588,6.388185,0.000000,-0.00013
0.568,0,1,-2.338437,5.536866,5.425119,6.387652,0.000000,-0.00015
0.569,0,1,-2.317419,5.534470,5.423651,4.126323,0.000000,0.00013
0.570,0,0,-2.296401,5.532073,5.422183,0.932575,0.000000,0.00000
0.571,0,0,-2.277754,5.529891,5.420583,0.000000,0.000000,-0.00013
0.572,0,0,-2.260523,5.527837,5.418904,0.000000,0.000000,0.00001
0.573,0,0,-2.243292,5.525784,5.417225,0.000000,0.000000,0.00000
0.574,0,0,-2.226062,5.523729,5.415547,0.000000,0.000000,-0.00010
0.575,0,0,-2.216705,5.521617,5.413773,0.000000,0.000000,0.00001
0.576,0,0,-2.212054,5.519471,5.411941,0.000000,0.000000,-0.00014
0.577,0,0,-2.207402,5.517324,5.410110,0.000000,0.000000,-0.00013
0.578,0,0,-2.202750,5.515178,5.408278,0.000000,0.000000,0.00028
0.579,0,0,-2.204360,5.512909,5.406447,0.000000,0.000000,0.00014
0.580,0,0,-2.209709,5.510567,5.404615,0.000000,0.000000,0.00014
0.581,0,0,-2.215059,5.508225,5.402784,0.000000,0.000000,-0.00010
0.582,0,0,-2.220408,5.505884,5.400952,0.000000,0.000000,0.00015
0.583,0,0,-2.227454,5.503697,5.399142,0.000000,0.000000,0.00000
0.584,0,0,-2.235513,5.501603,5.397346,0.000000,0.000000,0.00013
0.585,0,0,-2.243572,5.499509,5.395549,0.000000,0.000000,0.00028
0.586,0,0,-2.251631,5.497415,5.393752,0.000000,0.000000,0.00027
0.587,0,0,-2.255555,5.495220,5.391981,0.000000,0.000000,0.00015
0.588,0,0,-2.257007,5.492965,5.390225,0.000000,0.000000,0.00015
0.589,0,0,-2.258460,5.490710,5.388470,0.000000,0.000000,0.00028
0.590,0,0,-2.259913,5.488455,5.386714,0.000000,0.000000,0.00000
0.591,0,0,-2.252567,5.486044,5.385032,0.000000,0.000000,0.00000
0.592,0,0,-2.239963,5.483540,5.383394,0.000000,0.000000,0.00016
0.593,0,0,-2.227359,5.481035,5.381756,0.000000,0.000000,0.00028
0.594,0,0,-2.214755,5.478530,5.380118,0.000000,0.000000,0.00029
0.595,0,0,-2.200127,5.476236,5.378627,0.000000,0.000000,0.00013
0.596,0,0,-2.184289,5.474066,5.377223,0.000000,0.000000,0.00015
0.597,0,0,-2.168452,5.471897,5.375820,0.000000,0.000000,-0.00013
0.598,0,0,-2.152614,5.469727,5.374416,0.000000,0.000000,-0.00013
0.599,0,0,-2.138328,5.467677,5.373244,0.000000,0.000000,0.00000
0.600,0,0,-2.124969,5.465699,5.372211,0.000000,0.000000,0.00001
0.601,0,0,-2.111611,5.463721,5.371177,0.000000,0.000000,0.00000
0.602,0,0,-2.098252,5.461743,5.370143,0.000000,0.000000,-0.00010
0.603,0,0,-2.084980,5.459790,5.369393,0.000000,0.000000,0.00000
0.604,0,0,-2.071760,5.457852,5.368814,0.000000,0.000000,0.00014
0.605,0,0,-2.058540,5.455914,5.368233,0.000000,0.000000,-0.00013
0.606,0,0,-2.045321,5.453976,5.367653,0.000000,0.000000,0.00001
0.607,0,0,-2.028811,5.451888,5.367309,0.000000,0.000000,-0.00013
0.608,0,0,-2.010336,5.449711,5.367106,0.000000,0.000000,0.00001
0.609,0,0,-1.991861,5.447534,5.366904,0.000000,0.000000,-0.00012
0.610,0,0,-1.973386,5.445356,5.366702,0.000000,0.000000,0.00002
0.611,0,0,-1.938986,5.443182,5.366714,0.000000,0.000000,-0.00012
0.612,0,0,-1.895073,5.441010,5.366854,0.000000,0.000000,-0.00028
0.613,0,0,-1.851159,5.438837,5.366994,0.000000,0.000000,0.00000
0.614,0,0,-1.807245,5.436665,5.367134,0.000000,0.000000,0.00002
0.615,0,0,-1.750606,5.434808,5.367445,0.000000,0.000000,-0.00013
0.616,0,0,-1.686365,5.433140,5.367857,0.000000,0.000000,-0.00010
0.617,0,0,-1.622124,5.431472,5.368268,0.000000,0.000000,-0.00015
0.618,0,0,-1.557882,5.429804,5.368680,0.000000,0.000000,-0.00001
0.619,0,0,-1.486979,5.428330,5.369253,0.000000,0.000000,0.00014
0.620,0,0,-1.412096,5.426971,5.369921,0.000000,0.000000,0.00028
0.621,0,0,-1.337212,5.425613,5.370589,0.000000,0.000000,0.00000
0.622,0,0,-1.262329,5.424254,5.371258,0.000000,0.000000,0.00043
0.623,0,0,-1.189355,5.423146,5.372179,0.000000,1.539865,0.00013
0.624,1,0,-1.117521,5.422187,5.373251,0.000000,3.714816,0.00029
0.625,1,0,-1.045688,5.421227,5.374324,0.000000,4.349455,0.00002
0.626,1,0,-0.973854,5.420269,5.375396,0.000000,4.348823,0.00015
0.627,1,0,-0.912538,5.419355,5.376804,0.000000,4.353524,0.00000
0.628,1,0,-0.857506,5.418468,5.378413,0.000000,4.360425,0.00000
0.629,1,0,-0.802473,5.417582,5.380021,0.000000,4.367706,0.00015
0.630,1,0,-0.747441,5.416695,5.381629,0.000000,4.375144,0.00013
0.631,1,0,-0.699723,5.416002,5.383655,0.000000,4.377578,0.00028
0.632,1,0,-0.656376,5.415425,5.385930,0.000000,4.377949,0.00014
0.633,1,0,-0.613028,5.414847,5.388205,0.000000,4.377075,0.00015
0.634,1,0,-0.569681,5.414269,5.390480,0.000000,4.375687,0.00014
0.635,1,0,-0.535243,5.413874,5.393110,0.000000,4.377855,-0.00015
0.636,1,0,-0.506129,5.413587,5.395952,0.000000,4.381489,-0.00001
0.637,1,0,-0.477015,5.413300,5.398794,0.000000,4.386512,-0.00015
0.638,1,0,-0.447900,5.413013,5.401636,0.000000,4.392108,0.00001
0.639,1,0,-0.411939,5.412606,5.404686,0.000000,4.395810,0.00000
0.640,1,0,-0.371887,5.412127,5.407862,0.000000,4.398731,-0.00014
0.641,1,0,-0.331835,5.411647,5.411036,0.000000,4.400331,-0.00014
0.642,1,0,-0.291783,5.411167,5.414212,0.000000,4.401386,0.00015
0.643,1,0,-0.230596,5.410764,5.417555,0.000000,4.402388,0.00002
0.644,1,0,-0.156780,5.410407,5.420998,0.000000,4.403367,0.00000
0.645,1,0,-0.082965,5.410050,5.424442,0.000000,4.403759,0.00015
0.646,1,0,-0.009149,5.409693,5.427885,0.000000,4.403907,0.00001
0.647,1,0,0.082330,5.409441,5.431570,0.000000,4.402799,0.00027
0.648,1,0,0.184364,5.409252,5.435400,0.000000,4.401172,0.00015
0.649,1,0,0.286397,5.409063,5.439229,0.000000,4.399304,0.00029
0.650,1,0,0.388430,5.408874,5.443058,0.000000,4.397337,0.00001
0.651,1,0,0.497595,5.409253,5.447278,0.000000,4.396418,-0.00012
0.652,1,0,0.611020,5.409970,5.451730,0.000000,4.395931,0.00001
0.653,1,0,0.724445,5.410688,5.456182,0.000000,4.396850,-0.00013
0.654,1,0,0.837870,5.411406,5.460634,0.000000,4.398350,0.00014
0.655,1,0,0.939902,5.412720,5.465532,0.000000,4.400978,0.00001
0.656,1,0,1.035128,5.414390,5.470695,0.000000,4.404072,0.00015
0.657,1,0,1.130354,5.416061,5.475859,0.000000,4.406329,0.00001
0.658,1,0,1.225580,5.417731,5.481022,0.000000,4.408240,0.00000
0.659,1,0,1.309577,5.419223,5.486651,0.000000,4.407594,0.00013
0.660,1,0,1.386864,5.420609,5.492559,0.000000,4.405893,-0.00014
0.661,1,0,1.464151,5.421995,5.498467,0.000000,4.403198,0.00029
0.662,1,0,1.541438,5.423381,5.504375,0.000000,4.400093,0.00014
0.663,1,0,1.620309,5.424752,5.510724,0.000000,4.398097,0.00001
0.664,1,0,1.700124,5.426115,5.517336,0.000000,4.396557,0.00016
0.665,1,0,1.779940,5.427477,5.523949,0.000000,4.396473,0.00001
0.666,1,0,1.859755,5.428839,5.530561,0.000000,4.396989,0.00000
0.667,1,0,1.951926,5.430597,5.537454,0.000000,4.398586,-0.00015
0.668,1,0,2.051478,5.432591,5.544513,0.000000,4.400630,0.00014
0.669,1,0,2.151030,5.434586,5.551572,0.000000,4.402372,-0.00001
0.670,1,0,2.250583,5.436580,5.558631,0.000000,4.403992,0.00014
0.671,1,0,2.367962,5.438923,5.565849,0.000000,4.404117,0.00002
0.672,1,0,2.495993,5.441476,5.573162,0.000000,4.403626,-0.00012
0.673,1,0,2.624024,5.444028,5.580474,0.000000,4.402581,0.00015
0.674,1,0,2.752055,5.446581,5.587787,0.000000,4.401308,0.00000
0.675,1,0,2.883192,5.449450,5.595146,0.000000,4.400666,0.00015
0.676,1,0,3.016185,5.452509,5.602533,0.000000,4.400284,0.00016
0.677,1,0,3.149178,5.455567,5.609920,0.000000,4.400081,-0.00012
0.678,1,0,3.282170,5.458626,5.617306,0.000000,4.399953,-0.00013
0.679,1,0,3.407980,5.462015,5.624678,0.000000,4.399339,0.00014
0.680,1,0,3.529500,5.465601,5.632040,0.000000,4.398525,0.00000
0.681,1,0,3.651018,5.469187,5.639402,0.000000,4.397684,0.00014
0.682,1,0,3.772537,5.472773,5.646765,0.000000,4.396831,-0.00013
0.683,1,0,3.883696,5.476770,5.654147,0.000000,4.396544,-0.00001
0.684,1,0,3.988665,5.481014,5.661541,0.000000,4.396491,0.00029
0.685,1,0,4.093634,5.485257,5.668935,0.000000,4.396791,0.00000
0.686,1,0,4.198602,5.489500,5.676329,0.000000,4.397236,0.00012
0.687,1,0,4.285266,5.493881,5.683652,0.000000,4.397627,0.00014
0.688,1,0,4.360994,5.498344,5.690931,0.000000,4.397997,0.00001
0.689,1,0,4.436722,5.502808,5.698211,0.000000,4.398080,0.00015
0.690,1,0,4.512449,5.507271,5.705490,0.000000,4.398045,0.00015
0.691,1,0,4.576080,5.511902,5.712498,0.000000,4.397674,0.00000
0.692,1,0,4.632483,5.516634,5.719344,0.000000,4.397165,-0.00015
0.693,1,0,4.688887,5.521366,5.726190,0.000000,4.396900,0.00014
0.694,1,0,4.745290,5.526097,5.733036,0.000000,4.396735,0.00000
0.695,1,0,4.790377,5.531023,5.739411,0.000000,4.397214,0.00014
0.696,1,0,4.828702,5.536063,5.745505,0.000000,4.397958,0.00002
0.697,1,0,4.867028,5.541104,5.751598,0.000000,4.398134,0.00014
0.698,1,0,4.905354,5.546144,5.757692,0.000000,4.398075,-0.00001
0.699,1,0,4.934386,5.551003,5.763240,0.000000,4.396388,0.00028
0.700,1,0,4.957865,5.555754,5.768463,0.000000,4.394029,0.00014
0.701,1,0,4.981345,5.560504,5.773686,0.000000,4.391731,0.00014
0.702,1,0,5.004824,5.565255,5.778909,0.000000,4.389458,0.00000
0.703,1,0,5.015472,5.570292,5.783596,0.000000,4.389051,-0.00015
0.704,1,0,5.018455,5.575501,5.787962,0.000000,4.389414,-0.00015
0.705,1,0,5.021438,5.580710,5.792328,0.000000,4.390467,-0.00009
0.706,1,0,5.024420,5.585919,5.796694,0.000000,4.391805,-0.00015
0.707,1,0,5.005566,5.591196,5.800544,0.000000,4.392414,0.00014
0.708,1,0,4.973665,5.596515,5.804084,0.000000,4.392723,0.00033
0.709,1,0,4.941764,5.601833,5.807625,0.000000,4.393601,0.00001
0.710,1,0,4.909863,5.607152,5.811165,0.000000,4.394716,0.00029
0.711,1,0,4.858247,5.612168,5.814273,0.000000,4.397729,0.00016
0.712,1,0,4.794853,5.617003,5.817123,0.000000,4.401526,-0.00014
0.713,0,0,4.731458,5.621839,5.819973,0.000000,2.844102,0.00029
0.714,0,0,4.668064,5.626674,5.822823,0.000000,0.642785,0.00000
0.715,0,0,4.587300,5.631307,5.825278,0.000000,0.000000,-0.00001
0.716,0,0,4.496160,5.635819,5.827499,0.000000,0.000000,0.00001
0.717,0,0,4.405019,5.640331,5.829720,0.000000,0.000000,-0.00001
0.718,0,0,4.313879,5.644843,5.831941,0.000000,0.000000,0.00015
0.719,0,0,4.220482,5.649111,5.833763,0.000000,0.000000,0.00014
0.720,0,0,4.125739,5.653232,5.835347,0.000000,0.000000,0.00001
0.721,0,0,4.030994,5.657353,5.836931,0.000000,0.000000,0.00014
0.722,0,0,3.936250,5.661475,5.838515,0.000000,0.000000,0.00001
0.723,0,0,3.850337,5.665270,5.839762,0.000000,0.000000,-0.00010
0.724,0,0,3.769699,5.668872,5.840806,0.000000,0.000000,0.00000
0.725,0,0,3.689062,5.672473,5.841852,0.000000,0.000000,0.00014
0.726,0,0,3.608424,5.676075,5.842896,0.000000,0.000000,-0.00014
0.727,0,0,3.535358,5.679466,5.843617,0.000000,0.000000,0.00012
0.728,0,0,3.466815,5.682731,5.844145,0.000000,0.000000,0.00014
0.729,0,0,3.398272,5.685996,5.844672,0.000000,0.000000,-0.00001
0.730,0,0,3.329729,5.689261,5.845199,0.000000,0.000000,0.00014
0.731,0,0,3.265880,5.692518,5.845435,0.000000,0.000000,0.00027
0.732,0,0,3.204835,5.695770,5.845498,0.000000,0.000000,0.00013
0.733,0,0,3.143790,5.699021,5.845560,0.000000,0.000000,0.00000
0.734,0,0,3.082745,5.702273,5.845622,0.000000,0.000000,-0.00010
0.735,0,0,3.024625,5.705418,5.845479,0.000000,0.000000,0.00001
0.736,0,0,2.968254,5.708499,5.845214,0.000000,0.000000,0.00001
0.737,0,0,2.911883,5.711580,5.844950,0.000000,0.000000,0.00000
0.738,0,0,2.855512,5.714662,5.844685,0.000000,0.000000,-0.00013
0.739,0,0,2.797101,5.717449,5.844220,0.000000,0.000000,0.00001
0.740,0,0,2.737472,5.720061,5.843636,0.000000,0.000000,-0.00001
0.741,0,0,2.677842,5.722673,5.843051,0.000000,0.000000,0.00001
0.742,0,0,2.618213,5.725285,5.842467,0.000000,0.000000,0.00000
0.743,0,0,2.563107,5.727742,5.841717,0.000000,0.000000,0.00028
0.744,0,0,2.510705,5.730106,5.840867,0.000000,0.000000,0.00001
0.745,0,0,2.458303,5.732471,5.840017,0.000000,0.000000,0.00016
0.746,0,0,2.405900,5.734836,5.839167,0.000000,0.000000,-0.00013
0.747,0,0,2.349006,5.737245,5.838127,0.000000,0.000000,0.00001
0.748,0,0,2.289429,5.739681,5.836973,0.000000,0.000000,0.00015
0.749,0,0,2.229852,5.742117,5.835819,0.000000,0.000000,0.00001
0.750,0,0,2.170274,5.744553,5.834665,0.000000,0.000000,0.00000
0.751,0,0,2.104814,5.746675,5.833283,0.000000,0.000000,-0.00013
0.752,0,0,2.035839,5.748611,5.831766,0.000000,0.000000,-0.00015
0.753,0,0,1.966864,5.750546,5.830248,0.000000,0.000000,-0.00014
0.754,0,0,1.897889,5.752481,5.828731,0.000000,0.000000,-0.00015
0.755,0,0,1.821391,5.754494,5.826965,0.000000,0.000000,0.00014
0.756,0,0,1.740398,5.756552,5.825051,0.000000,0.000000,0.00000
0.757,0,0,1.659405,5.758610,5.823137,0.000000,0.000000,0.00014
0.758,0,0,1.578413,5.760668,5.821223,0.000000,0.000000,-0.00013
0.759,0,0,1.488333,5.762192,5.819018,0.000000,0.000000,0.00014
0.760,0,0,1.392824,5.763397,5.816640,0.000000,0.000000,0.00028
0.761,0,0,1.297315,5.764601,5.814262,0.000000,0.000000,0.00001
0.762,0,0,1.201806,5.765806,5.811884,0.000000,0.000000,-0.00001
0.763,0,0,1.111575,5.766781,5.809288,0.000000,0.000000,0.00015
0.764,0,0,1.024498,5.767621,5.806562,0.000000,0.000000,0.00001
0.765,0,0,0.937420,5.768459,5.803836,0.000000,0.000000,0.00015
0.766,0,0,0.850343,5.769298,5.801109,0.000000,0.000000,0.00000
0.767,0,0,0.759976,5.770116,5.798171,0.000000,0.000000,0.00016
0.768,0,0,0.667643,5.770920,5.795105,0.000000,0.000000,-0.00001
0.769,0,0,0.575310,5.771725,5.792039,0.000000,0.000000,-0.00013
0.770,0,0,0.482978,5.772530,5.788974,0.000000,0.000000,0.00001
0.771,0,0,0.392988,5.772957,5.785733,0.000000,0.000000,0.00001
0.772,0,0,0.304398,5.773159,5.782386,0.000000,0.000000,0.00000
0.773,0,0,0.215808,5.773360,5.779039,0.000000,0.000000,-0.00013
0.774,0,0,0.127219,5.773561,5.775693,0.000000,0.000000,0.00015
0.775,0,0,0.040835,5.773644,5.772289,0.000000,0.000000,0.00015
0.776,0,0,-0.044231,5.773656,5.768852,0.000000,0.000000,0.00015
0.777,0,0,-0.129297,5.773669,5.765414,0.000000,0.000000,-0.00014
0.778,0,0,-0.214363,5.773681,5.761977,0.000000,0.000000,0.00001
0.779,0,0,-0.301292,5.773345,5.758508,0.000000,0.000000,-0.00013
0.780,0,0,-0.389336,5.772801,5.755020,0.000000,0.000000,0.00015
0.781,0,0,-0.477379,5.772257,5.751533,0.000000,0.000000,0.00029
0.782,0,0,-0.565423,5.771713,5.748045,0.000000,0.000000,0.00042
0.783,0,0,-0.640303,5.770964,5.744694,2.265519,0.000000,0.00015
0.784,0,0,-0.707318,5.770091,5.741425,5.465405,0.000000,0.00015
0.785,0,1,-0.774334,5.769219,5.738155,6.396723,0.000000,-0.00001
0.786,0,1,-0.841349,5.768346,5.734886,6.392418,0.000000,-0.00013
0.787,0,1,-0.906547,5.767506,5.731730,6.388149,0.000000,0.00014
0.788,0,1,-0.970660,5.766684,5.728642,6.383895,0.000000,-0.00015
0.789,0,1,-1.034772,5.765862,5.725554,6.379857,0.000000,0.00000
0.790,0,1,-1.098884,5.765040,5.722466,6.375907,0.000000,-0.00014
0.791,0,1,-1.148639,5.763785,5.719515,6.372436,0.000000,-0.00014
0.792,0,1,-1.189816,5.762272,5.716646,6.369162,0.000000,0.00014
0.793,0,1,-1.230993,5.760758,5.713777,6.366681,0.000000,0.00027
0.794,0,1,-1.272169,5.759245,5.710907,6.364527,0.000000,0.00015
0.795,0,1,-1.301999,5.757920,5.708182,6.363332,0.000000,0.00001
0.796,0,1,-1.325048,5.756709,5.705543,6.362533,0.000000,-0.00014
0.797,0,1,-1.348098,5.755497,5.702903,6.362121,0.000000,0.00014
0.798,0,1,-1.371148,5.754285,5.700264,6.361870,0.000000,0.00014
0.799,0,1,-1.386699,5.752732,5.697734,6.361358,0.000000,-0.00013
0.800,0,1,-1.397770,5.750976,5.695270,6.360739,0.000000,0.00014
0.801,0,1,-1.408842,5.749220,5.692805,6.359800,0.000000,0.00016
0.802,0,1,-1.419914,5.747464,5.690341,6.358730,0.000000,0.00015
0.803,0,1,-1.418851,5.746027,5.688003,6.357482,0.000000,0.00001
0.804,0,1,-1.410538,5.744780,5.685740,6.356162,0.000000,0.00001
0.805,0,1,-1.402226,5.743533,5.683477,6.354972,0.000000,0.00002
0.806,0,1,-1.393914,5.742287,5.681215,6.353836,0.000000,-0.00001
0.807,0,1,-1.389717,5.741000,5.678991,6.353096,0.000000,0.00029
0.808,0,1,-1.387978,5.739688,5.676791,6.352520,0.000000,0.00002
0.809,0,1,-1.386240,5.738377,5.674591,6.352209,0.000000,0.00029
0.810,0,1,-1.384501,5.737066,5.672390,6.352008,0.000000,0.00028
0.811,0,1,-1.378249,5.735624,5.670233,6.351863,0.000000,0.00027
0.812,0,1,-1.369301,5.734103,5.668102,6.351742,0.000000,0.00012
0.813,0,1,-1.360353,5.732583,5.665970,6.351615,0.000000,0.00014
0.814,0,1,-1.351405,5.731062,5.663839,6.351487,0.000000,-0.00013
0.815,0,1,-1.350171,5.729710,5.661764,6.351321,0.000000,0.00014
0.816,0,1,-1.353546,5.728459,5.659724,6.351140,0.000000,0.00000
0.817,0,1,-1.356921,5.727209,5.657683,6.350841,0.000000,-0.00015
0.818,0,1,-1.360296,5.725958,5.655643,6.350492,0.000000,-0.00001
0.819,0,1,-1.370649,5.724639,5.653635,6.349910,0.000000,0.00012
0.820,0,1,-1.385170,5.723279,5.651648,6.349232,0.000000,0.00028
0.821,0,1,-1.399691,5.721920,5.649660,6.348134,0.000000,-0.00001
0.822,0,1,-1.414213,5.720560,5.647672,6.346861,0.000000,0.00018
0.823,0,1,-1.435179,5.719253,5.645738,6.345036,0.000000,0.00014
0.824,0,1,-1.459997,5.717979,5.643837,6.342981,0.000000,0.00014
0.825,0,1,-1.484815,5.716705,5.641936,6.340588,0.000000,0.00016
0.826,0,1,-1.509633,5.715431,5.640036,6.338055,0.000000,0.00015
0.827,0,1,-1.541864,5.713949,5.638066,6.335624,0.000000,-0.00015
0.828,0,1,-1.578523,5.712343,5.636055,6.333236,0.000000,0.00000
0.829,0,1,-1.615183,5.710736,5.634045,6.331964,0.000000,0.00000
0.830,0,1,-1.651842,5.709129,5.632034,6.331152,0.000000,-0.00028
0.831,0,1,-1.681084,5.707340,5.629951,6.332151,0.000000,-0.00012
0.832,0,1,-1.705894,5.705441,5.627823,6.333896,0.000000,0.00029
0.833,0,1,-1.730705,5.703542,5.625695,6.335960,0.000000,-0.00013
0.834,0,1,-1.755515,5.701643,5.623568,6.338156,0.000000,0.00001
0.835,0,1,-1.773109,5.699796,5.621294,6.339065,0.000000,0.00015
0.836,0,1,-1.786391,5.697978,5.618932,6.339444,0.000000,0.00016
0.837,0,1,-1.799672,5.696162,5.616571,6.339216,0.000000,0.00015
0.838,0,1,-1.812954,5.694345,5.614209,6.338738,0.000000,-0.00012
0.839,0,1,-1.814966,5.692458,5.611687,6.338595,0.000000,0.00029
0.840,0,1,-1.810245,5.690529,5.609070,6.338592,0.000000,0.00014
0.841,0,1,-1.805524,5.688601,5.606452,6.338146,0.000000,0.00001
0.842,0,1,-1.800803,5.686673,5.603834,6.337519,0.000000,-0.00010
0.843,0,1,-1.794093,5.684896,5.601107,6.335624,0.000000,0.00029
0.844,0,1,-1.786196,5.683210,5.598315,6.333206,0.000000,0.00014
0.845,0,1,-1.778298,5.681524,5.595522,6.330679,0.000000,0.00028
0.846,0,1,-1.770400,5.679838,5.592730,6.328107,0.000000,0.00015
0.847,0,1,-1.770974,5.678079,5.589882,6.326776,0.000000,0.00028
0.848,0,1,-1.776609,5.676276,5.587002,6.325956,0.000000,0.00001
0.849,0,1,-1.782244,5.674474,5.584122,6.326066,0.000000,0.00000
0.850,0,1,-1.787880,5.672671,5.581242,6.326560,0.000000,0.00014
0.851,0,1,-1.802170,5.670991,5.578397,6.327369,0.000000,0.00015
0.852,0,1,-1.821630,5.669384,5.575573,6.328307,0.000000,0.00014
0.853,0,1,-1.841091,5.667777,5.572750,6.329690,0.000000,0.00013
0.854,0,1,-1.860552,5.666170,5.569926,6.331255,0.000000,0.00014
0.855,0,1,-1.892241,5.664407,5.567147,6.333572,0.000000,-0.00012
0.856,0,1,-1.931235,5.662551,5.564394,6.336199,0.000000,0.00013
0.857,0,1,-1.970229,5.660696,5.561642,6.339729,0.000000,0.00018
0.858,0,1,-2.009223,5.658841,5.558890,6.343632,0.000000,0.00001
0.859,0,1,-2.050429,5.656745,5.556128,6.348316,0.000000,-0.00001
0.860,0,1,-2.092957,5.654506,5.553360,6.353322,0.000000,-0.00028
0.861,0,1,-2.135484,5.652267,5.550592,6.357936,0.000000,0.00028
0.862,0,1,-2.178012,5.650027,5.547824,6.362389,0.000000,0.00001
0.863,0,1,-2.216769,5.647777,5.544949,6.365321,0.000000,0.00001
0.864,0,1,-2.253272,5.645521,5.542010,6.367627,0.000000,0.00014
0.865,0,1,-2.289774,5.643264,5.539071,6.368835,0.000000,0.00000
0.866,0,1,-2.326277,5.641008,5.536131,6.369591,0.000000,-0.00004
0.867,0,1,-2.352326,5.638617,5.533018,6.370032,0.000000,0.00004
0.868,0,1,-2.372130,5.636145,5.529800,6.370344,0.000000,0.00015
0.869,0,1,-2.391934,5.633673,5.526582,6.370770,0.000000,0.00002
0.870,0,1,-2.411737,5.631201,5.523365,6.371245,0.000000,0.00015
0.871,0,1,-2.420776,5.628663,5.519985,6.371963,0.000000,0.00015
0.872,0,1,-2.423384,5.626084,5.516508,6.372782,0.000000,-0.00013
0.873,0,1,-2.425992,5.623506,5.513031,6.373065,0.000000,-0.00014
0.874,0,1,-2.428599,5.620928,5.509554,6.373127,0.000000,0.00000
0.875,0,1,-2.427767,5.618459,5.505927,6.372011,0.000000,0.00001
0.876,0,1,-2.424878,5.616055,5.502210,6.370409,0.000000,-0.00014
0.877,0,1,-2.421990,5.613651,5.498493,6.368776,0.000000,0.00014
0.878,0,1,-2.419102,5.611247,5.494776,6.367132,0.000000,0.00028
0.879,0,1,-2.421949,5.608896,5.490983,6.366723,0.000000,0.00000
0.880,0,1,-2.428222,5.606576,5.487145,6.366824,0.000000,0.00015
0.881,0,1,-2.434495,5.604257,5.483307,6.367666,0.000000,0.00029
0.882,0,1,-2.440769,5.601937,5.479469,6.368813,0.000000,0.00000
0.883,0,1,-2.459459,5.599587,5.475585,6.369930,0.000000,0.00028
0.884,0,1,-2.485569,5.597218,5.471673,6.371035,0.000000,-0.00029
0.885,0,1,-2.511678,5.594848,5.467761,6.372340,0.000000,0.00029
0.886,0,1,-2.537787,5.592479,5.463849,6.373726,0.000000,0.00013
0.887,0,1,-2.573072,5.590041,5.459861,6.375624,0.000000,-0.00014
0.888,0,1,-2.613839,5.587562,5.455828,6.377733,0.000000,0.00029
0.889,0,1,-2.654607,5.585083,5.451796,6.379761,0.000000,0.00016
0.890,0,1,-2.695374,5.582603,5.447762,6.381755,0.000000,0.00000
0.891,0,1,-2.737554,5.579857,5.443671,6.382977,0.000000,0.00014
0.892,0,1,-2.780579,5.576950,5.439543,6.383882,0.000000,0.00001
0.893,0,1,-2.823603,5.574043,5.435416,6.384036,0.000000,-0.00012
0.894,0,1,-2.866628,5.571136,5.431288,6.383880,0.000000,-0.00027
0.895,0,1,-2.909335,5.568066,5.427152,6.383279,0.000000,0.00001
0.896,0,1,-2.951853,5.564897,5.423010,6.382494,0.000000,0.00001
0.897,0,1,-2.994371,5.561728,5.418868,6.381936,0.000000,0.00000
0.898,0,1,-3.036889,5.558558,5.414726,6.381471,0.000000,0.00031
0.899,0,1,-3.080079,5.555511,5.410595,6.381753,0.000000,0.00000
0.900,0,1,-3.123670,5.552538,5.406472,6.382344,0.000000,0.00001
0.901,0,1,-3.167261,5.549564,5.402349,6.383044,0.000000,-0.00014
0.902,0,1,-3.210851,5.546590,5.398225,6.383789,0.000000,-0.00013
0.903,0,1,-3.253303,5.543544,5.394179,6.383896,0.000000,0.00000
0.904,0,1,-3.295073,5.540453,5.390179,6.383739,0.000000,0.00000
0.905,0,1,-3.336843,5.537364,5.386178,6.383180,0.000000,0.00000
0.906,0,1,-3.378614,5.534273,5.382178,6.382455,0.000000,-0.00014
0.907,0,1,-3.415105,5.530781,5.378350,6.381809,0.000000,-0.00014
0.908,0,1,-3.448441,5.527049,5.374625,6.381195,0.000000,0.00029
0.909,0,1,-3.481777,5.523317,5.370899,6.380993,0.000000,0.00002
0.910,0,1,-3.515114,5.519585,5.367173,6.380960,0.000000,0.00015
0.911,0,1,-3.535781,5.515795,5.363666,6.381438,0.000000,0.00014
0.912,0,1,-3.548879,5.511970,5.360290,6.382125,0.000000,0.00014
0.913,0,1,-3.561977,5.508145,5.356913,6.382543,0.000000,0.00002
0.914,0,1,-3.575075,5.504320,5.353536,6.382851,0.000000,0.00000
0.915,0,1,-3.571448,5.500700,5.350441,6.382153,0.000000,0.00027
0.916,0,1,-3.557829,5.497202,5.347513,6.381042,0.000000,0.00000
0.917,0,1,-3.544209,5.493705,5.344586,6.379507,0.000000,0.00015
0.918,0,1,-3.530589,5.490207,5.341658,6.377798,0.000000,0.00000
0.919,0,1,-3.506096,5.486701,5.339003,6.376453,0.000000,-0.00014
0.920,0,1,-3.475107,5.483191,5.336509,6.375259,0.000000,0.00001
0.921,0,1,-3.444117,5.479680,5.334016,6.374467,0.000000,0.00000
0.922,0,1,-3.413128,5.476170,5.331523,6.373841,0.000000,-0.00012
0.923,0,1,-3.372594,5.472718,5.329275,4.117383,0.000000,-0.00001
0.924,0,0,-3.326358,5.469301,5.327174,0.930554,0.000000,0.00001
0.925,0,0,-3.280123,5.465885,5.325073,0.000000,0.000000,-0.00013
0.926,0,0,-3.233887,5.462468,5.322971,0.000000,0.000000,-0.00012
0.927,0,0,-3.183135,5.459271,5.321134,0.000000,0.000000,0.00000
0.928,0,0,-3.129684,5.456204,5.319453,0.000000,0.000000,0.00015
0.929,0,0,-3.076234,5.453138,5.317773,0.000000,0.000000,0.00000
0.930,0,0,-3.022783,5.450072,5.316092,0.000000,0.000000,-0.00013
0.931,0,0,-2.968731,5.446994,5.314691,0.000000,0.000000,0.00015
0.932,0,0,-2.914319,5.443910,5.313455,0.000000,0.000000,-0.00013
0.933,0,0,-2.859908,5.440826,5.312219,0.000000,0.000000,0.00002
0.934,0,0,-2.805496,5.437742,5.310983,0.000000,0.000000,0.00002
0.935,0,0,-2.751815,5.435046,5.309951,0.000000,0.000000,-0.00001
0.936,0,0,-2.698571,5.432583,5.309042,0.000000,0.000000,0.00015
0.937,0,0,-2.645327,5.430120,5.308133,0.000000,0.000000,0.00001
0.938,0,0,-2.592082,5.427656,5.307224,0.000000,0.000000,0.00029
0.939,0,0,-2.546246,5.425288,5.306387,0.000000,0.000000,0.00014
0.940,0,0,-2.504836,5.422976,5.305595,0.000000,0.000000,0.00001
0.941,0,0,-2.463425,5.420665,5.304802,0.000000,0.000000,0.00000
0.942,0,0,-2.422015,5.418353,5.304009,0.000000,0.000000,0.00000
0.943,0,0,-2.380947,5.415857,5.303243,0.000000,0.000000,0.00028
0.944,0,0,-2.340083,5.413250,5.302493,0.000000,0.000000,-0.00014
0.945,0,0,-2.299219,5.410643,5.301742,0.000000,0.000000,0.00029
0.946,0,0,-2.258355,5.408036,5.300992,0.000000,0.000000,-0.00013
0.947,0,0,-2.220549,5.405751,5.300215,0.000000,0.000000,0.00014
0.948,0,0,-2.184570,5.403658,5.299423,0.000000,0.000000,0.00027
0.949,0,0,-2.148591,5.401565,5.298631,0.000000,0.000000,0.00014
0.950,0,0,-2.112612,5.399472,5.297839,0.000000,0.000000,0.00001
0.951,0,0,-2.078675,5.397484,5.297005,0.000000,0.000000,-0.00001
0.952,0,0,-2.045957,5.395557,5.296146,0.000000,0.000000,-0.00013
0.953,0,0,-2.013239,5.393631,5.295288,0.000000,0.000000,0.00014
0.954,0,0,-1.980521,5.391705,5.294429,0.000000,0.000000,0.00015
0.955,0,0,-1.954421,5.389808,5.293580,0.000000,0.000000,0.00028
0.956,0,0,-1.932276,5.387930,5.292736,0.000000,0.000000,0.00028
0.957,0,0,-1.910130,5.386052,5.291893,0.000000,0.000000,0.00001
0.958,0,0,-1.887984,5.384173,5.291049,0.000000,0.000000,0.00015
0.959,0,0,-1.876081,5.382312,5.290215,0.000000,0.000000,0.00000
0.960,0,0,-1.870297,5.380463,5.289387,0.000000,0.000000,0.00015
0.961,0,0,-1.864513,5.378613,5.288560,0.000000,0.000000,-0.00013
0.962,0,0,-1.858729,5.376762,5.287733,0.000000,0.000000,0.00014
0.963,0,0,-1.855033,5.374999,5.287000,0.000000,0.000000,0.00015
0.964,0,0,-1.852584,5.373286,5.286325,0.000000,0.000000,0.00015
0.965,0,0,-1.850135,5.371573,5.285648,0.000000,0.000000,-0.00012
0.966,0,0,-1.847686,5.369861,5.284973,0.000000,0.000000,0.00013
0.967,0,0,-1.842961,5.367968,5.284511,0.000000,0.000000,0.00001
0.968,0,0,-1.836877,5.365968,5.284178,0.000000,0.000000,0.00028
0.969,0,0,-1.830792,5.363967,5.283844,0.000000,0.000000,0.00001
0.970,0,0,-1.824708,5.361966,5.283511,0.000000,0.000000,0.00000
0.971,0,0,-1.814296,5.360024,5.283431,0.000000,0.000000,-0.00012
0.972,0,0,-1.801300,5.358118,5.283502,0.000000,0.000000,0.00001
0.973,0,0,-1.788304,5.356211,5.283573,0.000000,0.000000,0.00002
0.974,0,0,-1.775307,5.354304,5.283644,0.000000,0.000000,0.00015
0.975,0,0,-1.753709,5.352570,5.284034,0.000000,0.000000,0.00015
0.976,0,0,-1.726971,5.350941,5.284613,0.000000,0.000000,0.00001
0.977,0,0,-1.700234,5.349311,5.285192,0.000000,0.000000,0.00000
0.978,0,0,-1.673496,5.347681,5.285772,0.000000,0.000000,-0.00013
0.979,0,0,-1.639147,5.346062,5.286675,0.000000,0.000000,0.00015
0.980,0,0,-1.600250,5.344450,5.287771,0.000000,0.000000,-0.00001
0.981,0,0,-1.561353,5.342838,5.288867,0.000000,0.000000,0.00014
0.982,0,0,-1.522456,5.341226,5.289962,0.000000,0.000000,0.00000
0.983,0,0,-1.467881,5.339561,5.291399,0.000000,0.000000,0.00013
0.984,0,0,-1.403940,5.337863,5.293039,0.000000,0.000000,0.00013
0.985,0,0,-1.339999,5.336165,5.294679,0.000000,0.000000,0.00014
0.986,0,0,-1.276058,5.334468,5.296319,0.000000,0.000000,0.00001
0.987,0,0,-1.197250,5.333190,5.298255,0.000000,0.000000,0.00014
0.988,0,0,-1.109559,5.332163,5.300367,0.000000,0.000000,0.00014
0.989,0,0,-1.021868,5.331136,5.302479,0.000000,0.000000,-0.00014
0.990,0,0,-0.934178,5.330110,5.304591,0.000000,0.000000,0.00014
0.991,0,0,-0.834573,5.329133,5.306992,0.000000,0.000000,-0.00001
0.992,0,0,-0.727851,5.328187,5.309566,0.000000,0.000000,0.00015
0.993,0,0,-0.621129,5.327241,5.312140,0.000000,0.000000,0.00014
0.994,0,0,-0.514407,5.326296,5.314713,0.000000,0.000000,-0.00026
0.995,0,0,-0.403476,5.325875,5.317558,0.000000,0.000000,0.00001
0.996,0,0,-0.290031,5.325768,5.320565,0.000000,0.000000,0.00001
0.997,0,0,-0.176586,5.325662,5.323572,0.000000,0.000000,0.00028
0.998,0,0,-0.063141,5.325555,5.326579,0.000000,0.000000,-0.00012
0.999,0,0,0.039810,5.325716,5.329816,0.000000,0.000000,-0.00013
1.000,0,0,0.136491,5.326039,5.333192,0.000000,0.000000,-0.00001
1.001,0,0,0.233172,5.326362,5.336567,0.000000,0.000000,0.00000
1.002,0,0,0.329853,5.326684,5.339943,0.000000,0.000000,0.00013
1.003,0,0,0.417406,5.327162,5.343533,0.000000,0.000000,0.00031
1.004,0,0,0.499504,5.327732,5.347251,0.000000,0.000000,0.00000
1.005,0,0,0.581602,5.328302,5.350969,0.000000,0.000000,0.00014
1.006,0,0,0.663699,5.328873,5.354687,0.000000,0.000000,0.00029
1.007,0,0,0.730757,5.329638,5.358534,0.000000,0.000000,-0.00013
1.008,0,0,0.788830,5.330521,5.362459,0.000000,0.000000,0.00016
1.009,0,0,0.846902,5.331403,5.366383,0.000000,0.000000,0.00015
1.010,0,0,0.904974,5.332285,5.370307,0.000000,0.000000,0.00000
1.011,0,0,0.956909,5.333309,5.374205,0.000000,0.000000,0.00013
1.012,0,0,1.005176,5.334418,5.378086,0.000000,0.000000,0.00013
1.013,0,0,1.053443,5.335526,5.381967,0.000000,0.000000,0.00016
1.014,0,0,1.101711,5.336635,5.385848,0.000000,0.000000,0.00028
1.015,0,0,1.149823,5.337812,5.389592,0.000000,0.000000,0.00015
1.016,0,0,1.197842,5.339033,5.393253,0.000000,0.000000,0.00014
1.017,0,0,1.245861,5.340252,5.396915,0.000000,0.000000,0.00014
1.018,0,0,1.293880,5.341472,5.400577,0.000000,0.000000,0.00015
1.019,0,0,1.344391,5.342708,5.404006,0.000000,0.000000,0.00043
1.020,0,0,1.396391,5.343953,5.407295,0.000000,0.000000,0.00029
1.021,0,0,1.448391,5.345199,5.410584,0.000000,0.000000,-0.00028
1.022,0,0,1.500391,5.346444,5.413873,0.000000,0.000000,0.00014
1.023,0,0,1.551303,5.347928,5.416999,0.000000,0.000000,-0.00015
1.024,0,0,1.601564,5.349555,5.420028,0.000000,0.000000,0.00015
1.025,0,0,1.651826,5.351182,5.423056,0.000000,0.000000,0.00001
1.026,0,0,1.702088,5.352808,5.426085,0.000000,0.000000,-0.00012
1.027,0,0,1.741849,5.354665,5.429036,0.000000,0.000000,-0.00001
1.028,0,0,1.775337,5.356659,5.431940,0.000000,0.000000,0.00018
1.029,1,0,1.808825,5.358653,5.434844,0.000000,1.524280,0.00029
1.030,1,0,1.842312,5.360647,5.437748,0.000000,3.677219,-0.00013
1.031,1,0,1.861612,5.362698,5.440664,0.000000,4.304244,-0.00014
1.032,1,0,1.872435,5.364784,5.443587,0.000000,4.301937,0.00004
1.033,1,0,1.883259,5.366870,5.446509,0.000000,4.300150,-0.00014
1.034,1,0,1.894082,5.368956,5.449432,0.000000,4.298579,0.00028
1.035,1,0,1.894388,5.370929,5.452437,0.000000,4.299290,0.00013
1.036,1,0,1.888410,5.372836,5.455492,0.000000,4.300941,-0.00001
1.037,1,0,1.882432,5.374742,5.458546,0.000000,4.303751,0.00016
1.038,1,0,1.876454,5.376648,5.461600,0.000000,4.307038,0.00031
1.039,1,0,1.865994,5.378430,5.464702,0.000000,4.309590,0.00000
1.040,1,0,1.852856,5.380137,5.467833,0.000000,4.311839,0.00028
1.041,1,0,1.839718,5.381845,5.470963,0.000000,4.311663,0.00013
1.042,1,0,1.826581,5.383552,5.474094,0.000000,4.310487,0.00027
1.043,1,0,1.824329,5.385299,5.477211,0.000000,4.306207,0.00013
1.044,1,0,1.828580,5.387071,5.480320,0.000000,4.300646,0.00015
1.045,1,0,1.832832,5.388843,5.483429,0.000000,4.295609,0.00015
1.046,1,0,1.837084,5.390615,5.486538,0.000000,4.290786,-0.00001
1.047,1,0,1.853395,5.392493,5.489564,0.000000,4.290016,0.00014
1.048,1,0,1.876912,5.394433,5.492540,0.000000,4.290917,0.00000
1.049,1,0,1.900429,5.396374,5.495516,0.000000,4.293451,0.00000
1.050,1,0,1.923945,5.398314,5.498492,0.000000,4.296657,-0.00015
1.051,1,0,1.961598,5.400068,5.501411,0.000000,4.298153,-0.00014
1.052,1,0,2.007698,5.401711,5.504297,0.000000,4.298944,0.00013
1.053,1,0,2.053797,5.403355,5.507184,0.000000,4.298113,-0.00015
1.054,1,0,2.099896,5.404997,5.510069,0.000000,4.296614,0.00014
1.055,1,0,2.150487,5.407064,5.513001,0.000000,4.294512,0.00001
1.056,1,0,2.203761,5.409384,5.515960,0.000000,4.292161,-0.00012
1.057,1,0,2.257035,5.411704,5.518919,0.000000,4.290036,0.00001
1.058,1,0,2.310309,5.414024,5.521877,0.000000,4.288003,0.00002
1.059,1,0,2.353758,5.416489,5.524979,0.000000,4.286887,0.00001
1.060,1,0,2.391336,5.419040,5.528167,0.000000,4.286148,0.00016
1.061,1,0,2.428914,5.421591,5.531354,0.000000,4.286647,0.00001
1.062,1,0,2.466492,5.424143,5.534542,0.000000,4.287657,0.00015
1.063,1,0,2.489572,5.426826,5.537854,0.000000,4.289761,0.00029
1.064,1,0,2.503989,5.429586,5.541241,0.000000,4.292316,0.00016
1.065,1,0,2.518405,5.432348,5.544627,0.000000,4.294195,0.00015
1.066,1,0,2.532822,5.435109,5.548014,0.000000,4.295794,0.00001
1.067,1,0,2.537017,5.437769,5.551369,0.000000,4.295224,0.00018
1.068,1,0,2.535105,5.440370,5.554706,0.000000,4.293759,0.00028
1.069,1,0,2.533192,5.442970,5.558042,0.000000,4.291970,0.00016
1.070,1,0,2.531280,5.445570,5.561378,0.000000,4.290048,0.00014
1.071,1,0,2.533550,5.448011,5.564462,0.000000,4.290061,-0.00014
1.072,1,0,2.538318,5.450357,5.567395,0.000000,4.290873,0.00000
1.073,1,0,2.543087,5.452703,5.570327,0.000000,4.293471,0.00014
1.074,1,0,2.547855,5.455049,5.573260,0.000000,4.296806,-0.00027
1.075,1,0,2.564782,5.457341,5.575797,0.000000,4.300828,0.00000
1.076,1,0,2.588974,5.459601,5.578098,0.000000,4.305132,0.00000
1.077,1,0,2.613167,5.461861,5.580400,0.000000,4.307796,0.00015
1.078,1,0,2.637359,5.464121,5.582701,0.000000,4.309783,0.00014
1.079,1,0,2.662656,5.466804,5.584460,0.000000,4.308533,0.00013
1.080,1,0,2.688614,5.469738,5.585894,0.000000,4.305948,-0.00015
1.081,1,0,2.714572,5.472672,5.587327,0.000000,4.303407,0.00014
1.082,1,0,2.740530,5.475607,5.588761,0.000000,4.300885,0.00000
1.083,1,0,2.754715,5.478549,5.589682,0.000000,4.301744,0.00000
1.084,1,0,2.761868,5.481496,5.590295,0.000000,4.303998,-0.00012
1.085,1,0,2.769020,5.484443,5.590908,0.000000,4.306990,-0.00015
1.086,1,0,2.776173,5.487390,5.591521,0.000000,4.310284,0.00014
1.087,1,0,2.757841,5.490362,5.591717,0.000000,4.311015,0.00013
1.088,1,0,2.724284,5.493349,5.591665,0.000000,4.310689,0.00014
1.089,1,0,2.690726,5.496336,5.591612,0.000000,4.309186,0.00001
1.090,1,0,2.657169,5.499323,5.591560,0.000000,4.307198,-0.00014
1.091,1,0,2.592051,5.502017,5.591218,0.000000,4.306009,0.00028
1.092,1,0,2.508078,5.504535,5.590702,0.000000,4.305149,0.00014
1.093,1,0,2.424105,5.507054,5.590187,0.000000,4.303729,-0.00013
1.094,1,0,2.340132,5.509572,5.589671,0.000000,4.302079,0.00016
1.095,1,0,2.234659,5.512002,5.588901,0.000000,4.298489,-0.00001
1.096,1,0,2.116342,5.514381,5.587977,0.000000,4.294099,0.00015
1.097,1,0,1.998024,5.516759,5.587054,0.000000,4.290552,0.00001
1.098,1,0,1.879706,5.519138,5.586131,0.000000,4.287353,0.00013
1.099,1,0,1.750108,5.521050,5.584893,0.000000,4.287743,0.00016
1.100,1,0,1.613770,5.522685,5.583466,0.000000,4.289614,0.00015
1.101,1,0,1.477432,5.524319,5.582039,0.000000,2.771443,0.00016
1.102,0,0,1.341093,5.525952,5.580612,0.000000,0.626363,0.00000
1.103,0,0,1.215753,5.527080,5.578829,0.000000,0.000000,-0.00013
1.104,0,0,1.096983,5.527905,5.576834,0.000000,0.000000,0.00001
1.105,0,0,0.978214,5.528731,5.574838,0.000000,0.000000,0.00014
1.106,0,0,0.859444,5.529556,5.572843,0.000000,0.000000,0.00001
1.107,0,0,0.758721,5.530061,5.570593,0.000000,0.000000,0.00014
1.108,0,0,0.668780,5.530375,5.568192,0.000000,0.000000,0.00000
1.109,0,0,0.578839,5.530689,5.565791,0.000000,0.000000,-0.00016
1.110,0,0,0.488898,5.531003,5.563390,0.000000,0.000000,-0.00001
1.111,0,0,0.417959,5.531245,5.560905,0.000000,0.000000,-0.00013
1.112,0,0,0.358371,5.531446,5.558369,0.000000,0.000000,0.00000
1.113,0,0,0.298784,5.531647,5.555833,0.000000,0.000000,-0.00014
1.114,0,0,0.239197,5.531847,5.553297,0.000000,0.000000,0.00014
1.115,0,0,0.187001,5.532120,5.550869,0.000000,0.000000,-0.00001
1.116,0,0,0.139220,5.532435,5.548503,0.000000,0.000000,0.00013
1.117,0,0,0.091439,5.532751,5.546139,0.000000,0.000000,0.00001
1.118,0,0,0.043659,5.533066,5.543774,0.000000,0.000000,-0.00029
1.119,0,0,-0.003097,5.533187,5.541595,0.000000,0.000000,0.00016
1.120,0,0,-0.049241,5.533191,5.539529,0.000000,0.000000,-0.00024
1.121,0,0,-0.095385,5.533196,5.537462,0.000000,0.000000,0.00015
1.122,0,0,-0.141529,5.533200,5.535395,0.000000,0.000000,0.00000
1.123,0,0,-0.181566,5.532948,5.533525,0.000000,0.000000,0.00001
1.124,0,0,-0.217955,5.532540,5.531772,0.000000,0.000000,-0.00014
1.125,0,0,-0.254343,5.532133,5.530020,0.000000,0.000000,0.00016
1.126,0,0,-0.290732,5.531726,5.528267,0.000000,0.000000,-0.00014
1.127,0,0,-0.312803,5.531229,5.526642,0.000000,0.000000,0.00028
1.128,0,0,-0.326321,5.530677,5.525092,0.000000,0.000000,0.00001
1.129,0,0,-0.339839,5.530126,5.523542,0.000000,0.000000,0.00016
1.130,0,0,-0.353357,5.529575,5.521993,0.000000,0.000000,0.00000
1.131,0,0,-0.353501,5.529102,5.520445,0.000000,0.000000,0.00013
1.132,0,0,-0.345656,5.528675,5.518898,0.000000,0.000000,0.00002
1.133,0,0,-0.337810,5.528248,5.517351,0.000000,0.000000,0.00014
1.134,0,0,-0.329965,5.527822,5.515803,0.000000,0.000000,0.00001
1.135,0,0,-0.317323,5.527506,5.514105,0.000000,0.000000,0.00014
1.136,0,0,-0.301816,5.527258,5.512315,0.000000,0.000000,-0.00014
1.137,0,0,-0.286309,5.527010,5.510526,0.000000,0.000000,0.00028
1.138,0,0,-0.270802,5.526762,5.508737,0.000000,0.000000,0.00016
1.139,0,0,-0.262453,5.526631,5.506714,0.000000,0.000000,-0.00027
1.140,0,0,-0.258380,5.526570,5.504551,0.000000,0.000000,-0.00001
1.141,0,0,-0.254307,5.526509,5.502389,0.000000,0.000000,0.00002
1.142,0,0,-0.250234,5.526448,5.500226,0.000000,0.000000,0.00016
1.143,0,0,-0.262182,5.526257,5.497813,0.000000,0.000000,-0.00029
1.144,0,0,-0.283701,5.525989,5.495250,0.000000,0.000000,0.00015
1.145,0,0,-0.305221,5.525721,5.492686,0.000000,0.000000,0.00014
1.146,0,0,-0.326741,5.525453,5.490123,0.000000,0.000000,-0.00029
1.147,0,0,-0.364039,5.525158,5.487303,0.000000,0.000000,-0.00013
1.148,0,0,-0.410764,5.524846,5.484330,0.000000,0.000000,-0.00013
1.149,0,0,-0.457489,5.524535,5.481358,0.000000,0.000000,-0.00014
1.150,0,0,-0.504214,5.524223,5.478385,0.000000,0.000000,0.00000
1.151,0,0,-0.567343,5.523824,5.475097,0.000000,0.000000,0.00013
1.152,0,0,-0.640272,5.523373,5.471622,0.000000,0.000000,0.00018
1.153,0,0,-0.713201,5.522922,5.468146,0.000000,0.000000,-0.00001
1.154,0,0,-0.786129,5.522471,5.464671,0.000000,0.000000,0.00000
1.155,0,0,-0.870249,5.521673,5.460827,0.000000,0.000000,-0.00015
1.156,0,0,-0.961054,5.520666,5.456763,0.000000,0.000000,0.00000
1.157,0,0,-1.051859,5.519660,5.452699,0.000000,0.000000,0.00015
1.158,0,0,-1.142664,5.518653,5.448635,0.000000,0.000000,0.00015
1.159,0,0,-1.239045,5.517424,5.444224,0.000000,0.000000,0.00002
1.160,0,0,-1.338756,5.516061,5.439607,0.000000,0.000000,0.00000
1.161,0,0,-1.438467,5.514699,5.434990,0.000000,0.000000,-0.00015
1.162,0,0,-1.538178,5.513336,5.430373,0.000000,0.000000,0.00014
1.163,0,0,-1.639669,5.511717,5.425471,0.000000,0.000000,0.00015
1.164,0,0,-1.742224,5.509945,5.420398,0.000000,0.000000,-0.00014
1.165,0,0,-1.844779,5.508173,5.415325,0.000000,0.000000,0.00013
1.166,0,0,-1.947334,5.506400,5.410252,0.000000,0.000000,0.00014
1.167,0,0,-2.044055,5.504326,5.405060,0.000000,0.000000,-0.00029
1.168,0,0,-2.137292,5.502072,5.399797,0.000000,0.000000,-0.00014
1.169,0,0,-2.230528,5.499818,5.394534,0.000000,0.000000,0.00002
1.170,0,0,-2.323765,5.497563,5.389270,0.000000,0.000000,0.00027
1.171,0,0,-2.414705,5.495137,5.384021,2.221071,0.000000,-0.00002
1.172,0,0,-2.504273,5.492609,5.378779,5.358178,0.000000,-0.00014
1.173,0,1,-2.593842,5.490080,5.373538,6.270835,0.000000,0.00000
1.174,0,1,-2.683410,5.487552,5.368296,6.266064,0.000000,0.00014
1.175,0,1,-2.764843,5.484753,5.363187,6.260324,0.000000,0.00000
1.176,0,1,-2.841415,5.481793,5.358157,6.254185,0.000000,0.00002
1.177,0,1,-2.917987,5.478834,5.353126,6.247383,0.000000,-0.00013
1.178,0,1,-2.994559,5.475874,5.348096,6.240308,0.000000,0.00014
1.179,0,1,-3.056405,5.472808,5.343313,6.233067,0.000000,0.00002
1.180,0,1,-3.109453,5.469680,5.338678,6.225757,0.000000,0.00001
1.181,0,1,-3.162502,5.466552,5.334044,6.219601,0.000000,0.00001
1.182,0,1,-3.215550,5.463424,5.329409,6.213920,0.000000,-0.00001
1.183,0,1,-3.252617,5.460000,5.325106,6.210464,0.000000,0.00016
1.184,0,1,-3.280137,5.456399,5.321001,6.207927,0.000000,0.00015
1.185,0,1,-3.307657,5.452799,5.316896,6.206514,0.000000,-0.00013
1.186,0,1,-3.335177,5.449199,5.312791,6.205566,0.000000,0.00029
1.187,0,1,-3.343640,5.445660,5.309072,6.204433,0.000000,0.00031
1.188,0,1,-3.340717,5.442158,5.305583,6.203225,0.000000,0.00000
1.189,0,1,-3.337794,5.438656,5.302095,6.202349,0.000000,0.00028
1.190,0,1,-3.334870,5.435154,5.298607,6.201611,0.000000,0.00015
1.191,0,1,-3.321307,5.431849,5.295455,6.201908,0.000000,0.00013
1.192,0,1,-3.301387,5.428663,5.292502,6.202632,0.000000,0.00000
1.193,0,1,-3.281466,5.425476,5.289550,6.203593,0.000000,0.00015
1.194,0,1,-3.261546,5.422289,5.286598,6.204652,0.000000,0.00001
1.195,0,1,-3.231114,5.419064,5.283916,6.205062,0.000000,0.00013
1.196,0,1,-3.194403,5.415815,5.281394,6.205204,0.000000,-0.00014
1.197,0,1,-3.157691,5.412566,5.278873,6.205326,0.000000,-0.00002
1.198,0,1,-3.120980,5.409317,5.276351,6.205441,0.000000,0.00043
1.199,0,1,-3.077512,5.406153,5.273998,6.206305,0.000000,-0.00014
1.200,0,1,-3.030007,5.403041,5.271745,6.207478,0.000000,-0.00015
1.201,0,1,-2.982502,5.399928,5.269492,6.208854,0.000000,0.00015
1.202,0,1,-2.934997,5.396816,5.267240,6.210314,0.000000,-0.00014
1.203,0,1,-2.880810,5.393828,5.265029,6.211212,0.000000,0.00001
1.204,0,1,-2.822631,5.390915,5.262844,6.211879,0.000000,0.00000
1.205,0,1,-2.764452,5.388002,5.260659,6.211925,0.000000,0.00013
1.206,0,1,-2.706273,5.385090,5.258473,6.211713,0.000000,0.00000
1.207,0,1,-2.648002,5.382434,5.256300,6.211054,0.000000,0.00001
1.208,0,1,-2.589676,5.379933,5.254136,6.210209,0.000000,0.00002
1.209,0,1,-2.531351,5.377431,5.251970,6.209244,0.000000,-0.00013
1.210,0,1,-2.473025,5.374930,5.249805,6.208229,0.000000,-0.00001
1.211,0,1,-2.430646,5.372590,5.247573,6.207414,0.000000,0.00000
1.212,0,1,-2.397794,5.370347,5.245300,6.206682,0.000000,0.00002
1.213,0,1,-2.364942,5.368104,5.243028,6.206248,0.000000,0.00031
1.214,0,1,-2.332089,5.365861,5.240755,6.205938,0.000000,-0.00013
1.215,0,1,-2.319358,5.363763,5.238337,6.206074,0.000000,-0.00016
1.216,0,1,-2.318648,5.361752,5.235831,6.206393,0.000000,0.00043
1.217,0,1,-2.317938,5.359741,5.233325,6.207801,0.000000,0.00002
1.218,0,1,-2.317227,5.357730,5.230819,6.209659,0.000000,0.00013
1.219,0,1,-2.335189,5.355588,5.228134,6.212790,0.000000,0.00029
1.220,0,1,-2.364306,5.353367,5.225341,6.216445,0.000000,0.00001
1.221,0,1,-2.393423,5.351147,5.222548,6.218835,0.000000,0.00014
1.222,0,1,-2.422539,5.348926,5.219756,6.220703,0.000000,0.00014
1.223,0,1,-2.462152,5.346394,5.216737,6.219036,0.000000,-0.00001
1.224,0,1,-2.508035,5.343676,5.213585,6.215910,0.000000,0.00000
1.225,0,1,-2.553918,5.340957,5.210432,6.211679,0.000000,0.00002
1.226,0,1,-2.599802,5.338239,5.207280,6.206992,0.000000,0.00001
1.227,0,1,-2.643519,5.335542,5.203843,6.204111,0.000000,0.00000
1.228,0,1,-2.685942,5.332858,5.200237,6.201973,0.000000,0.00016
1.229,0,1,-2.728366,5.330173,5.196630,6.200712,0.000000,-0.00013
1.230,0,1,-2.770790,5.327489,5.193024,6.199811,0.000000,0.00001
1.231,0,1,-2.810729,5.324763,5.189116,6.198269,0.000000,-0.00012
1.232,0,1,-2.849184,5.322012,5.185027,6.196463,0.000000,-0.00014
1.233,0,1,-2.887639,5.319262,5.180938,6.194748,0.000000,0.00015
1.234,0,1,-2.926094,5.316511,5.176849,6.193072,0.000000,0.00016
1.235,0,1,-2.961645,5.313453,5.172575,6.192509,0.000000,-0.00014
1.236,0,1,-2.995460,5.310211,5.168190,6.192406,0.000000,-0.00028
1.237,0,1,-3.029276,5.306969,5.163805,6.192878,0.000000,0.00001
1.238,0,1,-3.063092,5.303727,5.159420,6.193588,0.000000,0.00001
1.239,0,1,-3.098507,5.300640,5.154957,6.194133,0.000000,0.00028
1.240,0,1,-3.134878,5.297647,5.150447,6.194611,0.000000,0.00000
1.241,0,1,-3.171250,5.294653,5.145937,6.195277,0.000000,0.00014
1.242,0,1,-3.207621,5.291659,5.141427,6.196021,0.000000,0.00042
1.243,0,1,-3.242901,5.288516,5.137023,6.197351,0.000000,0.00000
1.244,0,1,-3.277529,5.285282,5.132681,6.198922,0.000000,0.00000
1.245,0,1,-3.312156,5.282049,5.128340,6.200271,0.000000,0.00014
1.246,0,1,-3.346784,5.278815,5.123999,6.201527,0.000000,0.00001
1.247,0,1,-3.381693,5.275384,5.119906,6.201850,0.000000,0.00014
1.248,0,1,-3.416771,5.271835,5.115963,6.201789,0.000000,0.00000
1.249,0,1,-3.451848,5.268285,5.112020,6.202065,0.000000,0.00000
1.250,0,1,-3.486925,5.264736,5.108077,6.202482,0.000000,0.00014
1.251,0,1,-3.519378,5.261130,5.104381,6.204461,0.000000,0.00013
1.252,0,1,-3.550264,5.257490,5.100832,6.207085,0.000000,-0.00001
1.253,0,1,-3.581149,5.253850,5.097284,6.209749,0.000000,0.00014
1.254,0,1,-3.612034,5.250209,5.093735,6.212429,0.000000,0.00000
1.255,0,1,-3.630394,5.246683,5.090398,6.213485,0.000000,-0.00001
1.256,0,1,-3.641272,5.243224,5.087186,6.213872,0.000000,0.00000
1.257,0,1,-3.652150,5.239765,5.083975,6.213857,0.000000,-0.00014
1.258,0,1,-3.663028,5.236306,5.080764,6.213675,0.000000,0.00014
1.259,0,1,-3.657709,5.232475,5.077772,6.214639,0.000000,0.00001
1.260,0,1,-3.642714,5.228421,5.074911,6.216077,0.000000,0.00001
1.261,0,1,-3.627718,5.224367,5.072049,6.218013,0.000000,0.00001
1.262,0,1,-3.612722,5.220314,5.069188,6.220155,0.000000,0.00001
1.263,0,1,-3.580050,5.216452,5.066540,6.221800,0.000000,0.00014
1.264,0,1,-3.536817,5.212706,5.064020,6.223240,0.000000,0.00016
1.265,0,1,-3.493584,5.208960,5.061499,6.224425,0.000000,-0.00013
1.266,0,1,-3.450351,5.205214,5.058978,6.225505,0.000000,-0.00014
1.267,0,1,-3.398470,5.201844,5.056681,6.226704,0.000000,0.00015
1.268,0,1,-3.341424,5.198699,5.054518,6.227952,0.000000,0.00002
1.269,0,1,-3.284377,5.195554,5.052355,6.228711,0.000000,0.00015
1.270,0,1,-3.227330,5.192409,5.050192,6.229268,0.000000,0.00001
1.271,0,1,-3.169620,5.189331,5.048292,6.228825,0.000000,0.00015
1.272,0,1,-3.111513,5.186294,5.046547,6.227969,0.000000,0.00002
1.273,0,1,-3.053406,5.183256,5.044804,6.227300,0.000000,0.00001
1.274,0,1,-2.995299,5.180219,5.043059,6.226707,0.000000,0.00028
1.275,0,1,-2.946013,5.177270,5.041567,6.227543,0.000000,0.00013
1.276,0,1,-2.901997,5.174375,5.040226,6.228968,0.000000,0.00015
1.277,0,1,-2.857982,5.171480,5.038884,6.231145,0.000000,-0.00013
1.278,0,1,-2.813966,5.168585,5.037543,6.233634,0.000000,-0.00001
1.279,0,1,-2.775779,5.165882,5.036347,6.235911,0.000000,0.00001
1.280,0,1,-2.741074,5.163294,5.035239,6.238102,0.000000,-0.00014
1.281,0,1,-2.706369,5.160706,5.034131,6.240263,0.000000,-0.00013
1.282,0,1,-2.671664,5.158118,5.033022,6.242412,0.000000,0.00014
1.283,0,1,-2.635590,5.155477,5.032041,6.244816,0.000000,0.00001
1.284,0,1,-2.598697,5.152804,5.031136,6.247327,0.000000,-0.00001
1.285,0,1,-2.561805,5.150131,5.030231,6.249379,0.000000,-0.00013
1.286,0,1,-2.524912,5.147459,5.029325,6.251243,0.000000,0.00028
1.287,0,1,-2.489115,5.144860,5.028449,6.251946,0.000000,0.00001
1.288,0,1,-2.453973,5.142304,5.027589,6.252171,0.000000,0.00013
1.289,0,1,-2.418831,5.139750,5.026730,6.251861,0.000000,0.00016
1.290,0,1,-2.383689,5.137194,5.025870,6.251331,0.000000,0.00001
1.291,0,1,-2.349076,5.134871,5.024976,6.251071,0.000000,0.00000
1.292,0,1,-2.314779,5.132688,5.024062,6.250923,0.000000,0.00014
1.293,0,1,-2.280481,5.130503,5.023148,6.250961,0.000000,0.00015
1.294,0,1,-2.246183,5.128319,5.022233,6.251076,0.000000,0.00004
1.295,0,1,-2.215153,5.126244,5.021320,6.251003,0.000000,0.00014
1.296,0,1,-2.186073,5.124233,5.020408,6.250853,0.000000,0.00015
1.297,0,1,-2.156993,5.122222,5.019495,6.249965,0.000000,-0.00012
1.298,0,1,-2.127913,5.120212,5.018583,6.248773,0.000000,-0.00001
1.299,0,1,-2.105343,5.118036,5.017748,6.246690,0.000000,-0.00012
1.300,0,1,-2.086662,5.115762,5.016959,6.244240,0.000000,0.00029
1.301,0,1,-2.067981,5.113487,5.016171,6.242765,0.000000,-0.00015
1.302,0,1,-2.049300,5.111213,5.015382,6.241693,0.000000,-0.00012
1.303,0,1,-2.032101,5.109182,5.014737,6.243184,0.000000,0.00032
1.304,0,1,-2.015786,5.107298,5.014176,6.245732,0.000000,0.00013
1.305,0,1,-1.999472,5.105413,5.013616,6.248593,0.000000,-0.00029
1.306,0,1,-1.983158,5.103529,5.013056,6.251583,0.000000,0.00000
1.307,0,1,-1.968530,5.101662,5.012652,6.252301,0.000000,-0.00014
1.308,0,1,-1.954911,5.099805,5.012341,6.252083,0.000000,0.00014
1.309,0,1,-1.941291,5.097948,5.012030,6.250404,0.000000,0.00014
1.310,0,1,-1.927671,5.096091,5.011719,6.248124,0.000000,0.00014
1.311,0,1,-1.908817,5.094074,5.011567,6.245874,0.000000,0.00012
1.312,0,1,-1.886835,5.091963,5.011510,6.243639,0.000000,0.00014
1.313,0,1,-1.864854,5.089851,5.011453,6.241662,0.000000,0.00014
1.314,0,1,-1.842872,5.087739,5.011396,6.239791,0.000000,0.00015
1.315,0,1,-1.815671,5.085875,5.011442,6.238127,0.000000,-0.00027
1.316,0,1,-1.785352,5.084157,5.011550,6.236548,0.000000,0.00001
1.317,0,1,-1.755033,5.082440,5.011658,6.235483,0.000000,0.00001
1.318,0,1,-1.724715,5.080722,5.011765,6.234628,0.000000,0.00028
1.319,0,1,-1.683757,5.079024,5.011909,4.027409,0.000000,0.00014
1.320,0,1,-1.636443,5.077337,5.012072,0.910219,0.000000,-0.00013
1.321,0,0,-1.589130,5.075651,5.012235,0.000000,0.000000,0.00001
1.322,0,0,-1.541816,5.073964,5.012399,0.000000,0.000000,0.00000
1.323,0,0,-1.482575,5.072358,5.012637,0.000000,0.000000,0.00000
1.324,0,0,-1.416207,5.070802,5.012920,0.000000,0.000000,0.00016
1.325,0,0,-1.349840,5.069245,5.013203,0.000000,0.000000,0.00013
1.326,0,0,-1.283473,5.067688,5.013486,0.000000,0.000000,0.00014
1.327,0,0,-1.219120,5.066384,5.013816,0.000000,0.000000,-0.00012
1.328,0,0,-1.155972,5.065229,5.014174,0.000000,0.000000,0.00001
1.329,0,0,-1.092823,5.064075,5.014531,0.000000,0.000000,0.00015
1.330,0,0,-1.029675,5.062921,5.014889,0.000000,0.000000,0.00001
1.331,0,0,-0.971470,5.062048,5.015285,0.000000,0.000000,0.00029
1.332,0,0,-0.916219,5.061344,5.015705,0.000000,0.000000,0.00015
1.333,0,0,-0.860968,5.060640,5.016125,0.000000,0.000000,0.00001
1.334,0,0,-0.805717,5.059936,5.016545,0.000000,0.000000,0.00001
1.335,0,0,-0.762199,5.059378,5.017002,0.000000,0.000000,0.00000
1.336,0,0,-0.725691,5.058906,5.017481,0.000000,0.000000,-0.00015
1.337,0,0,-0.689183,5.058434,5.017960,0.000000,0.000000,0.00014
1.338,0,0,-0.652675,5.057962,5.018439,0.000000,0.000000,0.00014
1.339,0,0,-0.629472,5.057313,5.018887,0.000000,0.000000,0.00029
1.340,0,0,-0.614219,5.056560,5.019316,0.000000,0.000000,0.00029
1.341,0,0,-0.598965,5.055806,5.019745,0.000000,0.000000,0.00013
1.342,0,0,-0.583711,5.055052,5.020175,0.000000,0.000000,0.00028
1.343,0,0,-0.572218,5.054444,5.020537,0.000000,0.000000,-0.00027
1.344,0,0,-0.562972,5.053925,5.020860,0.000000,0.000000,0.00013
1.345,0,0,-0.553726,5.053404,5.021182,0.000000,0.000000,0.00000
1.346,0,0,-0.544479,5.052885,5.021505,0.000000,0.000000,0.00000
1.347,0,0,-0.539817,5.052447,5.021680,0.000000,0.000000,0.00000
1.348,0,0,-0.537892,5.052058,5.021767,0.000000,0.000000,-0.00015
1.349,0,0,-0.535967,5.051669,5.021854,0.000000,0.000000,0.00000
1.350,0,0,-0.534042,5.051280,5.021941,0.000000,0.000000,-0.00014
1.351,0,0,-0.531311,5.050704,5.021864,0.000000,0.000000,0.00015
1.352,0,0,-0.528097,5.050014,5.021690,0.000000,0.000000,0.00001
1.353,0,0,-0.524883,5.049325,5.021516,0.000000,0.000000,-0.00015
1.354,0,0,-0.521670,5.048636,5.021342,0.000000,0.000000,0.00002
1.355,0,0,-0.520765,5.048122,5.021017,0.000000,0.000000,-0.00012
1.356,0,0,-0.521239,5.047715,5.020601,0.000000,0.000000,-0.00014
1.357,0,0,-0.521713,5.047307,5.020185,0.000000,0.000000,0.00028
1.358,0,0,-0.522188,5.046899,5.019769,0.000000,0.000000,0.00028
1.359,0,0,-0.526339,5.046398,5.019227,0.000000,0.000000,0.00032
1.360,0,0,-0.532687,5.045842,5.018610,0.000000,0.000000,0.00013
1.361,0,0,-0.539035,5.045286,5.017992,0.000000,0.000000,-0.00002
1.362,0,0,-0.545383,5.044730,5.017375,0.000000,0.000000,0.00000
1.363,0,0,-0.549162,5.044181,5.016751,0.000000,0.000000,0.00029
1.364,0,0,-0.551407,5.043637,5.016123,0.000000,0.000000,0.00002
1.365,0,0,-0.553652,5.043092,5.015496,0.000000,0.000000,0.00015
1.366,0,0,-0.555898,5.042548,5.014868,0.000000,0.000000,-0.00001
1.367,0,0,-0.563816,5.042019,5.014265,0.000000,0.000000,-0.00001
1.368,0,0,-0.575123,5.041499,5.013675,0.000000,0.000000,-0.00001
1.369,0,0,-0.586431,5.040978,5.013086,0.000000,0.000000,0.00000
1.370,0,0,-0.597738,5.040458,5.012497,0.000000,0.000000,-0.00014
1.371,0,0,-0.606695,5.039809,5.011977,0.000000,0.000000,-0.00001
1.372,0,0,-0.614247,5.039083,5.011498,0.000000,0.000000,0.00031
1.373,0,0,-0.621800,5.038357,5.011020,0.000000,0.000000,0.00000
1.374,0,0,-0.629352,5.037631,5.010541,0.000000,0.000000,0.00001
1.375,0,0,-0.635757,5.037037,5.010166,0.000000,0.000000,-0.00001
1.376,0,0,-0.641477,5.036522,5.009851,0.000000,0.000000,-0.00029
1.377,0,0,-0.647196,5.036007,5.009537,0.000000,0.000000,0.00029
1.378,0,0,-0.652916,5.035493,5.009223,0.000000,0.000000,0.00031
1.379,0,0,-0.657365,5.034793,5.008995,0.000000,0.000000,-0.00013
1.380,0,0,-0.661056,5.033983,5.008819,0.000000,0.000000,0.00018
1.381,1,0,-0.664746,5.033172,5.008642,0.000000,1.430629,0.00001
1.382,1,0,-0.668437,5.032362,5.008466,0.000000,3.451293,0.00014
1.383,1,0,-0.663048,5.031647,5.008370,0.000000,4.039572,-0.00028
1.384,1,0,-0.652235,5.030989,5.008323,0.000000,4.037095,-0.00014
1.385,1,0,-0.641421,5.030330,5.008275,0.000000,4.033362,0.00031
1.386,1,0,-0.630608,5.029672,5.008227,0.000000,4.029113,-0.00013
1.387,1,0,-0.614066,5.029053,5.008223,0.000000,4.026527,-0.00013
1.388,1,0,-0.594101,5.028456,5.008245,0.000000,4.024627,0.00014
1.389,1,0,-0.574136,5.027859,5.008266,0.000000,4.024085,0.00015
1.390,1,0,-0.554171,5.027263,5.008288,0.000000,4.024101,0.00015
1.391,1,0,-0.525307,5.026612,5.008405,0.000000,4.024373,0.00015
1.392,1,0,-0.491126,5.025928,5.008579,0.000000,4.024749,0.00014
1.393,1,0,-0.456945,5.025245,5.008754,0.000000,4.024806,0.00001
1.394,1,0,-0.422764,5.024561,5.008928,0.000000,4.024732,0.00016
1.395,1,0,-0.389543,5.024148,5.009230,0.000000,4.024166,0.00014
1.396,1,0,-0.356894,5.023896,5.009608,0.000000,4.023396,0.00014
1.397,1,0,-0.324246,5.023644,5.009987,0.000000,4.023087,0.00000
1.398,1,0,-0.291597,5.023392,5.010365,0.000000,4.022969,-0.00015
1.399,1,0,-0.263653,5.023242,5.010901,0.000000,4.023975,-0.00015
1.400,1,0,-0.238520,5.023152,5.011531,0.000000,4.025444,0.00000
1.401,1,0,-0.213387,5.023063,5.012161,0.000000,4.025924,-0.00013
1.402,1,0,-0.188254,5.022973,5.012791,0.000000,4.025997,0.00000
1.403,1,0,-0.170166,5.022888,5.013625,0.000000,4.023253,-0.00013
1.404,1,0,-0.156288,5.022805,5.014581,0.000000,4.019346,0.00000
1.405,1,0,-0.142410,5.022722,5.015537,0.000000,4.015613,0.00002
1.406,1,0,-0.128532,5.022639,5.016494,0.000000,4.011951,0.00000
1.407,1,0,-0.119200,5.022483,5.017611,0.000000,4.011632,0.00000
1.408,1,0,-0.112584,5.022285,5.018825,0.000000,4.012692,-0.00015
1.409,1,0,-0.105968,5.022086,5.020039,0.000000,4.014903,0.00001
1.410,1,0,-0.099352,5.021888,5.021253,0.000000,4.017589,0.00001
1.411,1,0,-0.087815,5.021786,5.022552,0.000000,4.018542,0.00000
1.412,1,0,-0.073339,5.021742,5.023904,0.000000,4.018780,0.00002
1.413,1,0,-0.058862,5.021698,5.025256,0.000000,4.018116,-0.00009
1.414,1,0,-0.044386,5.021654,5.026608,0.000000,4.017080,0.00000
1.415,1,0,-0.021788,5.021564,5.027993,0.000000,4.016676,-0.00014
1.416,1,0,0.005663,5.021448,5.029397,0.000000,4.016534,-0.00001
1.417,1,0,0.033113,5.021332,5.030803,0.000000,4.016990,0.00002
1.418,1,0,0.060564,5.021216,5.032207,0.000000,4.017693,-0.00001
1.419,1,0,0.096716,5.021206,5.033639,0.000000,4.018745,0.00014
1.420,1,0,0.138066,5.021259,5.035088,0.000000,4.019940,-0.00001
1.421,1,0,0.179417,5.021312,5.036536,0.000000,4.022263,0.00013
1.422,1,0,0.220768,5.021366,5.037983,0.000000,4.025050,0.00000
1.423,1,0,0.266012,5.021628,5.039510,0.000000,4.029402,0.00028
1.424,1,0,0.313581,5.022014,5.041083,0.000000,4.034400,-0.00015
1.425,1,0,0.361151,5.022401,5.042656,0.000000,4.038549,0.00013
1.426,1,0,0.408720,5.022788,5.044229,0.000000,4.042346,-0.00014
1.427,1,0,0.455027,5.023278,5.046064,0.000000,4.042994,0.00014
1.428,1,0,0.500580,5.023830,5.048056,0.000000,4.042344,-0.00001
1.429,1,0,0.546133,5.024382,5.050048,0.000000,4.040420,-0.00014
1.430,1,0,0.591686,5.024934,5.052040,0.000000,4.037970,-0.00015
1.431,1,0,0.624307,5.025570,5.054407,0.000000,4.036757,-0.00015
1.432,1,0,0.649201,5.026258,5.056999,0.000000,4.036052,-0.00015
1.433,1,0,0.674096,5.026945,5.059591,0.000000,4.036617,0.00015
1.434,1,0,0.698991,5.027633,5.062183,0.000000,4.037705,0.00013
1.435,1,0,0.715875,5.028476,5.065123,0.000000,4.039467,0.00001
1.436,1,0,0.727972,5.029413,5.068270,0.000000,4.041506,0.00013
1.437,1,0,0.740069,5.030350,5.071417,0.000000,4.043945,0.00001
1.438,1,0,0.752167,5.031287,5.074564,0.000000,4.046549,-0.00012
1.439,1,0,0.768219,5.032192,5.077988,0.000000,4.049189,0.00015
1.440,1,0,0.786634,5.033078,5.081576,0.000000,4.051844,0.00015
1.441,1,0,0.805050,5.033964,5.085165,0.000000,4.053359,0.00002
1.442,1,0,0.823465,5.034850,5.088753,0.000000,4.054404,0.00015
1.443,1,0,0.858435,5.035409,5.092468,0.000000,4.053361,-0.00001
1.444,1,0,0.903295,5.035773,5.096259,0.000000,4.051456,0.00001
1.445,1,0,0.948155,5.036137,5.100049,0.000000,4.048583,0.00014
1.446,1,0,0.993014,5.036501,5.103840,0.000000,4.045310,0.00001
1.447,1,0,1.066263,5.037236,5.107696,0.000000,4.042534,0.00000
1.448,1,0,1.156472,5.038193,5.111589,0.000000,4.039962,0.00015
1.449,1,0,1.246681,5.039150,5.115484,0.000000,4.038267,-0.00001
1.450,1,0,1.336890,5.040107,5.119378,0.000000,4.036932,-0.00013
1.451,1,0,1.437294,5.041553,5.123312,0.000000,4.036385,0.00028
1.452,1,0,1.543787,5.043293,5.127269,0.000000,4.036162,0.00015
1.453,1,0,1.650281,5.045033,5.131227,0.000000,4.035903,0.00015
1.454,1,0,1.756775,5.046772,5.135185,0.000000,4.035627,-0.00001
1.455,1,0,1.860603,5.048655,5.139260,0.000000,4.034602,0.00015
1.456,1,0,1.962840,5.050622,5.143404,0.000000,4.033267,0.00015
1.457,1,0,2.065077,5.052589,5.147548,0.000000,4.031913,0.00015
1.458,1,0,2.167314,5.054556,5.151692,0.000000,4.030550,-0.00014
1.459,1,0,2.248535,5.057051,5.155957,0.000000,4.030144,-0.00014
1.460,1,0,2.317199,5.059861,5.160295,0.000000,4.030134,-0.00014
1.461,1,0,2.385864,5.062671,5.164632,0.000000,4.031334,0.00001
1.462,1,0,2.454528,5.065481,5.168970,0.000000,4.033034,0.00002
1.463,1,0,2.502550,5.068123,5.173371,0.000000,4.035711,0.00042
1.464,1,0,2.538238,5.070664,5.177810,0.000000,4.038792,-0.00027
1.465,1,0,2.573926,5.073205,5.182250,0.000000,4.041333,-0.00014
1.466,1,0,2.609615,5.075746,5.186689,0.000000,4.043652,-0.00001
1.467,1,0,2.638102,5.078334,5.191113,0.000000,4.044060,0.00001
1.468,1,0,2.662286,5.080951,5.195527,0.000000,4.043680,-0.00012
1.469,1,0,2.686471,5.083568,5.199941,0.000000,4.042316,-0.00001
1.470,1,0,2.710655,5.086184,5.204356,0.000000,4.040547,0.00032
1.471,1,0,2.727474,5.088916,5.208451,0.000000,4.039112,0.00000
1.472,1,0,2.739891,5.091718,5.212356,0.000000,4.037813,-0.00014
1.473,1,0,2.752309,5.094520,5.216260,0.000000,4.036989,0.00000
1.474,1,0,2.764727,5.097322,5.220165,0.000000,4.036360,0.00000
1.475,1,0,2.783963,5.100130,5.223561,0.000000,4.036066,-0.00014
1.476,1,0,2.807274,5.102942,5.226655,0.000000,4.035910,0.00000
1.477,1,0,2.830584,5.105753,5.229748,0.000000,4.036178,0.00028
1.478,1,0,2.853894,5.108565,5.232841,0.000000,4.036621,0.00029
1.479,1,0,2.872818,5.111410,5.235354,0.000000,4.037426,0.00001
1.480,1,0,2.889119,5.114276,5.237522,0.000000,4.038380,-0.00001
1.481,1,0,2.905421,5.117142,5.239689,0.000000,4.038669,0.00016
1.482,1,0,2.921723,5.120008,5.241856,0.000000,4.038683,-0.00014
1.483,1,0,2.927562,5.122886,5.243446,0.000000,4.037263,0.00015
1.484,1,0,2.927150,5.125773,5.244690,0.000000,4.035252,0.00015
1.485,1,0,2.926737,5.128659,5.245935,0.000000,4.033462,0.00012
1.486,1,0,2.926325,5.131546,5.247180,0.000000,4.031764,0.00000
1.487,1,0,2.910865,5.134707,5.247985,0.000000,4.032014,0.00001
1.488,1,0,2.886415,5.138033,5.248528,0.000000,4.033070,-0.00012
1.489,1,0,2.861964,5.141360,5.249071,0.000000,4.035039,0.00001
1.490,1,0,2.837514,5.144686,5.249614,0.000000,4.037387,-0.00014
1.491,1,0,2.784980,5.147683,5.249757,0.000000,4.039083,-0.00001
1.492,1,0,2.715667,5.150482,5.249662,0.000000,4.040511,-0.00014
1.493,1,0,2.646354,5.153282,5.249568,0.000000,2.610439,-0.00014
1.494,1,0,2.577042,5.156082,5.249473,0.000000,0.589975,0.00015
1.495,0,0,2.490211,5.158590,5.249062,0.000000,0.000000,0.00015
1.496,0,0,2.392914,5.160923,5.248463,0.000000,0.000000,0.00029
1.497,0,0,2.295616,5.163257,5.247864,0.000000,0.000000,0.00002
1.498,0,0,2.198319,5.165590,5.247264,0.000000,0.000000,0.00013
1.499,0,0,2.085523,5.167876,5.246310,0.000000,0.000000,0.00015
1.500,0,0,1.963468,5.170133,5.245144,0.000000,0.000000,0.00001
1.501,0,0,1.841413,5.172390,5.243978,0.000000,0.000000,-0.00015
1.502,0,0,1.719357,5.174646,5.242811,0.000000,0.000000,0.00001
1.503,0,0,1.602751,5.176217,5.241298,0.000000,0.000000,0.00014
1.504,0,0,1.489400,5.177378,5.239577,0.000000,0.000000,0.00000
1.505,0,0,1.376050,5.178539,5.237856,0.000000,0.000000,-0.00012
1.506,0,0,1.262699,5.179700,5.236136,0.000000,0.000000,0.00001
1.507,0,0,1.160893,5.180713,5.234118,0.000000,0.000000,0.00016
1.508,0,0,1.065985,5.181638,5.231921,0.000000,0.000000,0.00028
1.509,0,0,0.971077,5.182562,5.229725,0.000000,0.000000,0.00014
1.510,0,0,0.876169,5.183486,5.227529,0.000000,0.000000,0.00014
1.511,0,0,0.789932,5.184155,5.225042,0.000000,0.000000,0.00014
1.512,0,0,0.708875,5.184670,5.222382,0.000000,0.000000,0.00014
1.513,0,0,0.627817,5.185185,5.219721,0.000000,0.000000,0.00015
1.514,0,0,0.546760,5.185701,5.217061,0.000000,0.000000,0.00001
1.515,0,0,0.480576,5.186213,5.214252,0.000000,0.000000,0.00029
1.516,0,0,0.423279,5.186722,5.211355,0.000000,0.000000,0.00016
1.517,0,0,0.365981,5.187232,5.208457,0.000000,0.000000,0.00014
1.518,0,0,0.308684,5.187741,5.205560,0.000000,0.000000,0.00000
1.519,0,0,0.253639,5.188039,5.202610,0.000000,0.000000,-0.00014
1.520,0,0,0.199940,5.188210,5.199630,0.000000,0.000000,0.00014
1.521,0,0,0.146242,5.188380,5.196649,0.000000,0.000000,-0.00015
1.522,0,0,0.092543,5.188551,5.193669,0.000000,0.000000,0.00001
1.523,0,0,0.042412,5.188472,5.190711,0.000000,0.000000,0.00014
1.524,0,0,-0.005587,5.188243,5.187768,0.000000,0.000000,0.00029
1.525,0,0,-0.053586,5.188014,5.184825,0.000000,0.000000,-0.00002
1.526,0,0,-0.101585,5.187785,5.181882,0.000000,0.000000,-0.00001
1.527,0,0,-0.150011,5.187642,5.179029,0.000000,0.000000,0.00001
1.528,0,0,-0.198690,5.187551,5.176230,0.000000,0.000000,0.00001
1.529,0,0,-0.247370,5.187459,5.173431,0.000000,0.000000,0.00028
1.530,0,0,-0.296049,5.187368,5.170632,0.000000,0.000000,-0.00012
1.531,0,0,-0.349250,5.187141,5.167850,0.000000,0.000000,-0.00014
1.532,0,0,-0.405152,5.186833,5.165077,0.000000,0.000000,0.00029
1.533,0,0,-0.461053,5.186525,5.162304,0.000000,0.000000,0.00001
1.534,0,0,-0.516955,5.186217,5.159532,0.000000,0.000000,0.00015
1.535,0,0,-0.569194,5.185658,5.156761,0.000000,0.000000,-0.00012
1.536,0,0,-0.619245,5.184949,5.153992,0.000000,0.000000,0.00000
1.537,0,0,-0.669295,5.184240,5.151223,0.000000,0.000000,0.00015
1.538,0,0,-0.719346,5.183532,5.148454,0.000000,0.000000,0.00014
1.539,0,0,-0.768303,5.182723,5.145621,0.000000,0.000000,0.00028
1.540,0,0,-0.816608,5.181855,5.142751,0.000000,0.000000,0.00028
1.541,0,0,-0.864912,5.180986,5.139881,0.000000,0.000000,0.00014
1.542,0,0,-0.913217,5.180118,5.137010,0.000000,0.000000,0.00015
1.543,0,0,-0.955138,5.179008,5.134126,0.000000,0.000000,0.00016
1.544,0,0,-0.993245,5.177752,5.131234,0.000000,0.000000,-0.00013
1.545,0,0,-1.031352,5.176496,5.128342,0.000000,0.000000,0.00000
1.546,0,0,-1.069460,5.175241,5.125450,0.000000,0.000000,0.00002
1.547,0,0,-1.105658,5.174203,5.122595,0.000000,0.000000,0.00029
1.548,0,0,-1.140715,5.173296,5.119761,0.000000,0.000000,0.00000
1.549,0,0,-1.175773,5.172390,5.116928,0.000000,0.000000,0.00014
1.550,0,0,-1.210830,5.171483,5.114094,0.000000,0.000000,-0.00014
1.551,0,0,-1.250143,5.170352,5.111310,0.000000,0.000000,0.00026
1.552,0,0,-1.291998,5.169088,5.108554,0.000000,0.000000,-0.00014
1.553,0,0,-1.333853,5.167824,5.105798,0.000000,0.000000,0.00001
1.554,0,0,-1.375707,5.166559,5.103042,0.000000,0.000000,0.00000
1.555,0,0,-1.414001,5.165120,5.100402,0.000000,0.000000,0.00001
1.556,0,0,-1.450166,5.163577,5.097831,0.000000,0.000000,0.00000
1.557,0,0,-1.486331,5.162034,5.095260,0.000000,0.000000,-0.00013
1.558,0,0,-1.522496,5.160491,5.092689,0.000000,0.000000,-0.00012
1.559,0,0,-1.557083,5.158844,5.090277,0.000000,0.000000,-0.00013
1.560,0,0,-1.590727,5.157136,5.087960,0.000000,0.000000,0.00014
1.561,0,1,-1.624372,5.155428,5.085643,2.108467,0.000000,0.00001
1.562,0,1,-1.658016,5.153721,5.083326,5.086528,0.000000,-0.00001
1.563,0,1,-1.681154,5.151962,5.081213,5.954172,0.000000,-0.00014
1.564,0,1,-1.698014,5.150174,5.079220,5.951416,0.000000,0.00028
1.565,0,1,-1.714875,5.148385,5.077228,5.948876,0.000000,0.00000
1.566,0,1,-1.731736,5.146596,5.075236,5.946424,0.000000,0.00001
1.567,0,1,-1.740210,5.144885,5.073491,5.944135,0.000000,0.00000
1.568,0,1,-1.743675,5.143218,5.071894,5.941913,0.000000,0.00001
1.569,0,1,-1.747139,5.141552,5.070297,5.940091,0.000000,0.00000
1.570,0,1,-1.750604,5.139886,5.068700,5.938434,0.000000,0.00001
1.571,0,1,-1.747015,5.138089,5.067378,5.937311,0.000000,0.00015
1.572,0,1,-1.739212,5.136215,5.066221,5.936408,0.000000,0.00015
1.573,0,1,-1.731408,5.134340,5.065063,5.935345,0.000000,0.00001
1.574,0,1,-1.723605,5.132466,5.063906,5.934216,0.000000,0.00004
1.575,0,1,-1.708655,5.130648,5.063105,5.932346,0.000000,0.00014
1.576,0,1,-1.689435,5.128864,5.062518,5.930171,0.000000,-0.00015
1.577,0,1,-1.670215,5.127079,5.061930,5.928240,0.000000,0.00015
1.578,0,1,-1.650995,5.125295,5.061343,5.926411,0.000000,0.00001
1.579,0,1,-1.626390,5.123660,5.061123,5.925897,0.000000,0.00029
1.580,0,1,-1.598567,5.122112,5.061123,5.925926,0.000000,-0.00001
1.581,0,1,-1.570744,5.120565,5.061124,5.926719,0.000000,-0.00028
1.582,0,1,-1.542921,5.119018,5.061124,5.927827,0.000000,0.00000
1.583,0,1,-1.507051,5.117527,5.061438,5.928783,0.000000,0.00014
1.584,0,1,-1.466373,5.116070,5.061940,5.929677,0.000000,-0.00028
1.585,0,1,-1.425695,5.114614,5.062442,5.929935,0.000000,-0.00015
1.586,0,1,-1.385018,5.113157,5.062944,5.929931,0.000000,0.00001
1.587,0,1,-1.333400,5.111734,5.063683,5.929044,0.000000,0.00000
1.588,0,1,-1.275245,5.110332,5.064561,5.927793,0.000000,-0.00001
1.589,0,1,-1.217091,5.108929,5.065440,5.925931,0.000000,-0.00014
1.590,0,1,-1.158937,5.107526,5.066319,5.923818,0.000000,0.00002
1.591,0,1,-1.091344,5.106294,5.067363,5.921513,0.000000,-0.00013
1.592,0,1,-1.018112,5.105164,5.068506,5.919129,0.000000,0.00001
1.593,0,1,-0.944880,5.104034,5.069649,5.916965,0.000000,0.00029
1.594,0,1,-0.871649,5.102904,5.070792,5.914892,0.000000,0.00000
1.595,0,1,-0.793694,5.102030,5.072069,5.913306,0.000000,-0.00014
1.596,0,1,-0.712917,5.101309,5.073425,5.911922,0.000000,0.00001
1.597,0,1,-0.632140,5.100589,5.074780,5.910648,0.000000,-0.00013
1.598,0,1,-0.551364,5.099868,5.076137,5.909419,0.000000,0.00014
1.599,0,1,-0.475902,5.099507,5.077587,5.907850,0.000000,-0.00015
1.600,0,1,-0.403617,5.099361,5.079095,5.906140,0.000000,-0.00010
1.601,0,1,-0.331331,5.099215,5.080603,5.904126,0.000000,-0.00014
1.602,0,1,-0.259046,5.099069,5.082110,5.901986,0.000000,0.00013
1.603,0,1,-0.201629,5.098999,5.083620,5.899778,0.000000,-0.00013
1.604,0,1,-0.153096,5.098974,5.085132,5.897541,0.000000,0.00014
1.605,0,1,-0.104563,5.098949,5.086643,5.895752,0.000000,0.00016
1.606,0,1,-0.056030,5.098924,5.088155,5.894148,0.000000,0.00000
1.607,0,1,-0.017652,5.098952,5.089589,5.893412,0.000000,0.00014
1.608,0,1,0.014658,5.099010,5.090975,5.893034,0.000000,0.00001
1.609,0,1,0.046969,5.099070,5.092362,5.893152,0.000000,-0.00026
1.610,0,1,0.079280,5.099128,5.093749,5.893474,0.000000,0.00000
1.611,0,1,0.103397,5.099264,5.094940,5.893848,0.000000,0.00000
1.612,0,1,0.122620,5.099447,5.096015,5.894244,0.000000,0.00000
1.613,0,1,0.141842,5.099629,5.097090,5.894948,0.000000,0.00015
1.614,0,1,0.161065,5.099811,5.098166,5.895778,0.000000,0.00014
1.615,0,1,0.178139,5.099937,5.098939,5.897070,0.000000,0.00013
1.616,0,1,0.193929,5.100029,5.099534,5.898553,0.000000,0.00014
1.617,0,1,0.209719,5.100121,5.100128,5.899295,0.000000,-0.00027
1.618,0,1,0.225509,5.100212,5.100722,5.899731,0.000000,0.00013
1.619,0,1,0.236763,5.100488,5.100970,5.898359,0.000000,0.00000
1.620,0,1,0.245306,5.100873,5.101010,5.896242,0.000000,0.00001
1.621,0,1,0.253850,5.101258,5.101050,5.893596,0.000000,0.00001
1.622,0,1,0.262393,5.101644,5.101090,5.890730,0.000000,-0.00028
1.623,0,1,0.258353,5.101996,5.100776,5.888762,0.000000,0.00004
1.624,0,1,0.246795,5.102330,5.100248,5.887165,0.000000,0.00014
1.625,0,1,0.235236,5.102664,5.099721,5.885567,0.000000,0.00001
1.626,0,1,0.223678,5.102997,5.099194,5.883970,0.000000,0.00001
1.627,0,1,0.203496,5.103281,5.098421,5.881388,0.000000,0.00013
1.628,0,1,0.178161,5.103537,5.097500,5.878399,0.000000,0.00029
1.629,0,1,0.152827,5.103792,5.096579,5.876008,0.000000,0.00015
1.630,0,1,0.127492,5.104048,5.095658,5.873862,0.000000,-0.00015
1.631,0,1,0.087584,5.104239,5.094575,5.873949,0.000000,-0.00027
1.632,0,1,0.038969,5.104393,5.093394,5.874957,0.000000,-0.00013
1.633,0,1,-0.009646,5.104548,5.092213,5.876784,0.000000,0.00029
1.634,0,1,-0.058261,5.104702,5.091033,5.878949,0.000000,0.00029
1.635,0,1,-0.112546,5.104568,5.089778,5.880160,0.000000,-0.00001
1.636,0,1,-0.170218,5.104264,5.088479,5.880977,0.000000,0.00015
1.637,0,1,-0.227891,5.103959,5.087180,5.881333,0.000000,0.00001
1.638,0,1,-0.285563,5.103654,5.085881,5.881498,0.000000,0.00001
1.639,0,1,-0.344481,5.103381,5.084527,5.882169,0.000000,0.00015
1.640,0,1,-0.404143,5.103126,5.083141,5.883049,0.000000,0.00016
1.641,0,1,-0.463805,5.102871,5.081754,5.884667,0.000000,0.00029
1.642,0,1,-0.523466,5.102617,5.080368,5.886590,0.000000,-0.00001
1.643,0,1,-0.575429,5.102021,5.078938,5.889122,0.000000,0.00000
1.644,0,1,-0.622793,5.101221,5.077483,5.891907,0.000000,0.00014
1.645,0,1,-0.670156,5.100421,5.076027,5.894498,0.000000,0.00002
1.646,0,1,-0.717519,5.099621,5.074572,5.897010,0.000000,-0.00014
1.647,0,1,-0.750197,5.098714,5.073143,5.898541,0.000000,0.00018
1.648,0,1,-0.774101,5.097743,5.071729,5.899669,0.000000,0.00001
1.649,0,1,-0.798005,5.096772,5.070315,5.899972,0.000000,0.00014
1.650,0,1,-0.821909,5.095801,5.068901,5.899936,0.000000,0.00013
1.651,0,1,-0.834919,5.094820,5.067556,5.899593,0.000000,0.00013
1.652,0,1,-0.841421,5.093831,5.066253,5.899125,0.000000,-0.00013
1.653,0,1,-0.847923,5.092843,5.064950,5.899292,0.000000,0.00002
1.654,0,1,-0.854425,5.091854,5.063647,5.899721,0.000000,0.00015
1.655,0,1,-0.850159,5.091034,5.062451,5.901459,0.000000,0.00014
1.656,0,1,-0.839460,5.090314,5.061320,5.903738,0.000000,0.00001
1.657,0,1,-0.828761,5.089595,5.060188,5.906240,0.000000,0.00001
1.658,0,1,-0.818062,5.088875,5.059057,5.908836,0.000000,0.00000
1.659,0,1,-0.805160,5.088106,5.058040,5.910502,0.000000,0.00000
1.660,0,1,-0.790942,5.087307,5.057093,5.911785,0.000000,-0.00027
1.661,0,1,-0.776723,5.086509,5.056146,5.912915,0.000000,-0.00013
1.662,0,1,-0.762505,5.085710,5.055198,5.913982,0.000000,-0.00013
1.663,0,1,-0.745826,5.084899,5.054317,5.915756,0.000000,0.00001
1.664,0,1,-0.727676,5.084080,5.053475,5.917821,0.000000,-0.00027
1.665,0,1,-0.709527,5.083261,5.052633,5.919338,0.000000,-0.00013
1.666,0,1,-0.691377,5.082441,5.051792,5.920630,0.000000,0.00002
1.667,0,1,-0.672854,5.081742,5.050939,5.920089,0.000000,-0.00014
1.668,0,1,-0.654109,5.081114,5.050079,5.918792,0.000000,0.00014
1.669,0,1,-0.635363,5.080486,5.049219,5.916926,0.000000,0.00016
1.670,0,1,-0.616617,5.079858,5.048359,5.914826,0.000000,-0.00012
1.671,0,1,-0.598310,5.079280,5.047414,5.913764,0.000000,-0.00014
1.672,0,1,-0.580265,5.078730,5.046418,5.913129,0.000000,-0.00001
1.673,0,1,-0.562220,5.078181,5.045421,5.913422,0.000000,0.00001
1.674,0,1,-0.544174,5.077631,5.044425,5.914097,0.000000,0.00015
1.675,0,1,-0.534397,5.077139,5.043246,5.915141,0.000000,0.00016
1.676,0,1,-0.529559,5.076681,5.041957,5.916336,0.000000,0.00014
1.677,0,1,-0.524721,5.076222,5.040669,5.917509,0.000000,-0.00014
1.678,0,1,-0.519883,5.075764,5.039381,5.918673,0.000000,0.00015
1.679,0,1,-0.525325,5.075324,5.037790,5.919615,0.000000,0.00001
1.680,0,1,-0.536908,5.074893,5.036018,5.920465,0.000000,0.00013
1.681,0,1,-0.548491,5.074464,5.034245,5.921539,0.000000,0.00029
1.682,0,1,-0.560074,5.074034,5.032473,5.922706,0.000000,0.00015
1.683,0,1,-0.583022,5.073565,5.030375,5.924533,0.000000,0.00000
1.684,0,1,-0.612760,5.073074,5.028083,5.926632,0.000000,0.00001
1.685,0,1,-0.642498,5.072583,5.025790,5.928942,0.000000,0.00001
1.686,0,1,-0.672235,5.072092,5.023498,5.931338,0.000000,-0.00015
1.687,0,1,-0.715064,5.071380,5.020816,5.933324,0.000000,0.00013
1.688,0,1,-0.765713,5.070537,5.017903,5.935141,0.000000,0.00002
1.689,0,1,-0.816362,5.069694,5.014990,5.936283,0.000000,0.00002
1.690,0,1,-0.867011,5.068851,5.012076,5.937146,0.000000,0.00002
1.691,0,1,-0.922613,5.067999,5.008771,5.937331,0.000000,-0.00014
1.692,0,1,-0.981175,5.067142,5.005232,5.937237,0.000000,0.00014
1.693,0,1,-1.039736,5.066285,5.001693,5.937211,0.000000,0.00000
1.694,0,1,-1.098298,5.065427,4.998153,5.937212,0.000000,0.00015
1.695,0,1,-1.164906,5.064378,4.994262,5.938033,0.000000,0.00029
1.696,0,1,-1.236323,5.063213,4.990160,5.939192,0.000000,0.00015
1.697,0,1,-1.307739,5.062048,4.986059,5.941018,0.000000,-0.00013
1.698,0,1,-1.379155,5.060884,4.981957,5.943119,0.000000,0.00000
1.699,0,1,-1.456223,5.059328,4.977643,5.945404,0.000000,0.00014
1.700,0,1,-1.536667,5.057539,4.973200,5.947764,0.000000,0.00014
1.701,0,1,-1.617111,5.055751,4.968758,5.949492,0.000000,0.00014
1.702,0,1,-1.697555,5.053962,4.964315,5.950960,0.000000,0.00001
1.703,0,1,-1.784401,5.052278,4.959809,5.951191,0.000000,0.00001
1.704,0,1,-1.875072,5.050656,4.955266,5.950912,0.000000,0.00000
1.705,0,1,-1.965743,5.049035,4.950723,5.950166,0.000000,0.00001
1.706,0,1,-2.056414,5.047413,4.946179,5.949228,0.000000,0.00014
1.707,0,1,-2.151860,5.045424,4.941678,5.948760,0.000000,-0.00015
1.708,0,1,-2.250157,5.043214,4.937201,5.948487,0.000000,-0.00014
1.709,0,1,-2.348455,5.041005,4.932724,5.948628,0.000000,0.00016
1.710,0,1,-2.446754,5.038796,4.928247,5.948940,0.000000,-0.00013
1.711,0,1,-2.533691,5.036157,4.923982,5.949263,0.000000,0.00015
1.712,0,1,-2.613842,5.033262,4.919843,5.949590,0.000000,-0.00028
1.713,0,1,-2.693993,5.030366,4.915703,5.949226,0.000000,0.00027
1.714,0,1,-2.774144,5.027471,4.911564,5.948577,0.000000,0.00000
1.715,0,1,-2.842069,5.024473,4.907647,5.946849,0.000000,0.00001
1.716,0,1,-2.902689,5.021415,4.903862,5.944674,0.000000,-0.00015
1.717,0,1,-2.963310,5.018357,4.900076,5.942816,0.000000,0.00001
1.718,0,1,-3.023930,5.015299,4.896291,5.941088,0.000000,0.00026
1.719,0,1,-3.055220,5.012064,4.892787,5.941002,0.000000,-0.00001
1.720,0,1,-3.068986,5.008724,4.889450,5.941595,0.000000,0.00000
1.721,0,1,-3.082752,5.005384,4.886113,5.942554,0.000000,-0.00012
1.722,0,1,-3.096518,5.002045,4.882776,5.943664,0.000000,0.00001
1.723,0,1,-3.088424,4.998875,4.879777,5.943533,0.000000,0.00000
1.724,0,1,-3.067269,4.995806,4.876981,5.942892,0.000000,-0.00012
1.725,0,1,-3.046115,4.992737,4.874184,5.941239,0.000000,0.00002
1.726,0,1,-3.024960,4.989668,4.871387,5.939168,0.000000,0.00032
1.727,0,1,-2.989188,4.986500,4.868905,5.936837,0.000000,0.00015
1.728,0,1,-2.944683,4.983273,4.866611,5.934398,0.000000,-0.00014
1.729,0,1,-2.900178,4.980045,4.864316,5.932468,0.000000,0.00001
1.730,0,1,-2.855674,4.976818,4.862022,5.930748,0.000000,-0.00013
1.731,0,1,-2.798398,4.974028,4.860096,5.930059,0.000000,-0.00013
1.732,0,1,-2.733494,4.971501,4.858391,5.929794,0.000000,0.00001
1.733,0,1,-2.668590,4.968974,4.856685,5.929935,0.000000,-0.00001
1.734,0,1,-2.603685,4.966446,4.854980,5.930243,0.000000,0.00015
1.735,0,1,-2.541533,4.963922,4.853632,5.930150,0.000000,0.00000
1.736,0,1,-2.481024,4.961399,4.852498,5.929891,0.000000,0.00000
1.737,0,1,-2.420515,4.958876,4.851364,5.929055,0.000000,0.00028
1.738,0,1,-2.360007,4.956352,4.850230,5.927981,0.000000,-0.00001
1.739,0,1,-2.301037,4.953981,4.849379,5.926407,0.000000,-0.00013
1.740,0,1,-2.242987,4.951701,4.848698,5.924628,0.000000,0.00000
1.741,0,1,-2.184937,4.949421,4.848017,5.922753,0.000000,0.00000
1.742,0,1,-2.126887,4.947141,4.847336,5.920840,0.000000,0.00002
1.743,0,1,-2.076844,4.945213,4.846811,3.824502,0.000000,0.00015
1.744,0,0,-2.031584,4.943496,4.846380,0.864361,0.000000,0.00000
1.745,0,0,-1.986324,4.941778,4.845949,0.000000,0.000000,-0.00013
1.746,0,0,-1.941064,4.940061,4.845517,0.000000,0.000000,0.00027
1.747,0,0,-1.902822,4.938215,4.845086,0.000000,0.000000,0.00013
1.748,0,0,-1.868773,4.936294,4.844654,0.000000,0.000000,-0.00031
1.749,0,0,-1.834724,4.934372,4.844222,0.000000,0.000000,-0.00012
1.750,0,0,-1.800675,4.932450,4.843790,0.000000,0.000000,0.00000
1.751,0,0,-1.767444,4.930572,4.843289,0.000000,0.000000,0.00014
1.752,0,0,-1.734701,4.928720,4.842748,0.000000,0.000000,0.00001
1.753,0,0,-1.701958,4.926867,4.842207,0.000000,0.000000,0.00015
1.754,0,0,-1.669215,4.925014,4.841666,0.000000,0.000000,0.00027
1.755,0,0,-1.643159,4.923455,4.840936,0.000000,0.000000,0.00015
1.756,0,0,-1.621098,4.922071,4.840091,0.000000,0.000000,-0.00042
1.757,0,0,-1.599037,4.920688,4.839247,0.000000,0.000000,0.00014
1.758,0,0,-1.576976,4.919303,4.838402,0.000000,0.000000,0.00000
1.759,0,0,-1.558755,4.917753,4.837385,0.000000,0.000000,0.00001
1.760,0,0,-1.542828,4.916103,4.836263,0.000000,0.000000,0.00015
1.761,0,0,-1.526901,4.914453,4.835142,0.000000,0.000000,0.00002
1.762,0,0,-1.510974,4.912803,4.834021,0.000000,0.000000,0.00002
1.763,0,0,-1.503962,4.911364,4.832726,0.000000,0.000000,0.00000
1.764,0,0,-1.502275,4.910050,4.831329,0.000000,0.000000,0.00001
1.765,0,0,-1.500589,4.908736,4.829932,0.000000,0.000000,0.00027
1.766,0,0,-1.498903,4.907423,4.828536,0.000000,0.000000,0.00001
1.767,0,0,-1.506585,4.906012,4.826982,0.000000,0.000000,0.00001
1.768,0,0,-1.519864,4.904543,4.825335,0.000000,0.000000,0.00002
1.769,0,0,-1.533144,4.903074,4.823687,0.000000,0.000000,0.00001
1.770,0,0,-1.546423,4.901605,4.822040,0.000000,0.000000,0.00013
1.771,0,0,-1.561253,4.900047,4.820347,0.000000,0.000000,0.00056
1.772,0,0,-1.577008,4.898436,4.818627,0.000000,0.000000,0.00014
1.773,0,0,-1.592764,4.896825,4.816906,0.000000,0.000000,0.00014
1.774,0,0,-1.608519,4.895214,4.815187,0.000000,0.000000,0.00015
1.775,0,0,-1.629257,4.893532,4.813482,0.000000,0.000000,0.00001
1.776,0,0,-1.652973,4.891806,4.811786,0.000000,0.000000,-0.00002
1.777,0,0,-1.676688,4.890080,4.810090,0.000000,0.000000,0.00014
1.778,0,0,-1.700403,4.888355,4.808394,0.000000,0.000000,0.00000
1.779,0,0,-1.723974,4.886678,4.806721,0.000000,0.000000,0.00027
1.780,0,0,-1.747458,4.885029,4.805061,0.000000,0.000000,0.00013
1.781,0,0,-1.770942,4.883380,4.803401,0.000000,0.000000,-0.00014
1.782,0,0,-1.794426,4.881732,4.801740,0.000000,0.000000,0.00000
1.783,0,0,-1.813728,4.879979,4.800153,0.000000,0.000000,-0.00029
1.784,0,0,-1.830532,4.878164,4.798608,0.000000,0.000000,0.00001
1.785,0,0,-1.847335,4.876349,4.797064,0.000000,0.000000,0.00033
1.786,0,0,-1.864139,4.874535,4.795519,0.000000,0.000000,0.00028
1.787,0,0,-1.874290,4.872561,4.793999,0.000000,0.000000,-0.00001
1.788,0,0,-1.880467,4.870492,4.792491,0.000000,0.000000,-0.00016
1.789,0,0,-1.886643,4.868424,4.790985,0.000000,0.000000,0.00000
1.790,0,0,-1.892820,4.866355,4.789478,0.000000,0.000000,0.00013
1.791,0,0,-1.882840,4.864299,4.788023,0.000000,0.000000,0.00031
1.792,0,0,-1.863208,4.862250,4.786598,0.000000,0.000000,0.00001
1.793,0,0,-1.843575,4.860200,4.785173,0.000000,0.000000,0.00014
1.794,0,0,-1.823943,4.858151,4.783749,0.000000,0.000000,-0.00014
1.795,0,0,-1.794903,4.856337,4.782376,0.000000,0.000000,0.00015
1.796,0,0,-1.760243,4.854663,4.781034,0.000000,0.000000,0.00029
1.797,0,0,-1.725583,4.852990,4.779693,0.000000,0.000000,0.00016
1.798,0,0,-1.690923,4.851316,4.778351,0.000000,0.000000,0.00029
1.799,0,0,-1.653841,4.849586,4.777077,0.000000,0.000000,0.00015
1.800,0,0,-1.615311,4.847824,4.775842,0.000000,0.000000,-0.00014
1.801,0,0,-1.576782,4.846062,4.774608,0.000000,0.000000,0.00028
1.802,0,0,-1.538252,4.844299,4.773373,0.000000,0.000000,0.00015
1.803,0,0,-1.503450,4.842918,4.772229,0.000000,0.000000,0.00001
1.804,0,0,-1.470873,4.841765,4.771138,0.000000,0.000000,0.00001
1.805,1,0,-1.438297,4.840611,4.770047,0.000000,1.376586,0.00013
1.806,1,0,-1.405720,4.839458,4.768956,0.000000,3.320916,-0.00015
1.807,1,0,-1.386424,4.838180,4.767962,0.000000,3.891205,0.00043
1.808,1,0,-1.375062,4.836826,4.767026,0.000000,3.894798,-0.00028
1.809,1,0,-1.363700,4.835473,4.766091,0.000000,3.898780,-0.00015
1.810,1,0,-1.352338,4.834120,4.765155,0.000000,3.902921,0.00002
1.811,1,0,-1.344707,4.832715,4.764355,0.000000,3.905612,0.00001
1.812,1,0,-1.339305,4.831280,4.763635,0.000000,3.907706,-0.00013
1.813,1,0,-1.333903,4.829844,4.762916,0.000000,3.909031,0.00015
1.814,1,0,-1.328502,4.828409,4.762196,0.000000,3.910038,0.00013
1.815,1,0,-1.330522,4.827162,4.761559,0.000000,3.911426,0.00001
1.816,1,0,-1.336977,4.826029,4.760972,0.000000,3.912971,-0.00013
1.817,1,0,-1.343431,4.824896,4.760384,0.000000,3.914933,0.00000
1.818,1,0,-1.349886,4.823763,4.759797,0.000000,3.917068,0.00000
1.819,1,0,-1.354721,4.822416,4.759237,0.000000,3.919374,0.00015
1.820,1,0,-1.358588,4.820940,4.758694,0.000000,3.921749,0.00015
1.821,1,0,-1.362455,4.819465,4.758152,0.000000,3.924174,0.00028
1.822,1,0,-1.366321,4.817989,4.757609,0.000000,3.926620,0.00014
1.823,1,0,-1.364605,4.816560,4.757117,0.000000,3.928971,0.00002
1.824,1,0,-1.359554,4.815159,4.756655,0.000000,3.931282,0.00014
1.825,1,0,-1.354502,4.813758,4.756194,0.000000,3.933081,0.00015
1.826,1,0,-1.349451,4.812357,4.755732,0.000000,3.934668,0.00001
1.827,1,0,-1.341076,4.810972,4.755322,0.000000,3.935506,-0.00001
1.828,1,0,-1.330714,4.809597,4.754941,0.000000,3.936036,-0.00013
1.829,1,0,-1.320353,4.808221,4.754562,0.000000,3.936744,0.00001
1.830,1,0,-1.309992,4.806846,4.754182,0.000000,3.937527,-0.00013
1.831,1,0,-1.288014,4.805499,4.754034,0.000000,3.939147,-0.00015
1.832,1,0,-1.259096,4.804167,4.754025,0.000000,3.941113,0.00028
1.833,1,0,-1.230177,4.802836,4.754015,0.000000,3.941856,-0.00001
1.834,1,0,-1.201259,4.801506,4.754006,0.000000,3.942096,0.00013
1.835,1,0,-1.171461,4.800322,4.754368,0.000000,3.939492,-0.00002
1.836,1,0,-1.141137,4.799227,4.754952,0.000000,3.935715,-0.00029
1.837,1,0,-1.110813,4.798131,4.755536,0.000000,3.932922,0.00015
1.838,1,0,-1.080490,4.797036,4.756120,0.000000,3.930535,-0.00001
1.839,1,0,-1.048743,4.795946,4.757214,0.000000,3.932857,0.00012
1.840,1,0,-1.016147,4.794860,4.758613,0.000000,3.937121,-0.00001
1.841,1,0,-0.983551,4.793774,4.760012,0.000000,3.942385,-0.00001
1.842,1,0,-0.950954,4.792688,4.761411,0.000000,3.948061,0.00000
1.843,1,0,-0.917150,4.791855,4.763392,0.000000,3.950250,0.00002
1.844,1,0,-0.882624,4.791173,4.765722,0.000000,3.951003,0.00002
1.845,1,0,-0.848098,4.790490,4.768053,0.000000,3.949777,0.00014
1.846,1,0,-0.813572,4.789807,4.770382,0.000000,3.947735,0.00001
