"Time","57 rm dwn st","56 rm dwn sw","55 rmp up st","54 rmp up sw","53 Ramp down","52 Ramp up","51 right DS","50 left DS","49 lHL swoff","48 lHL swon","47 rHL swoff","46 rHL swon","45 lFL swoff","44 lFL swon","43 rFL swoff","42 rFL swon","41 MTP (deg)","40 Ankle (de","39 Knee (deg","38 Hip (deg)","37a CoMy (cm)","36 CoMx (cm)","37 CoMy (cm)","34 FRx (cm)","33 FLy (cm)","32 FLx (cm)","31 Keyboard","35 FRy (cm)","30 HRy (cm)","29 HRx (cm)","28 HLy (cm)","27 HLx (cm)","26 FLty (cm)","25 FLtx (cm)","24 toey (cm)","23 toex (cm)","22 MTPy (cm)","21 MTPx (cm)","20 anky (cm)","19 ankx (cm)","18 Knee y","17 Knee x","16 Hipy (cm)","15 Hipx (cm)","14 Cry (cm)","13 Crx (cm)","12 Synch","11 Gr","10 Gs","9 TA","8 St","7 VL","6 BF","5 Ip","4 GM","3 Platform","2 Trdml","1 Synch"
0.000,0,0,0,0,0,0,1,0,0,0,0,0,0,0,0,0,151.806458,49.256882,80.248886,96.891838,0.507273,11.060618,6.993146,14.145585,7.377240,12.626683,0,6.131866,5.577894,7.472779,7.547279,8.716196,8.581339,14.128316,8.365132,7.417142,8.719493,6.990757,9.375875,6.766290,8.764551,8.341253,10.331868,8.660124,10.236376,9.753661,0,0.00322,0.00073,0.00259,0.00070,0.00086,0.00083,0.00117,0.00060,1.47972,0.09714,3.27728
0.001,0,0,0,0,0,0,1,0,0,0,0,0,0,0,0,0,153.406784,48.930691,80.231445,97.083771,0.581918,11.059373,6.993470,14.157205,7.381444,12.616425,0,6.132125,5.577240,7.461023,7.547368,8.717506,8.587018,14.139124,8.364194,7.407090,8.733769,6.986191,9.385838,6.765516,8.765865,8.336096,10.333758,8.659227,10.237350,9.753592,0,0.00300,0.00075,0.00268,0.00066,0.00071,0.00079,0.00104,0.00059,1.48484,0.09751,3.27721
0.002,0,0,0,0,0,0,1,0,0,0,0,0,0,0,0,0,155.007126,48.604500,80.214005,97.275703,0.656563,11.058127,6.993793,14.168823,7.385647,12.606166,0,6.132384,5.576585,7.449267,7.547457,8.718816,8.592697,14.149932,8.363255,7.397038,8.748045,6.981625,9.395800,6.764742,8.767180,8.330939,10.335649,8.658330,10.238326,9.753523,0,0.00293,0.00075,0.00272,0.00064,0.00069,0.00078,0.00102,0.00060,1.48328,0.09765,3.27713
0.003,0,0,0,0,0,0,1,0,0,0,0,0,0,0,0,0,155.933075,48.419861,80.543236,97.526886,0.711155,11.043659,6.995091,14.175362,7.387844,12.593870,0,6.132707,5.576396,7.442025,7.550388,8.720709,8.596385,14.151186,8.364093,7.382454,8.756265,6.979530,9.398765,6.759295,8.767529,8.324712,10.334482,8.658503,10.238107,9.752711,0,0.00291,0.00074,0.00276,0.00064,0.00069,0.00077,0.00100,0.00060,1.48472,0.09752,3.27720
0.004,0,0,0,0,0,0,1,0,0,0,0,0,0,0,0,0,156.849472,48.237228,80.877380,97.778908,0.765462,11.029002,6.996404,14.181828,7.390012,12.581547,0,6.133030,5.576213,7.434847,7.553358,8.722610,8.600045,14.152304,8.364956,7.367806,8.764398,6.977470,9.401631,6.753780,8.767863,8.318469,10.333271,8.658690,10.237870,9.751890,0,0.00292,0.00074,0.00279,0.00063,0.00070,0.00078,0.00098,0.00060,1.48400,0.09732,3.27728
0.005,0,0,0,0,0,0,1,0,0,0,0,0,0,0,0,0,157.765854,48.054600,81.211533,98.030930,0.819770,11.014346,6.997716,14.188293,7.392180,12.569222,0,6.133354,5.576030,7.427669,7.556329,8.724511,8.603705,14.153421,8.365820,7.353158,8.772531,6.975411,9.404497,6.748267,8.768198,8.312226,10.332061,8.658878,10.237634,9.751068,0,0.00291,0.00073,0.00325,0.00063,0.00073,0.00078,0.00096,0.00059,1.48499,0.09740,3.27706
0.006,0,0,0,0,0,0,1,0,0,0,0,0,0,0,0,0,158.682236,47.871967,81.545685,98.282951,0.874077,10.999689,6.999028,14.194758,7.394348,12.556899,0,6.133677,5.575847,7.420491,7.559299,8.726412,8.607366,14.154539,8.366683,7.338509,8.780664,6.973351,9.407364,6.742753,8.768533,8.305984,10.330851,8.659066,10.237397,9.750246,0,0.00291,0.00070,0.00382,0.00062,0.00075,0.00079,0.00102,0.00060,1.48521,0.09757,3.27683
0.007,0,0,0,0,0,0,1,0,0,0,0,0,0,0,0,0,157.501587,48.466263,82.056526,98.481277,0.880626,11.009861,7.000023,14.205079,7.398936,12.546020,0,6.133663,5.575590,7.412791,7.558098,8.724501,8.609383,14.156635,8.367167,7.329707,8.778047,6.964799,9.400293,6.733830,8.769575,8.301168,10.329812,8.659743,10.236604,9.751210,0,0.00288,0.00070,0.00402,0.00065,0.00076,0.00078,0.00102,0.00057,1.48433,0.09751,3.27668
0.008,0,0,0,0,0,0,1,0,0,0,0,0,0,0,0,0,156.291153,49.071587,82.569878,98.678848,0.886497,11.020385,7.001014,14.215454,7.403559,12.535160,0,6.133643,5.575333,7.405084,7.556838,8.722535,8.611376,14.158746,8.367645,7.320988,8.775277,6.956154,9.393082,6.724860,8.770627,8.296373,10.328777,8.660426,10.235802,9.752200,0,0.00274,0.00069,0.00402,0.00066,0.00075,0.00077,0.00101,0.00056,1.48553,0.09710,3.27652
0.009,0,0,0,0,0,0,1,0,0,0,0,0,0,0,0,0,155.080719,49.676910,83.083237,98.876419,0.892368,11.030909,7.002006,14.225829,7.408181,12.524301,0,6.133624,5.575075,7.397377,7.555578,8.720570,8.613369,14.160855,8.368124,7.312270,8.772508,6.947509,9.385871,6.715890,8.771679,8.291578,10.327742,8.661110,10.235000,9.753190,0,0.00271,0.00069,0.00398,0.00065,0.00080,0.00074,0.00102,0.00056,1.48422,0.09710,3.27697
0.010,0,0,0,0,0,0,1,0,0,0,0,0,0,0,0,0,153.870285,50.282234,83.596588,99.073990,0.898239,11.041432,7.002996,14.236205,7.412804,12.513441,0,6.133604,5.574818,7.389669,7.554317,8.718604,8.615362,14.162966,8.368603,7.303551,8.769738,6.938865,9.378659,6.706920,8.772732,8.286783,10.326706,8.661794,10.234198,9.754179,0,0.00262,0.00069,0.00396,0.00064,0.00078,0.00075,0.00105,0.00055,1.48168,0.09740,3.27743
0.011,0,0,0,0,0,0,1,0,0,0,0,0,0,0,0,0,151.777374,51.257690,83.885216,99.256691,0.854124,11.047814,7.004235,14.237551,7.407702,12.504890,0,6.133838,5.574293,7.375768,7.554068,8.717973,8.612791,14.166191,8.373020,7.293828,8.757457,6.924876,9.371867,6.700099,8.774641,8.281552,10.327292,8.662313,10.234170,9.753478,0,0.00255,0.00067,0.00396,0.00065,0.00081,0.00077,0.00103,0.00055,1.48300,0.09736,3.27706
0.012,0,0,0,0,0,0,1,0,0,0,0,0,0,0,0,0,149.671921,52.238403,84.170662,99.439178,0.809299,11.054138,7.005477,14.238768,7.402463,12.496371,0,6.134076,5.573764,7.361778,7.553832,8.717361,8.610155,14.169433,8.377493,7.284092,8.745041,6.910812,9.365081,6.693308,8.776564,8.276315,10.327902,8.662830,10.234154,9.752752,0,0.00247,0.00066,0.00367,0.00068,0.00081,0.00075,0.00102,0.00056,1.48463,0.09700,3.27668
0.013,0,0,0,0,0,0,1,0,0,0,0,0,0,0,0,0,147.566483,53.219112,84.456100,99.621666,0.764473,11.060462,7.006719,14.239985,7.397224,12.487853,0,6.134314,5.573235,7.347789,7.553596,8.716749,8.607519,14.172674,8.381967,7.274356,8.732625,6.896748,9.358294,6.686517,8.778485,8.271077,10.328510,8.663348,10.234138,9.752027,0,0.00262,0.00066,0.00307,0.00067,0.00082,0.00074,0.00102,0.00055,1.48351,0.09679,3.27667
0.014,0,0,0,0,0,0,1,0,0,0,0,0,0,0,0,0,145.461044,54.199825,84.741539,99.804153,0.719648,11.066786,7.007961,14.241202,7.391985,12.479334,0,6.134551,5.572707,7.333800,7.553361,8.716138,8.604884,14.175915,8.386439,7.264619,8.720209,6.882683,9.351508,6.679727,8.780408,8.265840,10.329120,8.663865,10.234121,9.751301,0,0.00280,0.00065,0.00251,0.00072,0.00087,0.00076,0.00105,0.00053,1.48519,0.09707,3.27667
0.015,0,0,0,0,0,0,1,0,0,0,0,0,0,0,0,0,144.011353,55.004814,84.751091,100.006454,0.633841,11.062419,7.008192,14.243408,7.393416,12.477733,0,6.135093,5.572475,7.326872,7.557295,8.723416,8.605331,14.184976,8.389262,7.250953,8.716850,6.866885,9.357214,6.674275,8.781292,8.259935,10.329472,8.664431,10.233816,9.751216,0,0.00276,0.00065,0.00242,0.00070,0.00094,0.00080,0.00116,0.00053,1.48478,0.09695,3.27667
0.016,0,0,0,0,0,0,1,0,0,0,0,0,0,0,0,0,142.570969,55.807312,84.756729,100.209038,0.547451,11.057900,7.008408,14.245628,7.394943,12.476229,0,6.135639,5.572248,7.320044,7.561288,8.730806,8.605823,14.194119,8.392061,7.237231,8.713620,6.851062,9.363097,6.668843,8.782163,8.254021,10.329820,8.664997,10.233506,9.751140,0,0.00265,0.00063,0.00244,0.00070,0.00093,0.00082,0.00115,0.00051,1.48369,0.09676,3.27667
0.017,0,0,0,0,0,0,1,0,0,0,0,0,0,0,0,0,141.130585,56.609806,84.762367,100.411621,0.461062,11.053382,7.008625,14.247849,7.396469,12.474726,0,6.136185,5.572021,7.313216,7.565281,8.738196,8.606314,14.203262,8.394860,7.223509,8.710390,6.835238,9.368980,6.663410,8.783032,8.248107,10.330168,8.665563,10.233196,9.751064,0,0.00259,0.00061,0.00248,0.00070,0.00101,0.00082,0.00117,0.00051,1.48275,0.09642,3.27690
0.018,0,0,0,0,0,0,1,0,0,0,0,0,0,0,0,0,139.690216,57.412304,84.768005,100.614204,0.374672,11.048862,7.008841,14.250068,7.397995,12.473222,0,6.136731,5.571795,7.306388,7.569275,8.745586,8.606805,14.212406,8.397659,7.209787,8.707160,6.819416,9.374865,6.657978,8.783902,8.242193,10.330516,8.666129,10.232886,9.750988,0,0.00258,0.00062,0.00247,0.00069,0.00100,0.00081,0.00114,0.00050,1.48369,0.09648,3.27713
0.019,0,0,0,0,0,0,1,0,0,0,0,0,0,0,0,0,138.691956,58.166077,84.851532,100.811745,0.280954,11.059734,7.009534,14.257015,7.401118,12.462088,0,6.137303,5.571560,7.297043,7.564185,8.745325,8.612811,14.210905,8.397985,7.200326,8.707644,6.806322,9.380297,6.655103,8.783821,8.238320,10.328749,8.665741,10.232523,9.751489,0,0.00258,0.00064,0.00247,0.00066,0.00101,0.00081,0.00113,0.00049,1.48491,0.09666,3.27750
0.020,0,0,0,0,0,0,1,0,0,0,0,0,0,0,0,0,137.699966,58.919155,84.936172,101.009216,0.187131,11.070825,7.010235,14.264030,7.404263,12.450817,0,6.137875,5.571326,7.287662,7.558966,8.744955,8.618896,14.209253,8.398275,7.190925,8.708179,6.793267,9.385723,6.652266,8.783727,8.234477,10.326951,8.665339,10.232159,9.751998,0,0.00257,0.00067,0.00265,0.00067,0.00100,0.00079,0.00115,0.00048,1.48481,0.09665,3.27788
0.021,0,0,0,0,0,0,1,0,0,0,0,0,0,0,0,0,136.707993,59.672237,85.020805,101.206680,0.093308,11.081914,7.010935,14.271043,7.407409,12.439547,0,6.138447,5.571092,7.278280,7.553747,8.744585,8.624980,14.207602,8.398565,7.181524,8.708715,6.780213,9.391150,6.649428,8.783632,8.230634,10.325153,8.664938,10.231794,9.752506,0,0.00261,0.00067,0.00254,0.00068,0.00099,0.00079,0.00120,0.00049,1.48487,0.09630,3.27759
0.022,0,0,0,0,0,0,1,0,0,0,0,0,0,0,0,0,135.716003,60.425316,85.105446,101.404152,-0.000514,11.093004,7.011636,14.278057,7.410554,12.428275,0,6.139019,5.570857,7.268899,7.548528,8.744215,8.631064,14.205950,8.398856,7.172123,8.709251,6.767158,9.396576,6.646590,8.783538,8.226790,10.323356,8.664536,10.231430,9.753016,0,0.00271,0.00065,0.00259,0.00067,0.00099,0.00080,0.00144,0.00050,1.48341,0.09612,3.27729
0.023,0,0,0,0,0,0,1,0,0,0,0,0,0,0,0,0,135.652176,60.892776,85.315254,101.630798,-0.102609,11.121058,7.011210,14.286311,7.405109,12.420467,0,6.139522,5.570395,7.255133,7.543073,8.732361,8.639221,14.207663,8.400503,7.159277,8.709421,6.754721,9.395739,6.643535,8.784372,8.222564,10.322752,8.665085,10.230998,9.752172,0,0.00272,0.00066,0.00254,0.00067,0.00099,0.00079,0.00156,0.00050,1.48513,0.09642,3.27713
0.024,0,0,0,0,0,0,1,0,0,0,0,0,0,0,0,0,135.601517,61.356182,85.526840,101.857864,-0.204821,11.149354,7.010768,14.294583,7.399542,12.412709,0,6.140023,5.569930,7.241305,7.537614,8.720343,8.647408,14.209423,8.402169,7.146381,8.709585,6.742292,9.394812,6.640476,8.785220,8.218331,10.322165,8.665647,10.230565,9.751310,0,0.00276,0.00066,0.00255,0.00068,0.00099,0.00078,0.00156,0.00050,1.48696,0.09652,3.27698
0.025,0,0,0,0,0,0,1,0,0,0,0,0,0,0,0,0,135.550858,61.819588,85.738426,102.084930,-0.307033,11.177649,7.010326,14.302855,7.393975,12.404950,0,6.140525,5.569464,7.227477,7.532156,8.708324,8.655595,14.211183,8.403835,7.133486,8.709749,6.729864,9.393885,6.637418,8.786067,8.214099,10.321577,8.666208,10.230132,9.750448,0,0.00282,0.00066,0.00214,0.00066,0.00096,0.00076,0.00158,0.00051,1.48428,0.09618,3.27743
0.026,0,0,0,0,0,0,1,0,0,0,0,0,0,0,0,0,135.500198,62.282990,85.950020,102.311989,-0.409245,11.205945,7.009884,14.311127,7.388408,12.397192,0,6.141026,5.568999,7.213648,7.526697,8.696306,8.663781,14.212943,8.405502,7.120591,8.709914,6.717436,9.392958,6.634360,8.786915,8.209867,10.320991,8.666770,10.229698,9.749587,0,0.00300,0.00066,0.00151,0.00066,0.00092,0.00076,0.00160,0.00050,1.48536,0.09584,3.27788
0.027,0,0,0,0,0,0,1,0,0,0,0,0,0,0,0,0,136.139923,62.497456,86.110191,102.511330,-0.491419,11.205869,7.009030,14.315881,7.386759,12.386175,0,6.141193,5.568774,7.204589,7.528971,8.697640,8.667196,14.213016,8.406540,7.106111,8.715070,6.709573,9.393497,6.628205,8.787778,8.206142,10.320459,8.667373,10.231152,9.751352,0,0.00291,0.00067,0.00127,0.00067,0.00096,0.00078,0.00177,0.00051,1.48520,0.09596,3.27774
0.028,0,0,0,0,0,0,1,0,0,0,0,0,0,0,0,0,136.789429,62.708389,86.269638,102.710281,-0.573308,11.205391,7.008170,14.320585,7.385166,12.375113,0,6.141355,5.568553,7.195597,7.531355,8.699164,8.670545,14.213064,8.407569,7.091608,8.720297,6.701775,9.394055,6.622007,8.788642,8.202425,10.319928,8.667976,10.232632,9.753156,0,0.00288,0.00066,0.00127,0.00067,0.00096,0.00079,0.00176,0.00052,1.48215,0.09608,3.27759
0.029,0,0,0,0,0,0,1,0,0,0,0,0,0,0,0,0,137.438950,62.919319,86.429085,102.909225,-0.655198,11.204912,7.007309,14.325290,7.383573,12.364050,0,6.141517,5.568333,7.186605,7.533739,8.700688,8.673892,14.213113,8.408598,7.077106,8.725524,6.693976,9.394615,6.615809,8.789506,8.198708,10.319398,8.668579,10.234112,9.754958,0,0.00259,0.00066,0.00123,0.00067,0.00090,0.00080,0.00172,0.00051,1.48442,0.09613,3.27766
0.030,0,0,0,0,0,0,1,0,0,0,0,0,0,0,0,0,138.088455,63.130253,86.588531,103.108177,-0.737087,11.204433,7.006449,14.329994,7.381979,12.352987,0,6.141679,5.568111,7.177613,7.536123,8.702212,8.677240,14.213161,8.409627,7.062603,8.730750,6.686178,9.395175,6.609611,8.790369,8.194991,10.318868,8.669183,10.235591,9.756762,0,0.00237,0.00066,0.00120,0.00068,0.00088,0.00078,0.00169,0.00052,1.48389,0.09586,3.27774
0.031,0,0,0,0,0,0,1,0,0,0,0,0,0,0,0,0,138.271439,63.515057,86.674202,103.172890,-0.821498,11.204828,7.005696,14.334934,7.381627,12.345632,0,6.141771,5.568027,7.172165,7.541805,8.702381,8.672537,14.228095,8.403875,7.056031,8.732427,6.681308,9.395022,6.607805,8.791280,8.194263,10.318386,8.670113,10.236198,9.757329,0,0.00231,0.00067,0.00124,0.00068,0.00087,0.00076,0.00168,0.00052,1.48189,0.09572,3.27767
0.032,0,0,0,0,0,0,1,0,0,0,0,0,0,0,0,0,138.447800,63.902332,86.758827,103.235695,-0.905946,11.205235,7.004944,14.339877,7.381292,12.338328,0,6.141862,5.567944,7.166768,7.547533,8.702530,8.667720,14.243240,8.398027,7.049572,8.734053,6.676479,9.394859,6.606061,8.792192,8.193577,10.317905,8.671046,10.236794,9.757879,0,0.00229,0.00068,0.00128,0.00064,0.00090,0.00075,0.00171,0.00054,1.48289,0.09592,3.27759
0.033,0,0,0,0,0,0,1,0,0,0,0,0,0,0,0,0,138.624161,64.289604,86.843452,103.298500,-0.990393,11.205642,7.004192,14.344820,7.380958,12.331025,0,6.141953,5.567861,7.161370,7.553261,8.702680,8.662903,14.258386,8.392180,7.043113,8.735678,6.671651,9.394697,6.604318,8.793103,8.192890,10.317425,8.671981,10.237389,9.758430,0,0.00216,0.00068,0.00131,0.00064,0.00102,0.00077,0.00175,0.00055,1.48501,0.09611,3.27744
0.034,0,0,0,0,0,0,1,0,0,0,0,0,0,0,0,0,138.800522,64.676880,86.928078,103.361305,-1.074840,11.206049,7.003440,14.349763,7.380623,12.323722,0,6.142045,5.567778,7.155972,7.558989,8.702829,8.658086,14.273532,8.386333,7.036654,8.737304,6.666822,9.394534,6.602574,8.794015,8.192204,10.316944,8.672915,10.237983,9.758981,0,0.00201,0.00068,0.00131,0.00058,0.00101,0.00078,0.00170,0.00056,1.48395,0.09605,3.27729
0.035,0,0,0,0,0,0,1,0,0,0,0,0,0,0,0,0,138.161911,65.447685,86.976463,103.434303,-1.165172,11.211085,7.002310,14.349995,7.382838,12.309957,0,6.142042,5.567811,7.144129,7.557260,8.704920,8.649421,14.285760,8.382606,7.028275,8.734203,6.661776,9.395105,6.602391,8.795863,8.191087,10.318645,8.672453,10.239148,9.760109,0,0.00211,0.00068,0.00130,0.00058,0.00094,0.00076,0.00162,0.00057,1.48275,0.09569,3.27728
0.036,0,0,0,0,0,0,1,0,0,0,0,0,0,0,0,0,137.511719,66.223938,87.024330,103.507454,-1.255588,11.216187,7.001175,14.350160,7.385090,12.296100,0,6.142039,5.567845,7.132194,7.555425,8.707037,8.640700,14.297947,8.378909,7.019870,8.731036,6.656726,9.395687,6.602231,8.797726,8.189963,10.320378,8.671971,10.240321,9.761246,0,0.00209,0.00068,0.00130,0.00057,0.00094,0.00078,0.00159,0.00057,1.48204,0.09596,3.27728
0.037,0,0,0,0,0,0,1,0,0,0,0,0,0,0,0,0,136.861526,67.000191,87.072205,103.580597,-1.346003,11.221289,7.000040,14.350324,7.387341,12.282243,0,6.142035,5.567879,7.120259,7.553590,8.709155,8.631981,14.310133,8.375213,7.011465,8.727869,6.651676,9.396269,6.602070,8.799587,8.188840,10.322111,8.671489,10.241494,9.762383,0,0.00204,0.00069,0.00124,0.00055,0.00084,0.00078,0.00161,0.00056,1.48392,0.09625,3.27698
0.038,0,0,0,0,0,0,1,0,0,0,0,0,0,0,0,0,136.211334,67.776443,87.120071,103.653748,-1.436418,11.226390,6.998904,14.350489,7.389593,12.268385,0,6.142031,5.567913,7.108324,7.551755,8.711273,8.623260,14.322320,8.371515,7.003059,8.724702,6.646626,9.396851,6.601909,8.801450,8.187716,10.323844,8.671007,10.242667,9.763519,0,0.00216,0.00068,0.00123,0.00054,0.00084,0.00077,0.00165,0.00057,1.48445,0.09618,3.27668
0.039,0,0,0,0,0,0,1,0,0,0,0,0,0,0,0,0,135.039169,68.820717,87.185471,103.774742,-1.546470,11.215617,6.997342,14.349823,7.388754,12.258655,0,6.142176,5.567679,7.100763,7.552256,8.718238,8.624442,14.332680,8.371789,6.990854,8.728005,6.631595,9.402014,6.600630,8.803408,8.186597,10.324443,8.673635,10.243313,9.765780,0,0.00251,0.00066,0.00124,0.00056,0.00082,0.00077,0.00169,0.00056,1.48240,0.09587,3.27675
0.040,0,0,0,0,0,0,1,0,0,0,0,0,0,0,0,0,133.859604,69.868797,87.251114,103.896423,-1.656801,11.204619,6.995773,14.349146,7.387872,12.248982,0,6.142322,5.567442,7.093264,7.552790,8.725270,8.625765,14.343014,8.372118,6.978594,8.731400,6.616422,9.407242,6.599336,8.805367,8.185477,10.325026,8.676307,10.243951,9.768057,0,0.00263,0.00065,0.00102,0.00055,0.00089,0.00081,0.00171,0.00057,1.48064,0.09599,3.27682
0.041,0,0,0,0,0,0,1,0,0,0,0,0,0,0,0,0,132.680038,70.916878,87.316757,104.018097,-1.767131,11.193622,6.994205,14.348469,7.386989,12.239310,0,6.142468,5.567205,7.085764,7.553324,8.732304,8.627088,14.353348,8.372448,6.966335,8.734795,6.601248,9.412470,6.598042,8.807326,8.184358,10.325608,8.678978,10.244589,9.770333,0,0.00262,0.00064,0.00101,0.00054,0.00094,0.00080,0.00167,0.00057,1.48443,0.09620,3.27712
0.042,0,0,0,0,0,0,1,0,0,0,0,0,0,0,0,0,131.500458,71.964958,87.382408,104.139778,-1.877462,11.182624,6.992636,14.347792,7.386107,12.229638,0,6.142615,5.566968,7.078265,7.553858,8.739337,8.628410,14.363681,8.372777,6.954075,8.738190,6.586075,9.417697,6.596747,8.809286,8.183238,10.326191,8.681650,10.245228,9.772611,0,0.00287,0.00063,0.00093,0.00056,0.00094,0.00082,0.00144,0.00056,1.49084,0.09630,3.27743
0.043,0,0,0,0,0,0,1,0,0,0,0,0,0,0,0,0,131.542862,72.629837,87.484657,104.259766,-2.000597,11.185666,6.990690,14.359746,7.385365,12.223600,0,6.142535,5.566714,7.067400,7.557252,8.747246,8.631855,14.371581,8.375171,6.938150,8.734505,6.573971,9.419532,6.596968,8.811936,8.182132,10.327676,8.682427,10.247000,9.774853,0,0.00293,0.00064,0.00095,0.00055,0.00096,0.00083,0.00130,0.00055,1.48713,0.09626,3.27744
0.044,0,0,0,0,0,0,1,0,0,0,0,0,0,0,0,0,131.602615,73.289268,87.587433,104.379723,-2.123914,11.188908,6.988739,14.371880,7.384625,12.217613,0,6.142452,5.566460,7.056489,7.560687,8.755167,8.635330,14.379446,8.377593,6.922174,8.730720,6.561910,9.421317,6.597211,8.814595,8.181025,10.329172,8.683178,10.248789,9.777095,0,0.00291,0.00065,0.00106,0.00056,0.00101,0.00085,0.00131,0.00056,1.48334,0.09617,3.27744
0.045,0,0,0,0,0,0,1,0,0,0,0,0,0,0,0,0,131.662369,73.948708,87.690208,104.499687,-2.247231,11.192149,6.986788,14.384014,7.383885,12.211627,0,6.142369,5.566206,7.045577,7.564121,8.763088,8.638806,14.387311,8.380016,6.906197,8.726934,6.549849,9.423103,6.597454,8.817255,8.179918,10.330669,8.683929,10.250578,9.779337,0,0.00283,0.00063,0.00111,0.00057,0.00109,0.00087,0.00135,0.00055,1.48367,0.09643,3.27721
0.046,0,0,0,0,0,0,1,0,0,0,0,0,0,0,0,0,131.722122,74.608147,87.792976,104.619652,-2.370548,11.195391,6.984836,14.396148,7.383145,12.205641,0,6.142285,5.565952,7.034664,7.567555,8.771009,8.642282,14.395176,8.382439,6.890220,8.723149,6.537788,9.424890,6.597697,8.819915,8.178811,10.332166,8.684680,10.252367,9.781579,0,0.00265,0.00061,0.00110,0.00057,0.00113,0.00086,0.00134,0.00056,1.48239,0.09668,3.27698
0.047,0,0,0,0,0,0,1,0,0,0,0,0,0,0,0,0,133.664200,74.564888,87.826736,104.768318,-2.477251,11.201960,6.981975,14.403615,7.380838,12.196611,0,6.141865,5.565981,7.028923,7.565486,8.771681,8.644071,14.400103,8.380637,6.870295,8.727834,6.531077,9.429860,6.595844,8.823644,8.175992,10.334444,8.686316,10.254125,9.783383,0,0.00269,0.00061,0.00115,0.00055,0.00109,0.00083,0.00118,0.00056,1.48439,0.09655,3.27720
0.048,0,0,0,0,0,0,1,0,0,0,0,0,0,0,0,0,135.632996,74.511658,87.859512,104.917389,-2.583717,11.208574,6.979101,14.411016,7.378510,12.187538,0,6.141440,5.566015,7.023255,7.563339,8.772249,8.645835,14.404987,8.378775,6.850314,8.732638,6.524442,9.434875,6.593962,8.827389,8.173148,10.336734,8.687963,10.255882,9.785182,0,0.00260,0.00062,0.00127,0.00053,0.00128,0.00085,0.00121,0.00055,1.48314,0.09621,3.27743
0.049,0,0,0,0,0,0,1,0,0,0,0,0,0,0,0,0,137.601791,74.458427,87.892296,105.066467,-2.690183,11.215190,6.976227,14.418418,7.376181,12.178466,0,6.141016,5.566048,7.017587,7.561192,8.772818,8.647600,14.409873,8.376913,6.830333,8.737443,6.517807,9.439891,6.592079,8.831133,8.170304,10.339024,8.689612,10.257640,9.786980,0,0.00270,0.00063,0.00129,0.00056,0.00198,0.00097,0.00134,0.00057,1.48253,0.09656,3.27744
0.050,0,0,0,0,0,0,1,0,0,0,0,0,0,0,0,0,139.570587,74.405197,87.925072,105.215538,-2.796649,11.221806,6.973352,14.425818,7.373851,12.169393,0,6.140591,5.566082,7.011919,7.559045,8.773387,8.649364,14.414758,8.375051,6.810353,8.742248,6.511172,9.444906,6.590197,8.834877,8.167460,10.341313,8.691260,10.259398,9.788778,0,0.00303,0.00062,0.00131,0.00055,0.00214,0.00105,0.00145,0.00056,1.48284,0.09678,3.27744
0.051,0,0,0,0,0,0,1,0,0,0,0,0,0,0,0,0,141.361450,74.046326,88.019661,105.441238,-2.861063,11.206135,6.970140,14.430241,7.373843,12.144589,0,6.140438,5.565595,6.998904,7.564295,8.776735,8.650804,14.426758,8.374522,6.796677,8.754148,6.512910,9.455505,6.589606,8.838847,8.163660,10.343510,8.692710,10.260880,9.788554,0,0.00334,0.00062,0.00127,0.00055,0.00213,0.00106,0.00150,0.00057,1.48159,0.09659,3.27758
0.052,0,0,0,0,0,0,1,0,0,0,0,0,0,0,0,0,143.149796,73.683113,88.115120,105.668022,-2.924880,11.190148,6.966922,14.434620,7.373868,12.119563,0,6.140288,5.565101,6.985785,7.569649,8.780124,8.652238,14.438858,8.374012,6.783091,8.766150,6.514768,9.466183,6.589034,8.842821,8.159846,10.345703,8.694156,10.262359,9.788302,0,0.00344,0.00062,0.00122,0.00057,0.00210,0.00107,0.00159,0.00056,1.48412,0.09632,3.27774
0.053,0,0,0,0,0,0,1,0,0,0,0,0,0,0,0,0,144.938141,73.319908,88.210587,105.894806,-2.988697,11.174161,6.963704,14.438999,7.373893,12.094537,0,6.140139,5.564607,6.972665,7.575004,8.783512,8.653672,14.450958,8.373503,6.769504,8.778152,6.516626,9.476861,6.588462,8.846794,8.156033,10.347898,8.695602,10.263837,9.788050,0,0.00347,0.00061,0.00120,0.00059,0.00198,0.00108,0.00168,0.00056,1.48508,0.09655,3.27729
0.054,0,0,0,0,0,0,1,0,0,0,0,0,0,0,0,0,146.726486,72.956696,88.306053,106.121590,-3.052514,11.158175,6.960486,14.443378,7.373917,12.069510,0,6.139989,5.564114,6.959546,7.580359,8.786901,8.655107,14.463058,8.372993,6.755918,8.790153,6.518484,9.487538,6.587890,8.850768,8.152219,10.350092,8.697049,10.265315,9.787798,0,0.00341,0.00061,0.00123,0.00058,0.00196,0.00105,0.00185,0.00055,1.48475,0.09672,3.27683
0.055,0,0,0,0,0,0,1,0,0,0,0,0,0,0,0,0,146.797318,73.115746,88.546539,106.342178,-3.065619,11.158413,6.957204,14.448079,7.374861,12.064306,0,6.139429,5.564213,6.950689,7.580098,8.800024,8.654394,14.466159,8.372091,6.750011,8.792691,6.517727,9.491229,6.583447,8.854737,8.148501,10.351878,8.699093,10.268529,9.789957,0,0.00323,0.00061,0.00122,0.00058,0.00194,0.00103,0.00187,0.00055,1.48392,0.09677,3.27720
0.056,0,0,0,0,0,0,1,0,0,0,0,0,0,0,0,0,146.843750,73.282211,88.789085,106.562675,-3.078004,11.158881,6.953921,14.452785,7.375817,12.059383,0,6.138862,5.564321,6.941893,7.579758,8.813286,8.653652,14.469131,8.371183,6.744214,8.795095,6.516934,9.494820,6.578950,8.858706,8.144786,10.353658,8.701144,10.271768,9.792150,0,0.00313,0.00060,0.00122,0.00060,0.00194,0.00098,0.00185,0.00056,1.47920,0.09653,3.27758
0.057,0,0,0,0,0,0,1,0,0,0,0,0,0,0,0,0,146.890198,73.448677,89.031639,106.783180,-3.090389,11.159350,6.950638,14.457490,7.376774,12.054461,0,6.138296,5.564429,6.933097,7.579418,8.826548,8.652909,14.472103,8.370275,6.738416,8.797500,6.516140,9.498411,6.574453,8.862676,8.141070,10.355438,8.703197,10.275006,9.794343,0,0.00306,0.00060,0.00127,0.00062,0.00238,0.00101,0.00182,0.00057,1.48443,0.09644,3.27729
0.058,0,0,0,0,0,0,1,0,0,0,0,0,0,0,0,0,146.936630,73.615143,89.274185,107.003677,-3.102775,11.159819,6.947355,14.462195,7.377731,12.049538,0,6.137729,5.564538,6.924301,7.579078,8.839808,8.652167,14.475075,8.369368,6.732619,8.799904,6.515347,9.502002,6.569956,8.866646,8.137355,10.357219,8.705249,10.278244,9.796536,0,0.00302,0.00060,0.00137,0.00063,0.00274,0.00109,0.00178,0.00056,1.48488,0.09668,3.27698
0.059,0,0,0,0,0,0,1,0,0,0,0,0,0,0,0,0,145.858383,74.192200,89.558113,107.111626,-3.068188,11.152007,6.944090,14.471572,7.375921,12.042380,0,6.136714,5.565047,6.915545,7.580604,8.837420,8.650289,14.490747,8.375747,6.723934,8.803615,6.505015,9.505808,6.566782,8.871790,8.133089,10.359468,8.706236,10.279011,9.799783,0,0.00281,0.00060,0.00137,0.00064,0.00280,0.00114,0.00181,0.00058,1.48228,0.09674,3.27705
0.060,0,0,0,0,0,0,1,0,0,0,0,0,0,0,0,0,144.764145,74.775085,89.842636,107.217972,-3.032934,11.144077,6.940825,14.481014,7.374072,12.035191,0,6.135692,5.565563,6.906790,7.582156,8.834810,8.648393,14.506600,8.382228,6.715208,8.807345,6.494547,9.509617,6.563628,8.876950,8.128817,10.361725,8.707209,10.279742,9.803045,0,0.00278,0.00061,0.00138,0.00068,0.00284,0.00113,0.00185,0.00059,1.48544,0.09653,3.27713
0.061,0,0,0,0,0,0,1,0,0,0,0,0,0,0,0,0,143.669922,75.357971,90.127151,107.324318,-2.997681,11.136148,6.937561,14.490458,7.372223,12.028001,0,6.134669,5.566079,6.898035,7.583709,8.832200,8.646498,14.522453,8.388710,6.706481,8.811075,6.484080,9.513426,6.560473,8.882112,8.124544,10.363982,8.708180,10.280474,9.806307,0,0.00280,0.00058,0.00142,0.00068,0.00308,0.00121,0.00186,0.00058,1.48499,0.09609,3.27720
0.062,0,0,0,0,0,0,1,0,0,0,0,0,0,0,0,0,142.575699,75.940857,90.411674,107.430664,-2.962427,11.128219,6.934296,14.499900,7.370374,12.020812,0,6.133647,5.566595,6.889279,7.585261,8.829590,8.644603,14.538305,8.395192,6.697755,8.814805,6.473612,9.517235,6.557318,8.887272,8.120272,10.366239,8.709153,10.281204,9.809568,0,0.00257,0.00058,0.00155,0.00068,0.00318,0.00123,0.00186,0.00058,1.48364,0.09628,3.27728
0.063,0,0,0,0,0,0,1,0,0,0,0,0,0,0,0,0,141.383774,76.582802,90.620201,107.529648,-2.912243,11.124609,6.931382,14.510620,7.370470,12.009350,0,6.133305,5.567324,6.876521,7.582009,8.828461,8.642766,14.549827,8.395088,6.688821,8.809067,6.460062,9.519614,6.550298,8.891569,8.117422,10.369366,8.712204,10.281633,9.811919,0,0.00249,0.00056,0.00158,0.00067,0.00319,0.00125,0.00186,0.00057,1.48676,0.09645,3.27721
0.064,0,0,0,0,0,0,1,0,0,0,0,0,0,0,0,0,140.190445,77.225578,90.827644,107.628532,-2.861848,11.121060,6.928472,14.521358,7.370593,11.997827,0,6.132971,5.568056,6.863705,7.578689,8.827353,8.640931,14.561285,8.394891,6.679883,8.803195,6.446467,9.521974,6.543223,8.895854,8.114594,10.372506,8.715284,10.282059,9.814257,0,0.00251,0.00056,0.00146,0.00068,0.00336,0.00125,0.00188,0.00057,1.48351,0.09628,3.27713
0.065,0,0,0,0,0,0,1,0,0,0,0,0,0,0,0,0,138.997131,77.868362,91.035088,107.727417,-2.811452,11.117511,6.925563,14.532097,7.370716,11.986304,0,6.132638,5.568789,6.850890,7.575369,8.826244,8.639095,14.572744,8.394694,6.670946,8.797322,6.432873,9.524333,6.536149,8.900139,8.111764,10.375646,8.718366,10.282483,9.816594,0,0.00256,0.00058,0.00137,0.00068,0.00343,0.00125,0.00183,0.00058,1.48468,0.09596,3.27743
0.066,0,0,0,0,0,0,1,0,0,0,0,0,0,0,0,0,137.803818,78.511139,91.242531,107.826302,-2.761056,11.113962,6.922653,14.542835,7.370839,11.974781,0,6.132304,5.569521,6.838074,7.572049,8.825135,8.637260,14.584204,8.394497,6.662009,8.791450,6.419279,9.526692,6.529074,8.904424,8.108935,10.378786,8.721446,10.282908,9.818933,0,0.00255,0.00058,0.00140,0.00069,0.00339,0.00128,0.00177,0.00058,1.48394,0.09602,3.27773
0.067,0,0,0,0,0,0,1,0,0,0,0,0,0,0,0,0,137.243439,79.499664,91.574432,107.934868,-2.736752,11.117026,6.920184,14.546826,7.370719,11.969656,0,6.132219,5.570467,6.830403,7.574011,8.832232,8.636050,14.596254,8.395991,6.652903,8.789478,6.408537,9.528523,6.528646,8.907336,8.107640,10.380553,8.721775,10.285457,9.823523,0,0.00248,0.00058,0.00135,0.00070,0.00338,0.00129,0.00175,0.00059,1.48685,0.09612,3.27744
0.068,0,0,0,0,0,0,1,0,0,0,0,0,0,0,0,0,136.692062,80.493095,91.908104,108.043579,-2.712818,11.120184,6.917720,14.550721,7.370596,11.964621,0,6.132137,5.571414,6.822804,7.576048,8.839446,8.634850,14.608314,8.397510,6.643795,8.787563,6.397836,9.530347,6.528311,8.910229,8.106367,10.382301,8.722065,10.288035,9.828145,0,0.00244,0.00060,0.00124,0.00070,0.00322,0.00126,0.00167,0.00060,1.48361,0.09626,3.27714
0.069,0,0,0,0,0,0,1,0,0,0,0,0,0,0,0,0,136.140671,81.486519,92.241776,108.152290,-2.688884,11.123342,6.915257,14.554617,7.370472,11.959586,0,6.132056,5.572363,6.815206,7.578085,8.846660,8.633649,14.620374,8.399028,6.634686,8.785647,6.387136,9.532169,6.527977,8.913121,8.105094,10.384049,8.722355,10.290613,9.832767,0,0.00231,0.00063,0.00122,0.00068,0.00251,0.00114,0.00151,0.00059,1.48361,0.09610,3.27698
0.070,0,0,0,0,0,0,1,0,0,0,0,0,0,0,0,0,135.589294,82.479950,92.575447,108.261002,-2.664951,11.126499,6.912793,14.558512,7.370349,11.954552,0,6.131974,5.573311,6.807607,7.580122,8.853873,8.632448,14.632433,8.400546,6.625577,8.783731,6.376434,9.533993,6.527642,8.916015,8.103821,10.385798,8.722645,10.293192,9.837389,0,0.00197,0.00063,0.00124,0.00066,0.00231,0.00106,0.00138,0.00059,1.48110,0.09580,3.27683
0.071,0,0,0,0,0,0,1,0,0,0,0,0,0,0,0,0,135.179291,83.437935,92.970802,108.386978,-2.663538,11.120502,6.910481,14.569549,7.364440,11.941142,0,6.131810,5.574248,6.806463,7.580981,8.849896,8.623930,14.638915,8.387473,6.611703,8.785241,6.360911,9.524652,6.520330,8.918979,8.102417,10.387963,8.724249,10.294873,9.839727,0,0.00170,0.00065,0.00129,0.00066,0.00243,0.00110,0.00137,0.00059,1.48288,0.09611,3.27682
0.072,0,0,0,0,0,0,1,0,0,0,0,0,0,0,0,0,134.771301,84.395416,93.367035,108.513206,-2.662446,11.114373,6.908171,14.580687,7.358449,11.927614,0,6.131644,5.575184,6.805410,7.581823,8.845760,8.615308,14.645319,8.374193,6.597760,8.786799,6.345320,9.515154,6.512920,8.921945,8.101011,10.390135,8.725872,10.296541,9.842032,0,0.00177,0.00065,0.00132,0.00066,0.00275,0.00113,0.00138,0.00058,1.48562,0.09635,3.27682
0.073,0,0,0,0,0,0,1,0,0,0,0,0,0,0,0,0,134.363312,85.352898,93.763275,108.639435,-2.661353,11.108246,6.905861,14.591825,7.352458,11.914086,0,6.131478,5.576121,6.804358,7.582665,8.841624,8.606686,14.651722,8.360913,6.583818,8.788358,6.329728,9.505655,6.505509,8.924911,8.099606,10.392305,8.727495,10.298209,9.844338,0,0.00181,0.00065,0.00132,0.00064,0.00295,0.00121,0.00123,0.00058,1.48433,0.09635,3.27727
0.074,0,0,0,0,0,0,1,0,0,0,0,0,0,0,0,0,133.955322,86.310379,94.159508,108.765663,-2.660260,11.102118,6.903552,14.602963,7.346467,11.900558,0,6.131312,5.577058,6.803306,7.583507,8.837489,8.598064,14.658126,8.347633,6.569875,8.789916,6.314137,9.496157,6.498098,8.927876,8.098201,10.394477,8.729118,10.299877,9.846643,0,0.00188,0.00064,0.00131,0.00066,0.00303,0.00124,0.00109,0.00059,1.48627,0.09583,3.27773
0.075,0,0,0,0,0,0,1,0,0,0,0,0,0,0,0,0,133.061813,87.009590,94.433235,108.947670,-2.692762,11.109117,6.900982,14.604046,7.342994,11.900863,0,6.130422,5.577814,6.789383,7.581355,8.844249,8.590566,14.659475,8.347816,6.561941,8.788683,6.305479,9.496375,6.497094,8.930977,8.097126,10.395509,8.731106,10.301354,9.850931,0,0.00226,0.00064,0.00131,0.00066,0.00303,0.00125,0.00103,0.00059,1.48325,0.09611,3.27684
0.076,0,0,0,0,0,0,1,0,0,0,0,0,0,0,0,0,132.161392,87.705139,94.705231,109.130470,-2.725740,11.116302,6.898409,14.604985,7.339556,11.901363,0,6.129521,5.578566,6.775277,7.579161,8.851164,8.583083,14.660752,8.348189,6.554091,8.787411,6.296920,9.496731,6.496181,8.934080,8.096057,10.396524,8.733098,10.302830,9.855247,0,0.00246,0.00063,0.00128,0.00064,0.00323,0.00126,0.00102,0.00058,1.48276,0.09629,3.27593
0.077,0,0,0,0,0,0,1,0,0,0,0,0,0,0,0,0,131.260986,88.400688,94.977219,109.313271,-2.758719,11.123486,6.895836,14.605924,7.336119,11.901864,0,6.128621,5.579319,6.761171,7.576966,8.858079,8.575601,14.662030,8.348562,6.546242,8.786139,6.288362,9.497087,6.495267,8.937183,8.094987,10.397539,8.735090,10.304305,9.859564,0,0.00253,0.00062,0.00123,0.00063,0.00318,0.00124,0.00107,0.00057,1.47521,0.09618,3.27643
0.078,0,0,0,0,0,0,1,0,0,0,0,0,0,0,0,0,130.360565,89.096237,95.249214,109.496071,-2.791698,11.130671,6.893263,14.606863,7.332681,11.902366,0,6.127721,5.580072,6.747065,7.574772,8.864993,8.568118,14.663307,8.348936,6.538393,8.784866,6.279802,9.497442,6.494354,8.940286,8.093918,10.398555,8.737082,10.305779,9.863880,0,0.00275,0.00063,0.00117,0.00062,0.00304,0.00134,0.00118,0.00058,1.48444,0.09595,3.27697
0.079,0,0,0,0,0,0,1,0,0,0,0,0,0,0,0,0,129.410492,89.519371,95.575562,109.721458,-2.834888,11.127054,6.889849,14.605189,7.334017,11.880709,0,6.126576,5.580318,6.738723,7.575388,8.871054,8.555617,14.670465,8.348171,6.533116,8.787169,6.268184,9.498580,6.491502,8.944807,8.090381,10.400890,8.739426,10.307611,9.866634,0,0.00262,0.00062,0.00117,0.00060,0.00308,0.00133,0.00113,0.00058,1.48465,0.09578,3.27705
0.080,0,0,0,0,0,0,1,0,0,0,0,0,0,0,0,0,128.459717,89.938644,95.902679,109.947449,-2.878223,11.123284,6.886424,14.603479,7.335421,11.858738,0,6.125428,5.580558,6.730463,7.576043,8.877103,8.543045,14.677705,8.347391,6.527875,8.789524,6.256522,9.499729,6.488622,8.949347,8.086809,10.403245,8.741775,10.309446,9.869367,0,0.00255,0.00062,0.00119,0.00056,0.00301,0.00133,0.00107,0.00058,1.48387,0.09584,3.27713
0.081,0,0,0,0,0,0,1,0,0,0,0,0,0,0,1,0,127.508926,90.357910,96.229797,110.173447,-2.921558,11.119514,6.882998,14.601768,7.336825,11.836766,0,6.124280,5.580798,6.722203,7.576699,8.883151,8.530473,14.684945,8.346611,6.522635,8.791879,6.244860,9.500877,6.485742,8.953888,8.083238,10.405600,8.744123,10.311282,9.872100,0,0.00252,0.00066,0.00119,0.00055,0.00283,0.00125,0.00109,0.00060,1.48586,0.09602,3.27706
0.082,0,0,0,0,0,0,0,0,0,0,0,0,0,0,0,0,126.558151,90.777184,96.556923,110.399437,-2.964893,11.115745,6.879573,14.600058,7.338229,11.814795,0,6.123132,5.581037,6.713943,7.577354,8.889199,8.517900,14.692185,8.345831,6.517395,8.794233,6.233198,9.502027,6.482862,8.958428,8.079666,10.407954,8.746471,10.313118,9.874832,0,0.00244,0.00069,0.00105,0.00057,0.00278,0.00121,0.00112,0.00060,1.48406,0.09604,3.27698
0.083,0,0,0,0,0,0,0,0,0,0,0,0,0,0,0,0,125.769836,91.106461,96.882202,110.647293,-3.004984,11.108850,6.876974,14.600631,7.334105,11.811655,0,6.121407,5.581402,6.708496,7.571911,8.889772,8.512645,14.695938,8.350415,6.513923,8.791924,6.225266,9.505529,6.477121,8.963035,8.077196,10.408751,8.750082,10.313937,9.876734,0,0.00239,0.00070,0.00101,0.00058,0.00275,0.00120,0.00113,0.00060,1.48315,0.09577,3.27735
0.084,0,0,0,0,0,0,0,0,0,0,0,0,0,0,0,0,124.983826,91.434471,97.207451,110.895462,-3.045028,11.101912,6.874388,14.601236,7.329903,11.808782,0,6.119674,5.581769,6.703089,7.566381,8.890268,8.507493,14.699642,8.355076,6.510477,8.789549,6.217387,9.509067,6.471340,8.967642,8.074740,10.409525,8.753711,10.314743,9.878625,0,0.00237,0.00069,0.00101,0.00057,0.00255,0.00120,0.00110,0.00060,1.48403,0.09595,3.27773
0.085,0,0,0,0,0,0,0,0,0,0,0,0,0,0,0,0,124.197815,91.762474,97.532707,111.143623,-3.085073,11.094974,6.871801,14.601842,7.325701,11.805909,0,6.117942,5.582136,6.697681,7.560852,8.890763,8.502341,14.703346,8.359736,6.507030,8.787173,6.209507,9.512603,6.465559,8.972249,8.072286,10.410299,8.757339,10.315548,9.880515,0,0.00234,0.00070,0.00106,0.00058,0.00238,0.00119,0.00112,0.00059,1.48345,0.09633,3.27707
0.086,0,0,0,0,0,0,0,0,0,0,0,0,0,0,0,0,123.411804,92.090477,97.857956,111.391792,-3.125117,11.088035,6.869215,14.602448,7.321499,11.803036,0,6.116209,5.582502,6.692274,7.555322,8.891259,8.497190,14.707050,8.364397,6.503583,8.784798,6.201628,9.516139,6.459778,8.976856,8.069830,10.411074,8.760969,10.316353,9.882405,0,0.00232,0.00071,0.00110,0.00058,0.00236,0.00118,0.00111,0.00061,1.48443,0.09635,3.27638
0.087,0,0,0,0,0,0,0,0,0,0,0,0,0,0,0,0,123.465149,92.737068,98.358238,111.784561,-3.148946,11.096582,6.865970,14.600102,7.322514,11.797733,0,6.114962,5.583763,6.690444,7.557160,8.906087,8.492482,14.698185,8.361462,6.503485,8.787516,6.194562,9.517483,6.459095,8.981545,8.068512,10.413336,8.765366,10.318979,9.887704,0,0.00227,0.00071,0.00113,0.00058,0.00250,0.00120,0.00113,0.00058,1.48511,0.09594,3.27644
0.088,0,0,0,0,0,0,0,0,0,0,0,0,0,0,0,0,123.530411,93.388184,98.861008,112.179382,-3.172544,11.105350,6.862717,14.597714,7.323602,11.792397,0,6.113721,5.585036,6.688665,7.559103,8.921119,8.487781,14.689142,8.358418,6.503434,8.790307,6.187508,9.518795,6.458484,8.986237,8.067211,10.415619,8.769773,10.321631,9.893051,0,0.00227,0.00069,0.00114,0.00059,0.00263,0.00127,0.00113,0.00056,1.48475,0.09610,3.27652
0.089,0,0,0,0,0,0,0,0,0,0,0,0,0,0,0,0,123.595665,94.039299,99.363777,112.574203,-3.196142,11.114118,6.859463,14.595327,7.324690,11.787060,0,6.112481,5.586309,6.686886,7.561045,8.936151,8.483078,14.680099,8.355375,6.503384,8.793097,6.180453,9.520107,6.457873,8.990927,8.065909,10.417902,8.774181,10.324284,9.898398,0,0.00230,0.00066,0.00111,0.00058,0.00283,0.00135,0.00128,0.00057,1.48321,0.09645,3.27682
0.090,0,0,0,0,0,0,0,0,0,0,0,0,0,0,0,0,123.660927,94.690414,99.866539,112.969025,-3.219741,11.122885,6.856209,14.592939,7.325778,11.781722,0,6.111240,5.587583,6.685107,7.562988,8.951182,8.478376,14.671056,8.352332,6.503333,8.795888,6.173399,9.521420,6.457263,8.995617,8.064608,10.420185,8.778589,10.326936,9.903746,0,0.00234,0.00066,0.00108,0.00059,0.00287,0.00136,0.00136,0.00059,1.48298,0.09644,3.27712
0.091,0,0,0,0,0,0,0,0,0,0,0,0,0,0,0,0,123.918518,95.701576,100.405769,113.222847,-3.220167,11.120915,6.852627,14.586293,7.326348,11.775672,0,6.109976,5.588149,6.679199,7.562274,8.941986,8.462231,14.664431,8.355795,6.478018,8.797915,6.163502,9.520747,6.452435,9.002668,8.064413,10.419855,8.786474,10.329717,9.912371,0,0.00234,0.00064,0.00104,0.00061,0.00276,0.00135,0.00132,0.00060,1.48617,0.09633,3.27728
0.092,0,0,0,0,0,0,0,0,0,0,0,0,0,0,0,0,124.178833,96.717857,100.945511,113.474663,-3.220264,11.118793,6.849041,14.579587,7.326910,11.769612,0,6.108711,5.588706,6.673233,7.561521,8.932446,8.445923,14.657839,8.359349,6.452344,8.799931,6.153563,9.520047,6.447546,9.009752,8.064235,10.419487,8.794408,10.332500,9.921043,0,0.00222,0.00065,0.00101,0.00059,0.00244,0.00133,0.00124,0.00059,1.48323,0.09634,3.27743
0.093,0,0,0,0,0,0,0,0,0,0,0,0,0,0,0,0,124.439156,97.734131,101.485252,113.726479,-3.220361,11.116671,6.845455,14.572881,7.327473,11.763552,0,6.107446,5.589262,6.667266,7.560769,8.922904,8.429615,14.651248,8.362905,6.426671,8.801947,6.143626,9.519347,6.442657,9.016837,8.064056,10.419119,8.802341,10.335282,9.929715,0,0.00229,0.00065,0.00101,0.00061,0.00236,0.00126,0.00121,0.00059,1.48447,0.09664,3.27744
0.094,0,0,0,0,0,0,0,0,0,0,0,0,0,0,0,0,124.699471,98.750404,102.025002,113.978294,-3.220457,11.114548,6.841868,14.566175,7.328035,11.757492,0,6.106182,5.589818,6.661300,7.560017,8.913363,8.413307,14.644657,8.366460,6.400997,8.803962,6.133688,9.518647,6.437769,9.023921,8.063878,10.418751,8.810275,10.338065,9.938388,0,0.00234,0.00068,0.00107,0.00060,0.00247,0.00124,0.00117,0.00059,1.48246,0.09681,3.27744
0.095,0,0,0,0,0,0,0,0,0,0,0,0,0,0,0,0,123.926483,99.935364,102.442223,113.982681,-3.219017,11.103184,6.838475,14.558153,7.328696,11.744760,0,6.104904,5.590872,6.653499,7.557693,8.921731,8.411786,14.610727,8.363736,6.384586,8.809353,6.119628,9.519876,6.437940,9.031498,8.066096,10.425110,8.817349,10.340497,9.942348,0,0.00191,0.00068,0.00116,0.00059,0.00249,0.00123,0.00115,0.00059,1.48403,0.09670,3.27736
0.096,0,0,0,0,0,0,0,0,0,0,0,0,0,0,0,0,123.138817,101.122719,102.857712,113.983551,-3.217554,11.091689,6.835085,14.550114,7.329359,11.731932,0,6.103627,5.591934,6.645671,7.555347,8.930352,8.410475,14.576409,8.360924,6.368307,8.814792,6.105511,9.521131,6.438182,9.039082,8.068349,10.431564,8.824411,10.342923,9.946243,0,0.00171,0.00070,0.00119,0.00060,0.00240,0.00126,0.00116,0.00060,1.48498,0.09660,3.27728
0.097,0,0,0,0,0,0,0,0,0,0,0,0,0,0,0,0,122.351158,102.310074,103.273193,113.984421,-3.216091,11.080194,6.831694,14.542073,7.330020,11.719105,0,6.102349,5.592996,6.637844,7.553001,8.938974,8.409163,14.542091,8.358111,6.352027,8.820230,6.091393,9.522386,6.438425,9.046665,8.070602,10.438019,8.831473,10.345350,9.950137,0,0.00166,0.00070,0.00121,0.00059,0.00259,0.00133,0.00113,0.00061,1.48469,0.09694,3.27676
0.098,0,0,0,0,0,0,0,0,0,0,0,0,0,0,0,0,121.563492,103.497429,103.688683,113.985291,-3.214628,11.068699,6.828304,14.534033,7.330683,11.706277,0,6.101071,5.594058,6.630016,7.550655,8.947596,8.407851,14.507773,8.355298,6.335748,8.825669,6.077275,9.523641,6.438668,9.054250,8.072855,10.444472,8.838535,10.347776,9.954032,0,0.00141,0.00070,0.00119,0.00059,0.00300,0.00126,0.00110,0.00063,1.48363,0.09712,3.27623
0.099,0,0,0,0,0,0,0,0,0,0,0,0,0,0,0,0,120.732811,104.478622,104.168503,114.108688,-3.164491,11.085667,6.825553,14.515156,7.327283,11.698012,0,6.099916,5.594685,6.620077,7.551617,8.947108,8.405087,14.493344,8.352023,6.327741,8.826471,6.064238,9.523243,6.438688,9.059894,8.073606,10.448014,8.845474,10.347697,9.960791,0,0.00136,0.00069,0.00117,0.00060,0.00337,0.00122,0.00113,0.00063,1.48268,0.09703,3.27704
0.100,0,0,0,0,0,0,0,0,0,0,0,0,0,0,0,0,119.901520,105.456886,104.649246,114.233826,-3.113664,11.103040,6.822812,14.496124,7.323825,11.689813,0,6.098763,5.595306,6.610107,7.552626,8.946490,8.402301,14.479198,8.348742,6.319851,8.827208,6.051216,9.522822,6.438706,9.065511,8.074334,10.451514,8.852411,10.347583,9.967589,0,0.00134,0.00069,0.00113,0.00059,0.00338,0.00118,0.00110,0.00062,1.48348,0.09672,3.27787
0.101,0,0,0,0,0,0,0,0,0,0,0,0,0,0,0,0,119.070229,106.435150,105.129982,114.358963,-3.062836,11.120412,6.820071,14.477094,7.320368,11.681613,0,6.097610,5.595928,6.600138,7.553635,8.945873,8.399516,14.465051,8.345459,6.311961,8.827944,6.038194,9.522402,6.438724,9.071128,8.075064,10.455014,8.859347,10.347467,9.974389,0,0.00133,0.00065,0.00106,0.00059,0.00331,0.00121,0.00106,0.00061,1.48324,0.09711,3.27767
0.102,0,0,0,0,0,0,0,0,0,0,0,0,0,0,0,0,118.238930,107.413414,105.610725,114.484100,-3.012008,11.137785,6.817330,14.458062,7.316911,11.673413,0,6.096457,5.596550,6.590169,7.554644,8.945255,8.396730,14.450904,8.342177,6.304072,8.828680,6.025172,9.521981,6.438741,9.076745,8.075792,10.458515,8.866284,10.347353,9.981188,0,0.00131,0.00061,0.00106,0.00057,0.00334,0.00133,0.00103,0.00059,1.48564,0.09725,3.27744
0.103,0,0,0,0,0,0,0,0,0,0,0,0,0,0,0,0,118.579117,107.773361,106.134041,114.784821,-2.940236,11.135666,6.814197,14.443963,7.319173,11.666034,0,6.095952,5.596165,6.575955,7.553445,8.948023,8.394547,14.435563,8.343822,6.294940,8.834881,6.015258,9.521892,6.436933,9.082780,8.071935,10.460457,8.871077,10.346722,9.983828,0,0.00131,0.00062,0.00109,0.00057,0.00337,0.00136,0.00107,0.00061,1.48276,0.09702,3.27699
0.104,0,0,0,0,0,0,0,0,0,0,0,0,0,0,0,0,118.935936,108.124527,106.657967,115.088036,-2.868166,11.133270,6.811058,14.429933,7.321517,11.658667,0,6.095456,5.595766,6.561681,7.552216,8.950838,8.392373,14.420206,8.345537,6.285792,8.841159,6.005388,9.521807,6.435099,9.088821,8.068012,10.462377,8.875839,10.346084,9.986408,0,0.00128,0.00063,0.00105,0.00056,0.00339,0.00135,0.00108,0.00062,1.48276,0.09677,3.27653
0.105,0,0,0,0,0,0,0,0,0,0,0,0,0,0,0,0,119.292747,108.475693,107.181892,115.391251,-2.796097,11.130874,6.807920,14.415903,7.323861,11.651299,0,6.094960,5.595367,6.547407,7.550985,8.953653,8.390200,14.404849,8.347253,6.276643,8.847437,5.995518,9.521722,6.433266,9.094863,8.064090,10.464297,8.880601,10.345446,9.988988,0,0.00132,0.00064,0.00103,0.00056,0.00353,0.00136,0.00108,0.00062,1.48448,0.09709,3.27712
0.106,0,0,0,0,0,0,0,0,0,0,0,0,0,0,0,0,119.649567,108.826859,107.705818,115.694466,-2.724027,11.128478,6.804780,14.401874,7.326205,11.643930,0,6.094464,5.594969,6.533133,7.549756,8.956469,8.388025,14.389491,8.348968,6.267494,8.853715,5.985648,9.521637,6.431432,9.100904,8.060167,10.466217,8.885363,10.344808,9.991569,0,0.00138,0.00065,0.00098,0.00054,0.00401,0.00135,0.00112,0.00061,1.48012,0.09730,3.27773
0.107,0,0,0,0,0,0,0,0,0,0,0,0,0,0,0,0,120.424202,109.260559,108.130402,115.968491,-2.611264,11.150844,6.801309,14.387457,7.317183,11.625122,0,6.093190,5.594465,6.526185,7.549978,8.961020,8.384092,14.379609,8.352285,6.249817,8.852578,5.980699,9.523466,6.422790,9.105886,8.056237,10.465866,8.890481,10.344926,9.996917,0,0.00142,0.00065,0.00094,0.00054,0.00452,0.00135,0.00114,0.00062,1.48437,0.09724,3.27692
0.108,0,0,0,0,0,0,0,0,0,0,0,0,0,0,0,0,121.204773,109.695435,108.553581,116.242111,-2.497924,11.173560,6.797832,14.373035,7.307998,11.606151,0,6.091906,5.593959,6.519341,7.550221,8.965596,8.380135,14.369804,8.355627,6.232019,8.851336,5.975819,9.525323,6.414051,9.110855,8.052308,10.465484,8.895604,10.345055,10.002305,0,0.00153,0.00067,0.00098,0.00054,0.00442,0.00130,0.00119,0.00061,1.48336,0.09699,3.27608
0.109,0,0,0,0,0,0,0,0,0,0,0,0,0,0,0,0,121.985336,110.130302,108.976761,116.515724,-2.384583,11.196277,6.794356,14.358613,7.298814,11.587179,0,6.090621,5.593454,6.512497,7.550464,8.970172,8.376177,14.360000,8.358968,6.214221,8.850094,5.970940,9.527179,6.405313,9.115823,8.048378,10.465101,8.900728,10.345183,10.007692,0,0.00166,0.00067,0.00100,0.00056,0.00439,0.00129,0.00110,0.00061,1.48318,0.09706,3.27636
0.110,0,0,0,0,0,0,0,0,0,0,0,0,0,0,0,0,122.765907,110.565178,109.399933,116.789345,-2.271242,11.218993,6.790879,14.344192,7.289630,11.568208,0,6.089336,5.592948,6.505653,7.550707,8.974749,8.372219,14.350195,8.362309,6.196424,8.848851,5.966060,9.529036,6.396574,9.120790,8.044449,10.464719,8.905851,10.345312,10.013081,0,0.00166,0.00067,0.00101,0.00056,0.00509,0.00143,0.00105,0.00061,1.48360,0.09721,3.27667
0.111,0,0,0,0,0,0,0,0,0,0,0,0,0,0,0,0,123.304832,111.456795,109.676933,116.885864,-2.129305,11.225650,6.789671,14.329155,7.292729,11.551138,0,6.087464,5.592615,6.496913,7.549263,8.974570,8.371359,14.337833,8.364694,6.176871,8.856412,5.955564,9.527913,6.395023,9.125109,8.043931,10.465624,8.907881,10.346052,10.017113,0,0.00170,0.00067,0.00100,0.00054,0.00534,0.00145,0.00104,0.00060,1.48357,0.09723,3.27675
0.112,0,0,0,0,0,0,0,0,0,0,0,0,0,0,0,0,123.840324,112.354897,109.951859,116.979874,-1.986962,11.232079,6.788496,14.314109,7.296003,11.534096,0,6.085584,5.592285,6.488146,7.547795,8.974325,8.370543,14.325435,8.367065,6.157294,8.864097,5.944987,9.526749,6.393575,9.129418,8.043462,10.466547,8.909866,10.346800,10.021126,0,0.00167,0.00067,0.00101,0.00055,0.00535,0.00143,0.00109,0.00061,1.48358,0.09691,3.27682
0.113,0,0,0,0,0,0,0,0,0,0,0,0,0,0,0,0,124.375824,113.253006,110.226784,117.073883,-1.844618,11.238507,6.787321,14.299064,7.299277,11.517053,0,6.083703,5.591954,6.479380,7.546327,8.974080,8.369727,14.313037,8.369436,6.137716,8.871782,5.934411,9.525583,6.392127,9.133728,8.042993,10.467471,8.911852,10.347548,10.025138,0,0.00146,0.00067,0.00100,0.00054,0.00533,0.00141,0.00109,0.00060,1.48381,0.09686,3.27735
0.114,0,0,0,0,0,0,0,0,0,0,0,0,0,0,0,0,124.911316,114.151108,110.501709,117.167892,-1.702275,11.244936,6.786145,14.284019,7.302551,11.500010,0,6.081823,5.591624,6.470613,7.544859,8.973835,8.368911,14.300638,8.371807,6.118139,8.879467,5.923835,9.524419,6.390678,9.138038,8.042523,10.468394,8.913837,10.348296,10.029151,0,0.00140,0.00065,0.00094,0.00055,0.00536,0.00142,0.00114,0.00061,1.48493,0.09713,3.27788
0.115,0,0,0,0,0,0,0,0,0,0,0,0,0,0,0,0,125.236290,115.012390,110.750908,117.323914,-1.549160,11.237391,6.784544,14.269562,7.307611,11.488185,0,6.080178,5.591604,6.467386,7.544175,8.974018,8.367044,14.291508,8.371164,6.102879,8.889821,5.919626,9.524066,6.388771,9.140793,8.042436,10.471658,8.917651,10.349903,10.037180,0,0.00149,0.00064,0.00086,0.00055,0.00593,0.00157,0.00127,0.00062,1.48287,0.09714,3.27745
0.116,0,0,0,0,0,0,0,0,0,0,0,0,0,0,0,0,125.558273,115.873154,110.999748,117.480820,-1.395891,11.229647,6.782938,14.255113,7.312696,11.476435,0,6.078536,5.591588,6.464237,7.543501,8.974208,8.365163,14.282423,8.370479,6.087680,8.900212,5.915508,9.523725,6.386858,9.143526,8.042354,10.474954,8.921492,10.351522,10.045265,0,0.00174,0.00063,0.00088,0.00055,0.00604,0.00157,0.00141,0.00063,1.48442,0.09684,3.27699
0.117,0,0,0,0,0,0,0,0,0,0,0,0,0,0,0,0,125.880257,116.733917,111.248589,117.637718,-1.242623,11.221903,6.781331,14.240664,7.317782,11.464684,0,6.076894,5.591573,6.461089,7.542828,8.974398,8.363281,14.273338,8.369793,6.072482,8.910604,5.911390,9.523383,6.384944,9.146259,8.042272,10.478250,8.925331,10.353141,10.053350,0,0.00178,0.00065,0.00086,0.00056,0.00566,0.00149,0.00145,0.00062,1.48578,0.09675,3.27713
0.118,0,0,0,0,0,0,0,0,0,0,0,0,0,0,0,0,126.202240,117.594681,111.497429,117.794617,-1.089354,11.214159,6.779725,14.226215,7.322868,11.452933,0,6.075252,5.591558,6.457940,7.542154,8.974587,8.361400,14.264254,8.369107,6.057283,8.920996,5.907271,9.523042,6.383030,9.148993,8.042190,10.481546,8.929172,10.354760,10.061436,0,0.00175,0.00066,0.00087,0.00056,0.00488,0.00143,0.00137,0.00061,1.48493,0.09701,3.27728
0.119,0,0,0,0,0,0,0,0,0,0,0,0,0,0,0,0,125.692215,118.602470,111.828049,118.006531,-0.913702,11.213294,6.778669,14.213421,7.321865,11.451143,0,6.074341,5.591104,6.448089,7.542618,8.980686,8.358896,14.255279,8.370420,6.045170,8.925921,5.901035,9.518173,6.382334,9.149968,8.042834,10.480131,8.930706,10.356437,10.069899,0,0.00191,0.00067,0.00088,0.00057,0.00474,0.00146,0.00137,0.00059,1.48259,0.09699,3.27713
0.120,0,0,0,0,0,0,0,0,0,0,0,0,0,0,0,0,125.170380,119.612350,112.159828,118.219231,-0.737732,11.212526,6.777621,14.200650,7.320775,11.449495,0,6.073441,5.590644,6.438143,7.543097,8.986868,8.356385,14.246305,8.371760,6.033100,8.930769,5.894770,9.513240,6.381655,9.150919,8.043489,10.478649,8.932207,10.358114,10.078367,0,0.00193,0.00067,0.00093,0.00060,0.00566,0.00163,0.00143,0.00058,1.48423,0.09685,3.27698
0.121,0,0,0,0,0,0,0,0,0,0,0,0,0,0,0,0,124.648544,120.622223,112.491600,118.431923,-0.561761,11.211759,6.776573,14.187880,7.319685,11.447846,0,6.072540,5.590183,6.428197,7.543577,8.993051,8.353873,14.237332,8.373101,6.021030,8.935616,5.888504,9.508307,6.380976,9.151869,8.044143,10.477168,8.933709,10.359792,10.086835,0,0.00192,0.00068,0.00094,0.00062,0.00578,0.00166,0.00145,0.00060,1.48239,0.09662,3.27720
0.122,0,0,0,0,0,0,0,0,0,0,0,0,0,0,0,0,124.126709,121.632103,112.823380,118.644623,-0.385791,11.210991,6.775525,14.175108,7.318596,11.446198,0,6.071640,5.589723,6.418252,7.544056,8.999232,8.351362,14.228359,8.374441,6.008960,8.940464,5.882238,9.503373,6.380297,9.152820,8.044797,10.475686,8.935211,10.361469,10.095304,0,0.00194,0.00070,0.00092,0.00063,0.00569,0.00153,0.00144,0.00061,1.48359,0.09675,3.27743
0.123,0,0,0,0,0,0,0,0,0,0,0,0,0,0,0,0,123.584969,122.430763,113.066307,118.720451,-0.222366,11.210178,6.775639,14.167119,7.318011,11.438809,0,6.071033,5.590665,6.408684,7.542289,9.007678,8.349473,14.217492,8.374474,6.003012,8.942173,5.874672,9.498178,6.379736,9.154997,8.047015,10.475623,8.940045,10.361794,10.104519,0,0.00193,0.00072,0.00091,0.00062,0.00567,0.00149,0.00139,0.00061,1.48328,0.09688,3.27751
0.124,0,0,0,0,0,0,0,0,0,0,0,0,0,0,0,0,123.042953,123.226425,113.307968,118.794342,-0.059118,11.209365,6.775770,14.159197,7.317433,11.431339,0,6.070429,5.591626,6.399122,7.540490,9.016155,8.347592,14.206597,8.374487,5.997151,8.943838,5.867088,9.492978,6.379177,9.157191,8.049254,10.475581,8.944927,10.362098,10.113746,0,0.00195,0.00073,0.00090,0.00060,0.00633,0.00157,0.00146,0.00062,1.48413,0.09692,3.27759
0.125,0,0,0,0,0,0,0,0,0,0,0,0,0,0,0,0,122.500931,124.022095,113.549629,118.868233,0.104129,11.208552,6.775900,14.151275,7.316855,11.423869,0,6.069826,5.592588,6.389560,7.538692,9.024632,8.345712,14.195704,8.374501,5.991290,8.945502,5.859504,9.487779,6.378617,9.159386,8.051495,10.475538,8.949809,10.362402,10.122972,0,0.00243,0.00073,0.00088,0.00059,0.00696,0.00210,0.00183,0.00062,1.48372,0.09652,3.27714
0.126,0,0,0,0,0,0,0,0,0,0,0,0,0,0,0,0,121.958916,124.817757,113.791298,118.942123,0.267376,11.207739,6.776031,14.143353,7.316277,11.416399,0,6.069223,5.593550,6.379999,7.536892,9.033110,8.343831,14.184810,8.374515,5.985429,8.947167,5.851920,9.482578,6.378057,9.161580,8.053734,10.475496,8.954691,10.362706,10.132198,0,0.00253,0.00071,0.00088,0.00059,0.00688,0.00224,0.00189,0.00063,1.48418,0.09655,3.27668
0.127,0,0,0,0,0,0,0,0,0,0,0,0,0,0,0,0,121.868866,125.561432,113.985291,119.033295,0.481508,11.207615,6.776510,14.133345,7.318636,11.424773,0,6.069213,5.593305,6.369079,7.538698,9.046728,8.341760,14.170233,8.374926,5.975046,8.944090,5.844969,9.480376,6.380737,9.162886,8.056709,10.477599,8.957672,10.364535,10.139222,0,0.00252,0.00070,0.00086,0.00060,0.00624,0.00223,0.00196,0.00063,1.48373,0.09685,3.27734
0.128,0,0,0,0,0,0,0,0,0,0,0,0,0,0,0,0,121.785240,126.304367,114.178604,119.124710,0.696363,11.207500,6.776993,14.123307,7.321037,11.433372,0,6.069211,5.593042,6.358140,7.540554,9.060420,8.339686,14.155603,8.375342,5.964599,8.940946,5.838028,9.478216,6.383463,9.164179,8.059696,10.479733,8.960627,10.366385,10.146214,0,0.00244,0.00069,0.00083,0.00059,0.00617,0.00221,0.00209,0.00066,1.48446,0.09687,3.27803
0.129,0,0,0,0,0,0,0,0,0,0,0,0,0,0,0,0,121.701614,127.047302,114.371918,119.216125,0.911218,11.207386,6.777476,14.113270,7.323438,11.441972,0,6.069210,5.592780,6.347201,7.542410,9.074111,8.337613,14.140975,8.375760,5.954152,8.937801,5.831087,9.476056,6.386189,9.165472,8.062682,10.481866,8.963581,10.368237,10.153207,0,0.00227,0.00069,0.00082,0.00059,0.00605,0.00214,0.00215,0.00067,1.48428,0.09643,3.27760
0.130,0,0,0,0,0,0,0,0,0,0,0,0,0,0,0,0,121.617981,127.790237,114.565231,119.307533,1.126073,11.207272,6.777960,14.103232,7.325839,11.450571,0,6.069208,5.592518,6.336263,7.544267,9.087803,8.335539,14.126346,8.376177,5.943705,8.934657,5.824145,9.473897,6.388915,9.166765,8.065668,10.484000,8.966536,10.370088,10.160199,0,0.00225,0.00071,0.00082,0.00058,0.00523,0.00200,0.00210,0.00073,1.48325,0.09656,3.27714
0.131,0,0,0,0,0,0,0,0,0,0,0,0,0,0,0,0,121.734314,128.709656,114.768967,119.414055,1.353796,11.174159,6.779519,14.081969,7.330861,11.446791,0,6.068786,5.591641,6.322699,7.542636,9.084490,8.333187,14.113891,8.380591,5.933070,8.937598,5.820973,9.468086,6.390241,9.166967,8.070869,10.482339,8.972645,10.370827,10.169538,0,0.00235,0.00071,0.00080,0.00059,0.00496,0.00195,0.00211,0.00077,1.48391,0.09688,3.27728
0.132,0,0,0,0,0,0,0,0,0,0,0,0,0,0,0,0,121.853485,129.631561,114.972839,119.520790,1.581702,11.140578,6.781092,14.060547,7.335921,11.442835,0,6.068358,5.590756,6.309098,7.540955,9.080935,8.330831,14.101466,8.385063,5.922432,8.940625,5.817855,9.462225,6.391546,9.167153,8.076102,10.480623,8.978799,10.371550,10.178910,0,0.00238,0.00071,0.00079,0.00059,0.00494,0.00194,0.00210,0.00080,1.48306,0.09690,3.27743
0.133,0,0,0,0,0,0,0,0,0,0,0,0,0,0,0,0,121.972656,130.553482,115.176720,119.627525,1.809608,11.106997,6.782666,14.039124,7.340981,11.438878,0,6.067930,5.589870,6.295497,7.539275,9.077381,8.328474,14.089042,8.389535,5.911795,8.943652,5.814736,9.456363,6.392852,9.167339,8.081334,10.478909,8.984953,10.372273,10.188283,0,0.00240,0.00069,0.00081,0.00060,0.00491,0.00194,0.00227,0.00085,1.48342,0.09673,3.27736
0.134,0,0,0,0,0,0,0,0,0,0,0,0,0,0,0,0,122.091827,131.475403,115.380600,119.734261,2.037513,11.073417,6.784240,14.017701,7.346040,11.434922,0,6.067502,5.588985,6.281896,7.537594,9.073827,8.326118,14.076617,8.394007,5.901157,8.946680,5.811618,9.450500,6.394157,9.167525,8.086567,10.477193,8.991107,10.372996,10.197655,0,0.00236,0.00069,0.00080,0.00065,0.00464,0.00191,0.00246,0.00087,1.48521,0.09679,3.27728
0.135,0,0,0,0,0,0,0,0,0,0,0,0,0,0,0,0,122.052422,132.642670,115.534126,119.814766,2.308157,11.083411,6.786183,14.009340,7.337863,11.397459,0,6.067029,5.589082,6.274298,7.535066,9.088648,8.323134,14.066982,8.396047,5.889989,8.946337,5.810017,9.444684,6.401199,9.166910,8.096909,10.476589,8.999215,10.374614,10.201424,0,0.00232,0.00070,0.00082,0.00066,0.00409,0.00177,0.00246,0.00086,1.48406,0.09702,3.27728
0.136,0,0,0,0,0,0,0,0,0,0,0,0,0,0,0,0,122.010765,133.813400,115.686935,119.894905,2.579408,11.094026,6.788132,14.001164,7.329497,11.359520,0,6.066555,5.589194,6.266785,7.532525,9.103730,8.320144,14.057386,8.398052,5.878813,8.945947,5.808437,9.438868,6.408321,9.166283,8.107322,10.476002,9.007351,10.376244,10.205113,0,0.00202,0.00071,0.00077,0.00065,0.00384,0.00172,0.00231,0.00086,1.48375,0.09718,3.27728
0.137,0,0,0,0,0,0,0,0,0,0,0,0,0,0,0,0,121.969109,134.984146,115.839745,119.975037,2.850659,11.104639,6.790081,13.992988,7.321132,11.321581,0,6.066081,5.589305,6.259272,7.529984,9.118812,8.317152,14.047791,8.400057,5.867637,8.945557,5.806857,9.433051,6.415444,9.165656,8.117736,10.475414,9.015487,10.377872,10.208802,0,0.00197,0.00072,0.00076,0.00064,0.00403,0.00171,0.00227,0.00086,1.48304,0.09717,3.27736
0.138,0,0,0,0,0,0,0,0,0,0,0,0,0,0,0,0,121.927444,136.154892,115.992554,120.055176,3.121910,11.115252,6.792029,13.984812,7.312766,11.283642,0,6.065607,5.589417,6.251760,7.527444,9.133894,8.314161,14.038195,8.402062,5.856461,8.945167,5.805277,9.427235,6.422567,9.165029,8.128149,10.474827,9.023623,10.379502,10.212492,0,0.00195,0.00070,0.00074,0.00064,0.00415,0.00168,0.00228,0.00085,1.48271,0.09698,3.27743
0.139,0,0,0,0,0,0,0,0,0,0,0,0,0,0,0,0,122.051361,137.389603,115.994797,119.967705,3.419563,11.111094,6.796263,13.965186,7.312592,11.263317,0,6.064464,5.587775,6.242024,7.527883,9.144482,8.310937,14.031656,8.404316,5.847054,8.947095,5.803660,9.419471,6.434302,9.165631,8.142959,10.475183,9.034796,10.385118,10.220848,0,0.00183,0.00070,0.00075,0.00064,0.00388,0.00165,0.00231,0.00085,1.48574,0.09717,3.27706
0.140,0,0,0,0,0,0,0,0,0,0,0,0,0,0,0,0,122.177620,138.625214,115.994911,119.877846,3.717591,11.106727,6.800530,13.945397,7.312534,11.243243,0,6.063312,5.586109,6.232256,7.528364,9.155006,8.307710,14.025161,8.406574,5.837674,8.949058,5.802042,9.411678,6.446103,9.166251,8.157830,10.475552,9.046013,10.390792,10.229270,0,0.00178,0.00068,0.00069,0.00061,0.00295,0.00150,0.00241,0.00085,1.48439,0.09741,3.27668
0.141,0,0,0,0,0,0,0,0,0,0,0,0,0,0,0,0,122.303879,139.860840,115.995018,119.787994,4.015619,11.102359,6.804797,13.925610,7.312476,11.223168,0,6.062160,5.584442,6.222489,7.528846,9.165531,8.304482,14.018665,8.408832,5.828293,8.951019,5.800425,9.403886,6.457903,9.166871,8.172702,10.475921,9.057230,10.396465,10.237693,0,0.00192,0.00069,0.00067,0.00057,0.00276,0.00143,0.00255,0.00084,1.48478,0.09715,3.27697
0.142,0,0,0,0,0,0,0,0,0,0,0,0,0,0,0,0,122.430138,141.096451,115.995132,119.698143,4.313648,11.097991,6.809063,13.905821,7.312418,11.203094,0,6.061007,5.582776,6.212722,7.529327,9.176056,8.301255,14.012170,8.411090,5.818912,8.952981,5.798807,9.396093,6.469704,9.167491,8.187573,10.476290,9.068446,10.402139,10.246115,0,0.00195,0.00068,0.00068,0.00058,0.00308,0.00148,0.00269,0.00083,1.48219,0.09681,3.27728
0.143,0,0,0,0,0,0,0,0,0,0,0,0,0,0,0,0,123.095360,141.986740,115.666237,119.324226,4.441149,11.092229,6.813354,13.905806,7.311784,11.203864,0,6.059864,5.580538,6.205642,7.531993,9.154460,8.300923,14.005235,8.421173,5.808773,8.957379,5.802654,9.392551,6.485846,9.167628,8.204235,10.482502,9.079136,10.408175,10.255299,0,0.00197,0.00068,0.00067,0.00058,0.00387,0.00157,0.00302,0.00084,1.48370,0.09709,3.27721
0.144,0,0,0,0,0,0,0,0,0,0,0,0,0,0,0,0,123.768227,142.872116,115.332664,118.946274,4.566230,11.086447,6.817644,13.906070,7.311141,11.204930,0,6.058720,5.578292,6.198599,7.534691,9.132407,8.300632,13.998294,8.431368,5.798624,8.961812,5.806579,9.389071,6.502049,9.167759,8.220922,10.488797,9.089817,10.414215,10.264492,0,0.00198,0.00066,0.00069,0.00060,0.00350,0.00159,0.00326,0.00084,1.48341,0.09730,3.27713
0.145,0,0,0,0,0,0,0,0,0,0,0,0,0,0,0,0,124.441101,143.757492,114.999100,118.568321,4.691310,11.080666,6.821934,13.906335,7.310499,11.205997,0,6.057577,5.576046,6.191556,7.537388,9.110354,8.300342,13.991352,8.441563,5.788474,8.966245,5.810504,9.385589,6.518253,9.167890,8.237609,10.495092,9.100499,10.420256,10.273686,0,0.00149,0.00064,0.00070,0.00061,0.00275,0.00116,0.00298,0.00083,1.48417,0.09703,3.27698
0.146,0,0,0,0,0,0,0,0,0,0,0,0,0,0,0,0,125.113968,144.642868,114.665527,118.190376,4.816391,11.074883,6.826224,13.906599,7.309856,11.207062,0,6.056433,5.573801,6.184514,7.540085,9.088302,8.300050,13.984411,8.451757,5.778324,8.970677,5.814429,9.382107,6.534457,9.168020,8.254296,10.501389,9.111180,10.426296,10.282880,0,0.00133,0.00065,0.00071,0.00062,0.00320,0.00113,0.00320,0.00082,1.48359,0.09682,3.27683
0.147,0,0,0,0,0,0,0,0,0,0,0,0,0,0,0,0,125.665779,145.809753,114.132233,117.658417,4.760086,11.066978,6.832842,13.891813,7.312925,11.203675,0,6.054937,5.572319,6.178278,7.544640,9.080913,8.299529,13.974054,8.456952,5.773923,8.973804,5.822914,9.377119,6.550525,9.162890,8.272038,10.505389,9.118903,10.431266,10.290976,0,0.00129,0.00068,0.00072,0.00062,0.00351,0.00144,0.00321,0.00083,1.48444,0.09707,3.27697
0.148,0,0,0,0,0,0,0,0,0,0,0,0,0,0,0,0,126.215874,146.980637,113.596100,117.124275,4.701207,11.059044,6.839493,13.876814,7.316047,11.200225,0,6.053436,5.570849,6.172053,7.549220,9.073732,8.299006,13.963650,8.462076,5.769604,8.976912,5.831464,9.372109,6.566592,9.157685,8.289796,10.509358,9.126584,10.436220,10.299056,0,0.00129,0.00072,0.00072,0.00061,0.00352,0.00153,0.00346,0.00081,1.48515,0.09724,3.27713
0.149,0,0,0,0,0,0,0,0,0,0,0,0,0,0,0,0,126.765968,148.151520,113.059967,116.590134,4.642327,11.051109,6.846144,13.861814,7.319169,11.196774,0,6.051936,5.569378,6.165828,7.553801,9.066552,8.298482,13.953244,8.467199,5.765284,8.980021,5.840014,9.367100,6.582658,9.152481,8.307553,10.513328,9.134264,10.441175,10.307137,0,0.00129,0.00076,0.00070,0.00062,0.00352,0.00154,0.00358,0.00079,1.48507,0.09715,3.27773
0.150,0,0,0,0,0,0,0,0,0,0,0,0,0,0,0,0,127.316063,149.322418,112.523834,116.055992,4.583448,11.043174,6.852795,13.846814,7.322291,11.193324,0,6.050435,5.567908,6.159604,7.558382,9.059371,8.297958,13.942840,8.472323,5.760965,8.983129,5.848563,9.362090,6.598724,9.147276,8.325311,10.517297,9.141945,10.446129,10.315216,0,0.00126,0.00077,0.00070,0.00062,0.00363,0.00163,0.00390,0.00074,1.48361,0.09684,3.27834
0.151,0,0,0,0,0,0,0,0,0,0,0,0,0,0,0,0,128.207809,151.379120,112.000572,115.358337,4.279085,11.049892,6.860155,13.825491,7.322973,11.195346,0,6.049727,5.566483,6.150078,7.549217,9.097998,8.297552,13.927266,8.481918,5.757407,8.988904,5.861192,9.347212,6.617033,9.136479,8.348862,10.516910,9.147597,10.448057,10.320065,0,0.00149,0.00076,0.00071,0.00063,0.00387,0.00167,0.00409,0.00069,1.48475,0.09680,3.27738
0.152,0,0,0,0,0,0,0,0,0,0,0,0,0,0,0,0,129.104416,153.448395,111.477493,114.658363,3.971237,11.056818,6.867525,13.804077,7.323621,11.197447,0,6.049030,5.565060,6.140505,7.539858,9.137275,8.297149,13.911620,8.491578,5.753860,8.994718,5.873879,9.332193,6.635375,9.125604,8.372494,10.516460,9.153221,10.449943,10.324866,0,0.00165,0.00077,0.00071,0.00062,0.00459,0.00175,0.00442,0.00067,1.48541,0.09699,3.27639
0.153,0,0,0,0,0,0,0,0,0,0,0,0,0,0,0,0,130.001022,155.517685,110.954422,113.958389,3.663389,11.063745,6.874895,13.782664,7.324269,11.199547,0,6.048334,5.563636,6.130933,7.530499,9.176552,8.296744,13.895973,8.501237,5.750312,9.000531,5.886566,9.317176,6.653716,9.114728,8.396127,10.516011,9.158845,10.451828,10.329668,0,0.00163,0.00078,0.00068,0.00063,0.00489,0.00181,0.00445,0.00061,1.47994,0.09707,3.27726
0.154,0,0,0,0,0,0,0,0,0,0,0,0,0,0,0,0,130.897629,157.586960,110.431343,113.258415,3.355541,11.070670,6.882265,13.761250,7.324917,11.201647,0,6.047637,5.562213,6.121360,7.521140,9.215828,8.296341,13.880327,8.510896,5.746765,9.006345,5.899253,9.302157,6.672057,9.103852,8.419759,10.515562,9.164469,10.453713,10.334470,0,0.00165,0.00081,0.00069,0.00060,0.00491,0.00181,0.00488,0.00065,1.48563,0.09678,3.27818
0.155,0,0,0,0,0,0,0,0,0,0,0,0,0,0,0,0,133.751740,159.142166,109.757187,112.750122,3.030329,11.061844,6.882143,13.754885,7.325842,11.198947,0,6.047322,5.560158,6.115849,7.518457,9.231567,8.297835,13.862928,8.524151,5.733523,9.010971,5.916961,9.277813,6.699105,9.091412,8.446505,10.514454,9.170704,10.454101,10.342560,0,0.00169,0.00088,0.00069,0.00062,0.00492,0.00183,0.00560,0.00072,1.48395,0.09645,3.27775
0.156,0,0,0,0,0,0,0,0,0,0,0,0,0,0,0,0,136.633621,160.690079,109.080894,112.244553,2.704870,11.052794,6.881915,13.748732,7.326771,11.196179,0,6.047011,5.558095,6.110394,7.515870,9.246973,8.299357,13.845505,8.537457,5.720144,9.015580,5.934741,9.253336,6.726278,9.078949,8.473294,10.513337,9.176947,10.454466,10.350698,0,0.00171,0.00094,0.00070,0.00065,0.00493,0.00223,0.00598,0.00074,1.48323,0.09667,3.27729
0.157,0,0,0,0,0,0,0,0,0,0,0,0,0,0,0,0,139.515518,162.237976,108.404594,111.738976,2.379412,11.043743,6.881687,13.742579,7.327700,11.193412,0,6.046701,5.556031,6.104940,7.513283,9.262378,8.300879,13.828082,8.550764,5.706765,9.020190,5.952520,9.228859,6.753450,9.066487,8.500084,10.512220,9.183190,10.454831,10.358834,0,0.00171,0.00093,0.00069,0.00067,0.00478,0.00230,0.00668,0.00086,1.48380,0.09676,3.27713
0.158,0,0,0,0,0,0,0,0,0,0,0,0,0,0,0,0,142.397415,163.785889,107.728294,111.233406,2.053953,11.034693,6.881460,13.736425,7.328629,11.190644,0,6.046391,5.553968,6.099486,7.510695,9.277783,8.302401,13.810658,8.564071,5.693386,9.024799,5.970300,9.204382,6.780623,9.054025,8.526875,10.511104,9.189433,10.455196,10.366972,0,0.00177,0.00108,0.00069,0.00068,0.00460,0.00231,0.00702,0.00111,1.48494,0.09656,3.27698
0.159,0,0,0,0,0,0,0,0,0,0,0,0,0,0,0,0,144.098389,163.847473,107.018471,111.190628,1.810261,11.045112,6.881986,13.718697,7.337146,11.181312,0,6.046258,5.550117,6.079348,7.517085,9.274631,8.301952,13.796302,8.568562,5.640288,9.025557,5.978628,9.196959,6.806482,9.041560,8.553203,10.507215,9.197133,10.461074,10.377161,0,0.00199,0.00121,0.00067,0.00073,0.00455,0.00230,0.00723,0.00149,1.48538,0.09621,3.27683
0.160,0,0,0,0,0,0,0,0,0,0,0,0,0,0,0,0,145.782608,163.887970,106.308167,111.154427,1.567729,11.055806,6.882524,13.700803,7.345771,11.171885,0,6.046127,5.546239,6.059000,7.523601,9.271214,8.301477,13.781988,8.572927,5.586627,9.026259,5.986821,9.189779,6.832323,9.029097,8.579524,10.503286,9.204854,10.467031,10.387381,0,0.00217,0.00161,0.00070,0.00080,0.00452,0.00232,0.00712,0.00192,1.48541,0.09629,3.27668
0.161,0,0,0,0,0,0,0,0,0,0,0,1,0,0,0,0,147.466827,163.928452,105.597862,111.118225,1.325198,11.066502,6.883060,13.682909,7.354395,11.162459,0,6.045997,5.542363,6.038653,7.530118,9.267798,8.301002,13.767675,8.577292,5.532966,9.026961,5.995015,9.182599,6.858163,9.016632,8.605845,10.499357,9.212575,10.472987,10.397599,0,0.00207,0.00246,0.00070,0.00091,0.00452,0.00235,0.00703,0.00204,1.48308,0.09642,3.27690
0.162,0,0,0,0,0,0,1,0,0,0,0,0,0,0,0,0,149.151047,163.968948,104.887558,111.082024,1.082667,11.077197,6.883598,13.665016,7.363020,11.153033,0,6.045866,5.538486,6.018305,7.536634,9.264382,8.300527,13.753362,8.581658,5.479305,9.027664,6.003208,9.175419,6.884003,9.004169,8.632167,10.495429,9.220296,10.478944,10.407819,0,0.00204,0.00268,0.00071,0.00100,0.00426,0.00233,0.00699,0.00241,1.48300,0.09641,3.27713
0.163,0,0,0,0,0,0,1,0,0,0,0,0,0,0,0,0,149.458633,163.671097,104.982147,111.641945,0.954612,11.105577,6.883726,13.652246,7.365820,11.154906,0,6.046134,5.533361,6.029562,7.538552,9.259816,8.299771,13.739375,8.579647,5.492832,9.024406,6.013864,9.177262,6.912579,8.997516,8.648384,10.489609,9.230680,10.480948,10.420112,0,0.00201,0.00427,0.00074,0.00118,0.00344,0.00225,0.00796,0.00286,1.48659,0.09622,3.27706
0.164,0,0,0,0,0,0,1,0,0,0,0,0,0,0,0,0,149.746674,163.368439,105.088158,112.210335,0.828183,11.134210,6.883847,13.639550,7.368537,11.156940,0,6.046408,5.528218,6.041266,7.540404,9.255233,8.299012,13.725392,8.577546,5.507314,9.021092,6.024554,9.179234,6.941194,8.990945,8.664459,10.483761,9.241104,10.482898,10.432434,0,0.00201,0.00450,0.00133,0.00154,0.00320,0.00219,0.00831,0.00318,1.48477,0.09600,3.27698
0.165,0,0,0,0,0,0,1,0,0,0,0,0,0,0,0,0,150.034714,163.065781,105.194168,112.778717,0.701755,11.162842,6.883969,13.626854,7.371254,11.158972,0,6.046681,5.523075,6.052971,7.542256,9.250650,8.298253,13.711411,8.575444,5.521795,9.017778,6.035244,9.181205,6.969809,8.984374,8.680533,10.477914,9.251527,10.484847,10.444756,0,0.00201,0.00455,0.00151,0.00163,0.00313,0.00207,0.00863,0.00326,1.48447,0.09619,3.27698
0.166,0,0,0,0,0,0,1,0,0,0,0,0,0,0,0,0,150.322754,162.763138,105.300179,113.347099,0.575326,11.191474,6.884091,13.614157,7.373971,11.161005,0,6.046955,5.517932,6.064675,7.544108,9.246067,8.297494,13.697428,8.573343,5.536276,9.014465,6.045935,9.183176,6.998423,8.977803,8.696608,10.472067,9.261950,10.486796,10.457078,0,0.00199,0.00459,0.00153,0.00177,0.00238,0.00197,0.00873,0.00326,1.48458,0.09641,3.27698
0.167,0,0,0,0,0,0,1,0,0,0,0,0,0,0,0,0,151.759064,162.276062,105.651794,113.964638,0.547633,11.200728,6.886095,13.605893,7.378516,11.154616,0,6.047288,5.510304,6.075903,7.546019,9.240645,8.296866,13.689103,8.576434,5.562227,9.003907,6.059616,9.177216,7.003280,8.978260,8.701535,10.466353,9.279694,10.490132,10.468956,0,0.00197,0.00473,0.00196,0.00185,0.00198,0.00162,0.00893,0.00326,1.48550,0.09627,3.27713
0.168,0,0,0,0,0,0,1,0,0,0,0,0,0,0,0,0,153.211685,161.786377,106.006889,114.582870,0.521342,11.209709,6.888124,13.597692,7.383086,11.148108,0,6.047621,5.502640,6.087125,7.547930,9.235210,8.296241,13.680860,8.579598,5.588341,8.993246,6.073339,9.171143,7.007800,8.978815,8.706304,10.460643,9.297542,10.493487,10.480827,0,0.00200,0.00500,0.00252,0.00204,0.00196,0.00153,0.00897,0.00328,1.48405,0.09574,3.27728
0.169,0,0,0,0,0,0,1,0,0,0,0,0,0,0,0,0,154.664291,161.296692,106.361984,115.201103,0.495052,11.218689,6.890154,13.589492,7.387656,11.141599,0,6.047955,5.494976,6.098346,7.549842,9.229776,8.295614,13.672615,8.582763,5.614454,8.982585,6.087063,9.165070,7.012320,8.979371,8.711073,10.454931,9.315389,10.496842,10.492699,0,0.00203,0.00569,0.00291,0.00216,0.00195,0.00153,0.00883,0.00331,1.48311,0.09594,3.27713
0.170,0,0,0,0,0,0,1,0,0,0,0,0,0,0,0,0,156.116913,160.807007,106.717079,115.819336,0.468761,11.227669,6.892184,13.581290,7.392227,11.135091,0,6.048288,5.487312,6.109567,7.551754,9.224342,8.294989,13.664371,8.585928,5.640568,8.971924,6.100787,9.158997,7.016840,8.979927,8.715842,10.449221,9.333237,10.500198,10.504571,0,0.00207,0.00641,0.00296,0.00241,0.00188,0.00146,0.00851,0.00332,1.48221,0.09627,3.27698
0.171,0,0,0,0,0,0,1,0,0,0,0,0,0,0,0,0,158.543350,159.308182,106.152237,115.666519,0.344775,11.273092,6.892212,13.571157,7.394922,11.145155,0,6.048604,5.479279,6.132501,7.554380,9.228186,8.294614,13.647846,8.576886,5.623038,8.968164,6.118564,9.163190,7.021535,8.978739,8.726643,10.446479,9.347480,10.500021,10.512776,0,0.00175,0.00642,0.00299,0.00246,0.00170,0.00140,0.00829,0.00332,1.48424,0.09621,3.27705
0.172,0,0,0,0,0,0,1,0,0,0,0,0,0,0,0,0,160.983612,157.795013,105.574333,115.502762,0.219402,11.319033,6.892212,13.560998,7.397591,11.155455,0,6.048920,5.471241,6.155602,7.557016,9.232162,8.294242,13.631205,8.567672,5.604888,8.964503,6.136398,9.167528,7.026232,8.977526,8.737530,10.443780,9.361671,10.499794,10.520929,0,0.00146,0.00646,0.00300,0.00251,0.00096,0.00133,0.00824,0.00331,1.48522,0.09592,3.27713
0.173,0,0,0,0,0,0,1,0,0,0,0,0,0,0,0,0,163.423874,156.281860,104.996429,115.338997,0.094028,11.364973,6.892212,13.550838,7.400259,11.165754,0,6.049236,5.463203,6.178702,7.559653,9.236137,8.293870,13.614563,8.558457,5.586739,8.960842,6.154232,9.171866,7.030930,8.976314,8.748416,10.441081,9.375863,10.499567,10.529083,0,0.00144,0.00651,0.00299,0.00284,0.00061,0.00130,0.00818,0.00333,1.48494,0.09578,3.27720
0.174,0,0,0,0,0,0,1,0,0,0,0,0,0,0,0,0,165.864136,154.768692,104.418518,115.175240,-0.031345,11.410914,6.892211,13.540677,7.402928,11.176054,0,6.049551,5.455165,6.201803,7.562289,9.240113,8.293498,13.597921,8.549243,5.568590,8.957181,6.172066,9.176205,7.035627,8.975101,8.759302,10.438382,9.390056,10.499339,10.537236,0,0.00143,0.00652,0.00356,0.00295,0.00059,0.00129,0.00770,0.00331,1.48374,0.09592,3.27728
0.175,0,0,0,0,0,0,1,0,0,0,0,0,0,0,0,0,167.732635,151.878616,102.966576,114.604843,-0.202430,11.449558,6.891798,13.527241,7.070824,11.744625,0,6.050057,5.446371,6.212617,7.560789,9.232692,8.296605,13.587949,8.551990,5.593640,8.952403,6.216079,9.188954,7.054907,8.969146,8.779540,10.438628,9.397696,10.497826,10.541714,0,0.00143,0.00645,0.00385,0.00308,0.00058,0.00128,0.00682,0.00335,1.48452,0.09611,3.27728
0.176,0,0,0,0,0,0,1,0,0,0,0,0,0,0,0,0,169.593018,148.968979,101.502213,114.028679,-0.374163,11.488099,6.891379,13.513759,6.733967,12.321123,0,6.050566,5.437566,6.223257,7.559229,9.225108,8.299762,13.578071,8.554907,5.619303,8.947610,6.260464,9.201823,7.074395,8.963124,8.799911,10.438917,9.405244,10.496294,10.546140,0,0.00149,0.00650,0.00467,0.00305,0.00056,0.00091,0.00652,0.00336,1.48327,0.09608,3.27728
0.177,0,0,0,0,0,0,1,0,0,0,0,0,0,0,0,0,171.453384,146.059341,100.037857,113.452515,-0.545896,11.526639,6.890961,13.500276,6.397110,12.897622,0,6.051075,5.428761,6.233896,7.557670,9.217525,8.302918,13.568192,8.557823,5.644967,8.942817,6.304849,9.214691,7.093882,8.957103,8.820281,10.439205,9.412792,10.494762,10.550565,0,0.00153,0.00757,0.00529,0.00310,0.00055,0.00082,0.00599,0.00330,1.48499,0.09567,3.27683
0.178,0,0,0,0,0,0,1,0,0,0,0,0,0,0,0,0,173.313766,143.149719,98.573494,112.876343,-0.717630,11.565180,6.890542,13.486794,6.060253,13.474120,0,6.051583,5.419957,6.244536,7.556110,9.209942,8.306075,13.558314,8.560740,5.670630,8.938024,6.349234,9.227560,7.113369,8.951080,8.840652,10.439494,9.420340,10.493230,10.554990,0,0.00151,0.00898,0.00642,0.00334,0.00056,0.00081,0.00559,0.00320,1.48444,0.09561,3.27638
0.179,0,0,0,0,0,0,1,0,0,0,0,0,0,0,0,0,173.393875,139.483292,96.413391,111.926331,-0.985171,11.579885,6.890130,13.480196,6.058411,13.475014,0,6.052526,5.410291,6.276452,7.560988,9.209109,8.306305,13.548349,8.551163,5.725566,8.940762,6.387937,9.262209,7.144708,8.949039,8.861814,10.438893,9.425582,10.492479,10.558595,0,0.00128,0.00900,0.00690,0.00336,0.00055,0.00081,0.00542,0.00286,1.48481,0.09591,3.27652
0.180,0,0,0,0,0,0,1,0,0,0,0,0,0,0,0,0,173.448700,135.806137,94.243408,110.971016,-1.254072,11.594253,6.889719,13.473697,6.061326,13.467735,0,6.053475,5.400613,6.308669,7.565957,9.208373,8.306493,13.538383,8.541409,5.780917,8.943606,6.426559,9.297167,7.176216,8.947052,8.882988,10.438279,9.430792,10.491739,10.562187,0,0.00108,0.00879,0.00745,0.00362,0.00055,0.00080,0.00560,0.00242,1.48265,0.09595,3.27667
0.181,0,0,0,0,0,0,1,0,0,0,0,0,0,0,0,0,173.503525,132.128967,92.073425,110.015694,-1.522974,11.608619,6.889307,13.467197,6.064240,13.460456,0,6.054424,5.390934,6.340887,7.570926,9.207636,8.306682,13.528418,8.531654,5.836269,8.946451,6.465181,9.332125,7.207724,8.945066,8.904162,10.437666,9.436002,10.490999,10.565780,0,0.00107,0.00797,0.00839,0.00371,0.00055,0.00079,0.00593,0.00231,1.48423,0.09560,3.27705
0.182,0,0,0,0,0,0,1,0,0,0,0,0,0,0,0,0,173.558350,128.451813,89.903442,109.060371,-1.791875,11.622986,6.888896,13.460698,6.067155,13.453177,0,6.055373,5.381257,6.373105,7.575895,9.206900,8.306870,13.518451,8.521900,5.891620,8.949296,6.503804,9.367083,7.239231,8.943080,8.925336,10.437052,9.441212,10.490259,10.569372,0,0.00113,0.00779,0.01042,0.00376,0.00055,0.00077,0.00604,0.00201,1.48486,0.09528,3.27743
0.183,0,0,0,0,0,0,1,0,0,0,0,0,0,0,0,0,172.790161,124.998993,87.391808,108.017624,-2.115817,11.629337,6.886427,13.450257,6.070193,13.443971,0,6.055809,5.373577,6.438286,7.578425,9.197224,8.303676,13.509103,8.527280,5.983156,8.972656,6.560080,9.415704,7.273263,8.941446,8.952785,10.445308,9.446830,10.489031,10.570777,0,0.00113,0.00634,0.01182,0.00369,0.00055,0.00076,0.00493,0.00173,1.48499,0.09551,3.27676
0.184,0,0,0,0,0,0,1,0,0,0,0,0,0,0,0,0,172.010284,121.549362,84.875328,106.973640,-2.440541,11.635574,6.883928,13.439761,6.073232,13.434736,0,6.056237,5.365926,6.503935,7.580920,9.187421,8.300433,13.499764,8.532874,6.075206,8.996308,6.616607,9.464520,7.307330,8.939817,8.980325,10.453689,9.452454,10.487797,10.572150,0,0.00113,0.00637,0.01211,0.00332,0.00055,0.00073,0.00419,0.00148,1.48309,0.09560,3.27608
0.185,0,0,0,0,0,0,1,0,0,0,0,0,0,0,0,0,171.230408,118.099724,82.358841,105.929649,-2.765265,11.641811,6.881430,13.429264,6.076272,13.425502,0,6.056665,5.358275,6.569584,7.583416,9.177618,8.297191,13.490425,8.538469,6.167256,9.019959,6.673133,9.513335,7.341397,8.938189,9.007863,10.462070,9.458078,10.486562,10.573524,0,0.00111,0.00649,0.01231,0.00325,0.00055,0.00072,0.00386,0.00140,1.48250,0.09564,3.27673
0.186,0,0,0,0,0,0,1,0,0,0,0,0,0,0,0,0,170.450531,114.650093,79.842361,104.885666,-3.089988,11.648048,6.878931,13.418767,6.079311,13.416268,0,6.057093,5.350625,6.635233,7.585911,9.167815,8.293949,13.481086,8.544064,6.259306,9.043612,6.729660,9.562150,7.375465,8.936560,9.035402,10.470452,9.463702,10.485327,10.574897,0,0.00113,0.00659,0.01370,0.00316,0.00055,0.00071,0.00394,0.00142,1.48333,0.09540,3.27742
0.187,0,0,0,0,0,0,1,0,0,0,0,0,0,0,0,0,170.726257,111.606308,78.274361,104.589714,-3.356466,11.654064,6.875759,13.411788,6.437097,13.275510,0,6.057765,5.344426,6.713162,7.584116,9.165552,8.291947,13.467272,8.554915,6.333240,9.074212,6.792006,9.609839,7.435405,8.936585,9.052742,10.473917,9.465322,10.485539,10.579779,0,0.00116,0.00675,0.01469,0.00320,0.00053,0.00071,0.00429,0.00146,1.48440,0.09515,3.27736
0.188,0,0,0,0,0,0,1,0,0,0,0,0,0,0,0,0,171.016968,108.568283,76.719826,104.304390,-3.622116,11.660077,6.872577,13.404859,6.799920,13.132885,0,6.058439,5.338248,6.791266,7.582262,9.163397,8.289964,13.453395,8.565842,6.406916,9.104911,6.854434,9.657512,7.495712,8.936635,9.069937,10.477313,9.466886,10.485772,10.584710,0,0.00113,0.00655,0.01520,0.00306,0.00053,0.00071,0.00419,0.00150,1.48429,0.09539,3.27728
0.189,0,0,0,0,0,0,1,0,0,0,0,0,0,0,0,0,171.307693,105.530266,75.165291,104.019066,-3.887766,11.666090,6.869395,13.397929,7.162743,12.990260,0,6.059114,5.332070,6.869370,7.580407,9.161241,8.287980,13.439518,8.576768,6.480591,9.135610,6.916863,9.705185,7.556020,8.936685,9.087132,10.480708,9.468448,10.486005,10.589642,0,0.00114,0.00580,0.01536,0.00293,0.00053,0.00070,0.00420,0.00153,1.48379,0.09559,3.27683
0.190,0,0,0,0,0,0,1,0,0,0,0,0,0,0,0,0,171.598404,102.492241,73.610756,103.733742,-4.153417,11.672103,6.866213,13.391001,7.525566,12.847635,0,6.059789,5.325892,6.947474,7.578552,9.159085,8.285996,13.425641,8.587695,6.554267,9.166308,6.979291,9.752857,7.616327,8.936734,9.104327,10.484103,9.470011,10.486238,10.594573,0,0.00111,0.00567,0.01619,0.00288,0.00052,0.00069,0.00453,0.00173,1.48203,0.09548,3.27638
0.191,0,0,0,0,0,0,1,0,0,0,0,0,0,0,0,0,173.660767,99.966484,74.121994,104.033928,-4.307252,11.671677,6.860631,13.382245,7.535672,12.636371,0,6.060114,5.320092,7.019739,7.575854,9.172894,8.281942,13.415223,8.587821,6.613415,9.176291,7.028716,9.774150,7.627113,8.941926,9.103318,10.488333,9.473782,10.490056,10.596478,0,0.00113,0.00614,0.01634,0.00295,0.00054,0.00070,0.00480,0.00179,1.48384,0.09498,3.27711
0.192,0,0,0,0,0,0,1,0,0,0,0,0,0,0,0,0,175.748291,97.447998,74.662567,104.342430,-4.459500,11.671159,6.855015,13.373464,7.540771,12.424132,0,6.060435,5.314296,7.091922,7.573145,9.186929,8.277858,13.404855,8.587793,6.672357,9.185980,7.077955,9.795068,7.637197,8.947191,9.102051,10.492575,9.477584,10.493926,10.598340,0,0.00115,0.00616,0.01659,0.00295,0.00054,0.00071,0.00476,0.00184,1.48341,0.09504,3.27788
0.193,0,0,0,0,0,0,1,0,0,0,0,0,0,0,0,0,177.835800,94.929520,75.203133,104.650940,-4.611747,11.670641,6.849399,13.364682,7.545869,12.211893,0,6.060756,5.308500,7.164104,7.570436,9.200965,8.273774,13.394485,8.587766,6.731298,9.195669,7.127194,9.815987,7.647280,8.952456,9.100783,10.496817,9.481385,10.497795,10.600202,0,0.00116,0.00648,0.01797,0.00263,0.00053,0.00069,0.00465,0.00191,1.48607,0.09528,3.27745
0.194,0,0,0,0,0,0,1,0,0,0,0,0,0,0,0,0,179.923325,92.411034,75.743706,104.959442,-4.763995,11.670124,6.843783,13.355901,7.550967,11.999655,0,6.061077,5.302705,7.236287,7.567726,9.215000,8.269691,13.384117,8.587738,6.790240,9.205358,7.176433,9.836905,7.657363,8.957722,9.099516,10.501059,9.485188,10.501665,10.602064,0,0.00121,0.00650,0.01876,0.00253,0.00053,0.00070,0.00458,0.00195,1.48437,0.09523,3.27699
0.195,0,0,0,0,0,0,1,0,0,0,0,0,0,0,0,0,176.685776,88.918457,76.199669,105.224892,-4.705287,11.656120,6.836192,13.343987,7.550155,12.011648,0,6.061512,5.297573,7.286669,7.565758,9.217672,8.268929,13.375402,8.588108,6.837328,9.195491,7.212555,9.811916,7.636470,8.964083,9.093750,10.504966,9.488540,10.507635,10.605422,0,0.00126,0.00650,0.01894,0.00236,0.00052,0.00070,0.00464,0.00182,1.48492,0.09513,3.27705
0.196,0,0,0,0,0,0,1,0,0,0,0,0,0,0,0,0,173.372620,85.412048,76.654427,105.489738,-4.643584,11.641925,6.828572,13.332028,7.549259,12.026826,0,6.061948,5.292451,7.336742,7.563801,9.220183,8.268213,13.366711,8.588484,6.884248,9.185347,7.248490,9.786276,7.615137,8.970460,9.087920,10.508868,9.491885,10.513636,10.608801,0,0.00126,0.00664,0.01919,0.00234,0.00052,0.00068,0.00465,0.00180,1.48365,0.09507,3.27713
0.197,0,0,0,0,0,0,1,0,0,0,0,0,0,0,0,0,170.059479,81.905640,77.109184,105.754578,-4.581881,11.627729,6.820953,13.320069,7.548363,12.042003,0,6.062384,5.287329,7.386816,7.561844,9.222693,8.267498,13.358019,8.588860,6.931168,9.175203,7.284426,9.760635,7.593804,8.976837,9.082090,10.512771,9.495232,10.519635,10.612181,0,0.00126,0.00596,0.02009,0.00229,0.00053,0.00068,0.00513,0.00177,1.48367,0.09528,3.27758
0.198,0,0,0,0,0,0,1,0,0,0,0,0,0,0,0,0,166.746323,78.399231,77.563950,106.019417,-4.520178,11.613534,6.813334,13.308111,7.547467,12.057180,0,6.062820,5.282206,7.436889,7.559887,9.225204,8.266783,13.349328,8.589234,6.978087,9.165059,7.320362,9.734995,7.572471,8.983213,9.076262,10.516673,9.498577,10.525636,10.615560,0,0.00125,0.00418,0.02076,0.00211,0.00053,0.00069,0.00523,0.00181,1.48347,0.09560,3.27804
0.199,0,0,0,0,0,0,1,0,0,0,0,0,0,0,0,0,163.889938,74.798958,76.966225,106.114975,-4.356084,11.613928,6.810422,13.292515,7.533828,12.116345,0,6.063260,5.277429,7.478250,7.552759,9.224882,8.269397,13.333555,8.594243,7.021714,9.168700,7.357895,9.763312,7.576665,8.987510,9.073024,10.520672,9.501837,10.526859,10.623807,0,0.00125,0.00406,0.02135,0.00208,0.00055,0.00070,0.00529,0.00208,1.48401,0.09578,3.27760
0.200,0,0,0,0,0,0,1,0,0,0,0,0,0,0,0,0,161.040054,71.197350,76.353561,106.208138,-4.190537,11.614529,6.807578,13.276868,7.520008,12.176134,0,6.063701,5.272656,7.519486,7.545557,9.224519,8.272058,13.317682,8.599318,7.065293,9.172537,7.395452,9.792397,7.581221,8.991776,9.069823,10.524673,9.505095,10.528015,10.632124,0,0.00125,0.00495,0.02183,0.00230,0.00056,0.00069,0.00509,0.00229,1.48350,0.09553,3.27714
0.201,0,0,0,0,0,0,1,0,0,0,0,0,0,0,0,0,158.190155,67.595741,75.740898,106.301292,-4.024991,11.615129,6.804733,13.261220,7.506188,12.235923,0,6.064141,5.267884,7.560724,7.538355,9.224155,8.274721,13.301808,8.604391,7.108873,9.176373,7.433008,9.821480,7.585777,8.996043,9.066623,10.528673,9.508353,10.529171,10.640440,0,0.00127,0.00534,0.02157,0.00224,0.00056,0.00068,0.00470,0.00238,1.48305,0.09562,3.27720
0.202,0,0,0,0,0,0,1,0,0,0,0,0,0,0,0,0,155.340271,63.994133,75.128235,106.394447,-3.859443,11.615729,6.801889,13.245573,7.492369,12.295712,0,6.064581,5.263112,7.601961,7.531153,9.223792,8.277383,13.285935,8.609466,7.152452,9.180211,7.470564,9.850563,7.590333,9.000309,9.063422,10.532673,9.511612,10.530327,10.648757,0,0.00125,0.00528,0.01989,0.00222,0.00056,0.00067,0.00452,0.00234,1.48320,0.09599,3.27728
0.203,0,0,0,0,0,0,1,0,0,0,0,0,0,0,0,0,153.135422,61.921925,75.106430,106.129303,-3.663738,11.630157,6.798954,13.230376,7.142666,12.510067,0,6.065185,5.259881,7.637982,7.532727,9.192883,8.281068,13.276430,8.607333,7.192185,9.169781,7.508784,9.866393,7.600066,9.000866,9.069842,10.533385,9.515387,10.534948,10.651456,0,0.00129,0.00531,0.01907,0.00218,0.00058,0.00067,0.00447,0.00222,1.48459,0.09609,3.27706
0.204,0,0,0,0,0,0,1,0,0,0,0,0,0,0,0,0,150.939728,59.871429,75.093010,105.859070,-3.467604,11.644780,6.796019,13.215185,6.788195,12.726616,0,6.065791,5.256673,7.673930,7.534425,9.161538,8.284767,13.267016,8.605099,7.231862,9.159148,7.547013,9.882035,7.609872,9.001370,9.076400,10.534050,9.519168,10.539618,10.654075,0,0.00127,0.00498,0.01817,0.00217,0.00059,0.00068,0.00457,0.00208,1.48128,0.09581,3.27683
0.205,0,0,0,0,0,0,1,0,0,0,0,0,0,0,0,0,148.744034,57.820938,75.079590,105.588837,-3.271470,11.659404,6.793083,13.199995,6.433723,12.943166,0,6.066398,5.253465,7.709877,7.536123,9.130195,8.288466,13.257602,8.602864,7.271540,9.148515,7.585242,9.897677,7.619678,9.001874,9.082957,10.534716,9.522949,10.544289,10.656693,0,0.00126,0.00474,0.01776,0.00219,0.00059,0.00068,0.00446,0.00207,1.48455,0.09582,3.27690
0.206,0,0,0,0,0,0,1,0,0,0,0,0,0,0,0,0,146.548355,55.770443,75.066177,105.318604,-3.075336,11.674026,6.790147,13.184805,6.079251,13.159715,0,6.067004,5.250257,7.745825,7.537821,9.098850,8.292166,13.248187,8.600630,7.311217,9.137882,7.623471,9.913320,7.629484,9.002378,9.089515,10.535380,9.526731,10.548959,10.659313,0,0.00125,0.00468,0.01703,0.00216,0.00058,0.00068,0.00399,0.00204,1.48358,0.09615,3.27698
0.207,0,0,0,0,0,0,1,0,0,0,0,0,0,0,0,0,145.843735,54.989830,75.676003,104.804840,-2.911141,11.647254,6.787587,13.169634,6.428141,13.102863,0,6.067029,5.248943,7.777920,7.534936,9.091857,8.292486,13.235452,8.588885,7.352946,9.116251,7.651712,9.884381,7.624151,9.000852,9.105870,10.538403,9.526785,10.551489,10.663440,0,0.00121,0.00435,0.01591,0.00204,0.00059,0.00067,0.00364,0.00205,1.48344,0.09627,3.27705
0.208,0,0,0,0,0,0,1,0,0,0,0,0,0,0,0,0,145.160278,54.227249,76.294678,104.287628,-2.747399,11.619893,6.785033,13.154463,6.787017,13.042130,0,6.067047,5.247657,7.809961,7.531987,9.085209,8.292758,13.222669,8.577005,7.394704,9.094463,7.679812,9.854809,7.618603,8.999295,9.122365,10.541457,9.526786,10.553988,10.667588,0,0.00121,0.00438,0.01547,0.00199,0.00058,0.00067,0.00339,0.00206,1.48387,0.09612,3.27713
0.209,0,0,0,0,0,0,1,0,0,0,0,0,0,0,0,0,144.476837,53.464668,76.913353,103.770409,-2.583658,11.592532,6.782478,13.139292,7.145893,12.981398,0,6.067065,5.246371,7.842001,7.529037,9.078561,8.293031,13.209886,8.565125,7.436462,9.072676,7.707911,9.825237,7.613055,8.997740,9.138860,10.544513,9.526787,10.556488,10.671737,0,0.00132,0.00440,0.01516,0.00200,0.00058,0.00068,0.00369,0.00206,1.48331,0.09607,3.27750
0.210,0,0,0,0,0,0,1,0,0,0,0,0,0,0,0,0,143.793381,52.702087,77.532036,103.253189,-2.419916,11.565171,6.779923,13.124121,7.504769,12.920665,0,6.067082,5.245085,7.874042,7.526088,9.071914,8.293303,13.197103,8.553246,7.478221,9.050888,7.736012,9.795665,7.607507,8.996184,9.155354,10.547567,9.526788,10.558988,10.675885,0,0.00140,0.00390,0.01455,0.00182,0.00059,0.00067,0.00344,0.00193,1.48516,0.09639,3.27788
0.211,0,0,0,0,0,0,1,0,0,0,0,0,0,0,0,0,144.761368,51.795895,77.797890,103.047554,-2.307251,11.587443,6.776948,13.112734,7.150741,12.955213,0,6.067261,5.246133,7.911421,7.527857,9.073133,8.291845,13.178084,8.564993,7.522059,9.042861,7.753248,9.761868,7.614098,8.995321,9.169865,10.549152,9.530407,10.560699,10.676236,0,0.00157,0.00321,0.01454,0.00168,0.00058,0.00066,0.00327,0.00186,1.48246,0.09657,3.27707
0.212,0,0,0,0,0,0,1,0,0,0,0,0,0,0,0,0,145.752808,50.887665,78.058739,102.846352,-2.195311,11.610420,6.773968,13.101400,6.786590,12.991114,0,6.067441,5.247214,7.948875,7.529692,9.074464,8.290364,13.158978,8.577075,7.565928,9.035030,7.770331,9.728012,7.620861,8.994469,9.184346,10.550715,9.534079,10.562399,10.676534,0,0.00160,0.00321,0.01515,0.00169,0.00057,0.00066,0.00308,0.00188,1.48483,0.09659,3.27623
0.213,0,0,0,0,0,0,1,0,0,0,0,0,0,0,0,0,146.744247,49.979431,78.319588,102.645142,-2.083371,11.633397,6.770987,13.090067,6.422440,13.027016,0,6.067622,5.248296,7.986330,7.531528,9.075795,8.288882,13.139873,8.589157,7.609795,9.027199,7.787414,9.694156,7.627624,8.993615,9.198829,10.552279,9.537749,10.564098,10.676830,0,0.00158,0.00286,0.01396,0.00169,0.00060,0.00066,0.00305,0.00185,1.48437,0.09635,3.27666
0.214,0,0,0,0,0,0,1,0,0,0,0,0,0,0,0,0,147.735687,49.071201,78.580429,102.443932,-1.971431,11.656374,6.768006,13.078733,6.058289,13.062917,0,6.067802,5.249377,8.023785,7.533363,9.077126,8.287401,13.120767,8.601239,7.653663,9.019368,7.804496,9.660299,7.634387,8.992763,9.213310,10.553843,9.541420,10.565798,10.677128,0,0.00157,0.00286,0.01288,0.00169,0.00063,0.00070,0.00339,0.00182,1.48215,0.09658,3.27712
0.215,0,0,0,0,0,0,1,0,0,0,0,0,0,0,0,0,150.131546,48.061199,78.076126,102.440010,-1.805511,11.638825,6.766850,13.063286,6.385925,13.091609,0,6.067521,5.252190,8.050295,7.531346,9.072572,8.283686,13.117918,8.612748,7.698469,9.034989,7.829103,9.665915,7.644690,8.996756,9.218326,10.555675,9.544366,10.568373,10.678278,0,0.00151,0.00291,0.01244,0.00170,0.00063,0.00073,0.00358,0.00183,1.48317,0.09691,3.27713
0.216,0,0,0,0,0,0,1,0,0,0,0,0,0,0,0,0,152.547333,47.049755,77.560959,102.438889,-1.638824,11.620702,6.765720,13.047779,6.723383,13.120198,0,6.067232,5.255028,8.076651,7.529273,9.067935,8.279939,13.115299,8.624250,7.743289,9.050943,7.853816,9.672090,7.655043,9.000818,9.223207,10.557511,9.547302,10.570961,10.679440,0,0.00147,0.00269,0.01173,0.00172,0.00065,0.00075,0.00405,0.00182,1.48356,0.09690,3.27713
0.217,0,0,0,0,0,0,1,0,0,0,0,0,0,0,0,0,154.963120,46.038307,77.045792,102.437767,-1.472137,11.602578,6.764589,13.032272,7.060842,13.148787,0,6.066944,5.257866,8.103005,7.527201,9.063297,8.276191,13.112680,8.635752,7.788108,9.066898,7.878529,9.678266,7.665395,9.004881,9.228087,10.559347,9.550238,10.573548,10.680603,0,0.00143,0.00258,0.01028,0.00173,0.00066,0.00075,0.00362,0.00180,1.48230,0.09660,3.27720
0.218,0,0,0,0,0,0,1,0,0,0,0,0,0,0,0,0,157.378922,45.026859,76.530617,102.436646,-1.305450,11.584455,6.763459,13.016767,7.398300,13.177377,0,6.066656,5.260705,8.129360,7.525128,9.058660,8.272444,13.110062,8.647253,7.832927,9.082852,7.903242,9.684441,7.675748,9.008943,9.232968,10.561183,9.553174,10.576136,10.681766,0,0.00144,0.00259,0.00923,0.00165,0.00066,0.00075,0.00345,0.00168,1.48480,0.09685,3.27728
0.219,0,0,0,0,0,0,1,0,0,0,0,0,0,0,0,0,158.101242,43.842388,75.962875,102.365517,-1.145830,11.580273,6.762034,13.012510,7.387454,13.223919,0,6.066342,5.264421,8.160376,7.522678,9.032589,8.276260,13.103267,8.654666,7.863854,9.108698,7.912349,9.717854,7.689781,9.015183,9.231395,10.567815,9.558035,10.578537,10.683372,0,0.00141,0.00270,0.00837,0.00168,0.00065,0.00074,0.00340,0.00151,1.48078,0.09711,3.27728
0.220,0,0,0,0,0,0,1,0,0,0,0,0,0,0,0,0,158.799515,42.655457,75.394386,102.293388,-0.986311,11.576288,6.760605,13.008414,7.371662,13.270715,0,6.066028,5.268150,8.191457,7.520223,9.006214,8.280184,13.096413,8.662021,7.894583,9.134685,7.921234,9.751655,7.703866,9.021454,9.229729,10.574515,9.562922,10.580935,10.684984,0,0.00147,0.00210,0.00741,0.00133,0.00065,0.00074,0.00356,0.00131,1.48383,0.09706,3.27728
0.221,0,0,0,0,0,0,1,0,0,0,0,0,0,0,0,0,159.497787,41.468529,74.825890,102.221268,-0.826792,11.572304,6.759177,13.004317,7.355871,13.317512,0,6.065714,5.271879,8.222538,7.517767,8.979839,8.284108,13.089558,8.669375,7.925313,9.160670,7.930119,9.785456,7.717951,9.027725,9.228064,10.581215,9.567811,10.583334,10.686597,0,0.00156,0.00159,0.00700,0.00116,0.00066,0.00073,0.00363,0.00126,1.48408,0.09680,3.27691
0.222,0,0,0,0,0,0,1,0,0,0,0,0,0,0,0,0,160.196060,40.281597,74.257401,102.149139,-0.667272,11.568319,6.757748,13.000221,7.340079,13.364307,0,6.065400,5.275609,8.253620,7.515311,8.953465,8.288032,13.082704,8.676730,7.956042,9.186657,7.939004,9.819256,7.732036,9.033997,9.226398,10.587915,9.572699,10.585732,10.688210,0,0.00158,0.00156,0.00680,0.00107,0.00065,0.00076,0.00363,0.00124,1.48412,0.09704,3.27653
0.223,0,0,0,0,0,0,1,0,0,0,0,0,0,0,0,0,159.457565,39.128826,74.057159,101.847778,-0.514154,11.567822,6.757331,12.983054,7.346655,13.442645,0,6.064929,5.279966,8.279469,7.519100,8.944734,8.286857,13.070108,8.674059,7.977537,9.197035,7.961469,9.833596,7.733006,9.037074,9.228091,10.591462,9.575250,10.585882,10.687472,0,0.00157,0.00165,0.00653,0.00103,0.00065,0.00075,0.00375,0.00122,1.48345,0.09716,3.27712
0.224,0,0,0,0,0,0,1,0,0,0,0,0,0,0,0,0,158.698669,37.976540,73.862144,101.543159,-0.361126,11.567374,6.756928,12.965701,7.353549,13.521431,0,6.064456,5.284333,8.305244,7.522978,8.936253,8.285609,13.057432,8.671246,7.998901,9.207191,7.984126,9.847661,7.733791,9.040106,9.229832,10.594965,9.577766,10.586000,10.686701,0,0.00161,0.00166,0.00698,0.00106,0.00063,0.00076,0.00393,0.00123,1.48347,0.09709,3.27773
0.225,0,0,0,0,0,0,1,0,0,0,0,0,0,0,0,0,157.939774,36.824253,73.667130,101.238548,-0.208099,11.566926,6.756526,12.948348,7.360442,13.600217,0,6.063983,5.288700,8.331019,7.526855,8.927773,8.284362,13.044755,8.668432,8.020265,9.217347,8.006783,9.861725,7.734575,9.043139,9.231572,10.598467,9.580284,10.586119,10.685930,0,0.00163,0.00164,0.00724,0.00108,0.00063,0.00076,0.00402,0.00123,1.48472,0.09686,3.27714
0.226,0,0,0,0,0,0,1,0,0,0,0,0,0,0,0,0,157.180862,35.671967,73.472115,100.933929,-0.055071,11.566479,6.756124,12.930996,7.367336,13.679003,0,6.063510,5.293067,8.356794,7.530733,8.919291,8.283114,13.032079,8.665619,8.041629,9.227504,8.029441,9.875790,7.735359,9.046170,9.233313,10.601970,9.582801,10.586236,10.685159,0,0.00174,0.00165,0.00712,0.00111,0.00063,0.00077,0.00408,0.00140,1.48310,0.09670,3.27653
0.227,0,0,0,0,0,0,1,0,0,0,0,0,0,0,0,0,157.231583,35.360371,73.455444,100.536758,0.117573,11.595355,6.757460,12.916753,7.373606,13.730137,0,6.064115,5.296641,8.380659,7.521371,8.889847,8.278883,13.019804,8.658165,8.061304,9.229847,8.040865,9.872707,7.740562,9.047302,9.240314,10.604769,9.582787,10.585377,10.683180,0,0.00178,0.00163,0.00762,0.00115,0.00063,0.00080,0.00432,0.00150,1.48692,0.09703,3.27697
0.228,0,0,0,0,0,0,1,0,0,0,0,0,0,0,0,0,157.293793,35.060707,73.441307,100.138275,0.290496,11.624648,6.758821,12.902554,7.379867,13.780878,0,6.064736,5.300204,8.404498,7.511822,8.860104,8.274609,13.007535,8.650644,8.080956,9.232080,8.052130,9.869383,7.745828,9.048407,9.247390,10.607558,9.582736,10.584504,10.681184,0,0.00179,0.00159,0.00781,0.00115,0.00062,0.00082,0.00436,0.00159,1.48434,0.09716,3.27743
0.229,0,0,0,0,0,0,1,0,0,0,0,0,0,0,0,0,157.356018,34.761047,73.427170,99.739792,0.463419,11.653941,6.760182,12.888355,7.386128,13.831619,0,6.065356,5.303767,8.428336,7.502272,8.830360,8.270334,12.995266,8.643125,8.100607,9.234311,8.063394,9.866057,7.751093,9.049511,9.254465,10.610347,9.582685,10.583631,10.679188,0,0.00169,0.00154,0.00768,0.00116,0.00064,0.00082,0.00410,0.00157,1.48295,0.09698,3.27684
0.230,0,0,0,0,0,0,1,0,0,0,0,0,0,0,0,0,157.418228,34.461388,73.413033,99.341309,0.636342,11.683234,6.761544,12.874156,7.392389,13.882360,0,6.065977,5.307330,8.452174,7.492723,8.800617,8.266061,12.982997,8.635604,8.120258,9.236544,8.074658,9.862733,7.756359,9.050615,9.261540,10.613136,9.582635,10.582758,10.677191,0,0.00159,0.00155,0.00747,0.00115,0.00062,0.00081,0.00430,0.00158,1.48481,0.09685,3.27623
0.231,0,0,0,0,0,0,1,0,0,0,0,0,0,0,0,0,157.586243,34.316479,73.456436,99.115349,0.830173,11.688532,6.761595,12.859148,7.400786,13.978996,0,6.067090,5.310117,8.465231,7.487449,8.774113,8.263927,12.970799,8.622270,8.131993,9.231801,8.082237,9.857972,7.759657,9.051724,9.265493,10.615392,9.583665,10.580667,10.676338,0,0.00137,0.00157,0.00739,0.00115,0.00063,0.00080,0.00440,0.00167,1.48398,0.09726,3.27718
0.232,0,0,0,0,0,0,1,0,0,0,0,0,0,0,0,0,157.755768,34.173771,73.500656,98.891830,1.024300,11.693489,6.761628,12.844129,7.409214,14.076283,0,6.068209,5.312893,8.478135,7.482235,8.747655,8.261824,12.958604,8.608852,8.143617,9.226959,8.089764,9.853191,7.762927,9.052835,9.269402,10.617640,9.584710,10.578557,10.675502,0,0.00133,0.00154,0.00660,0.00145,0.00064,0.00081,0.00469,0.00162,1.48470,0.09740,3.27818
0.233,0,0,0,0,0,0,1,0,0,0,0,0,0,0,0,0,157.925293,34.031059,73.544884,98.668320,1.218427,11.698445,6.761660,12.829109,7.417641,14.173570,0,6.069328,5.315669,8.491038,7.477022,8.721197,8.259721,12.946407,8.595436,8.155240,9.222116,8.097290,9.848410,7.766198,9.053944,9.273310,10.619887,9.585755,10.576448,10.674665,0,0.00133,0.00158,0.00671,0.00174,0.00063,0.00082,0.00484,0.00167,1.48322,0.09717,3.27760
0.234,0,0,0,0,0,0,1,0,0,0,0,0,0,0,0,0,158.094803,33.888351,73.589104,98.444801,1.412555,11.703403,6.761693,12.814089,7.426068,14.270857,0,6.070447,5.318445,8.503942,7.471808,8.694738,8.257618,12.934211,8.582019,8.166863,9.217275,8.104817,9.843629,7.769468,9.055054,9.277219,10.622135,9.586802,10.574340,10.673829,0,0.00132,0.00154,0.00696,0.00176,0.00059,0.00083,0.00456,0.00164,1.48466,0.09724,3.27699
0.235,0,0,0,0,0,0,1,0,0,0,0,0,0,0,0,0,158.515488,33.815170,73.564377,98.280014,1.699620,11.699530,6.762099,12.803533,7.450206,13.711575,0,6.071797,5.320055,8.508481,7.464110,8.678698,8.258007,12.919132,8.579577,8.177826,9.215343,8.109714,9.843750,7.770440,9.055898,9.278790,10.623267,9.587915,10.573779,10.674280,0,0.00131,0.00176,0.00685,0.00174,0.00058,0.00079,0.00455,0.00167,1.48388,0.09761,3.27713
0.236,0,0,0,0,0,0,1,0,0,0,0,0,0,0,0,0,158.939728,33.742977,73.538681,98.116051,1.988004,11.695532,6.762510,12.793039,7.474568,13.142971,0,6.073150,5.321648,8.512900,7.456377,8.662804,8.258430,12.904013,8.577291,8.188778,9.213453,8.114573,9.843941,7.771379,9.056739,9.280330,10.624384,9.589030,10.573240,10.674749,0,0.00154,0.00187,0.00730,0.00173,0.00056,0.00078,0.00431,0.00169,1.48205,0.09763,3.27728
0.237,0,0,0,0,0,0,1,0,0,0,0,0,0,0,0,0,159.363968,33.670788,73.512978,97.952095,2.276389,11.691533,6.762922,12.782545,7.498930,12.574367,0,6.074502,5.323241,8.517321,7.448643,8.646910,8.258855,12.888893,8.575006,8.199731,9.211563,8.119432,9.844131,7.772319,9.057579,9.281869,10.625500,9.590145,10.572701,10.675219,0,0.00161,0.00189,0.00741,0.00173,0.00059,0.00077,0.00432,0.00174,1.48365,0.09741,3.27721
0.238,0,0,0,0,0,0,1,0,0,0,0,0,0,0,0,0,159.788208,33.598595,73.487274,97.788139,2.564774,11.687535,6.763333,12.772052,7.523292,12.005762,0,6.075855,5.324834,8.521740,7.440909,8.631016,8.259279,12.873774,8.572721,8.210683,9.209673,8.124292,9.844322,7.773259,9.058420,9.283407,10.626616,9.591260,10.572163,10.675688,0,0.00160,0.00188,0.00738,0.00176,0.00059,0.00080,0.00440,0.00187,1.48508,0.09752,3.27713
0.239,0,0,0,0,0,0,1,0,0,0,0,0,0,0,0,0,160.178360,33.572712,73.466827,97.547348,2.826271,11.686106,6.768165,12.762422,7.525623,11.998138,0,6.076561,5.325747,8.526357,7.431067,8.615629,8.256888,12.860070,8.570725,8.220953,9.204859,8.129109,9.844870,7.774897,9.058841,9.287371,10.627312,9.592590,10.570545,10.675560,0,0.00159,0.00176,0.00740,0.00171,0.00059,0.00080,0.00433,0.00192,1.48402,0.09775,3.27691
0.240,0,0,0,0,0,0,1,0,0,0,0,0,0,0,0,0,160.568039,33.547485,73.446449,97.305458,3.087387,11.684712,6.773060,12.752804,7.527643,11.998479,0,6.077258,5.326650,8.530976,7.421196,8.600250,8.254457,12.846387,8.568734,8.231214,9.200004,8.133926,9.845422,7.776544,9.059257,9.291368,10.628002,9.593924,10.568913,10.675424,0,0.00155,0.00133,0.00767,0.00164,0.00058,0.00081,0.00456,0.00197,1.48510,0.09775,3.27668
0.241,0,0,0,0,0,0,1,0,0,0,0,0,0,0,0,0,160.957718,33.522259,73.426079,97.063576,3.348502,11.683320,6.777955,12.743186,7.529662,11.998820,0,6.077955,5.327553,8.535596,7.411324,8.584870,8.252027,12.832705,8.566744,8.241474,9.195148,8.138743,9.845975,7.778192,9.059671,9.295364,10.628692,9.595257,10.567281,10.675288,0,0.00142,0.00132,0.00761,0.00162,0.00059,0.00085,0.00475,0.00195,1.48255,0.09764,3.27675
0.242,0,0,0,0,0,0,1,0,0,0,0,0,0,0,0,0,161.347382,33.497032,73.405701,96.821693,3.609618,11.681927,6.782849,12.733568,7.531681,11.999162,0,6.078652,5.328456,8.540215,7.401453,8.569491,8.249596,12.819021,8.564753,8.251734,9.190292,8.143559,9.846527,7.779839,9.060087,9.299361,10.629382,9.596590,10.565648,10.675152,0,0.00135,0.00147,0.00769,0.00160,0.00058,0.00082,0.00479,0.00203,1.48433,0.09763,3.27682
0.243,0,0,0,0,0,0,1,0,0,0,0,0,0,0,0,0,161.474289,33.310406,73.337830,96.502357,3.797640,11.674668,6.786410,12.718653,7.531601,11.992499,0,6.079792,5.329262,8.543076,7.400988,8.553616,8.249015,12.804060,8.558358,8.264568,9.185335,8.151133,9.842876,7.784079,9.061130,9.301209,10.630877,9.596205,10.563678,10.676154,0,0.00134,0.00141,0.00766,0.00170,0.00057,0.00084,0.00476,0.00213,1.48466,0.09795,3.27712
0.244,0,0,0,0,0,0,1,0,0,0,0,0,0,0,0,0,161.597473,33.121490,73.269279,96.181923,3.984625,11.667326,6.789952,12.703661,7.531491,11.985737,0,6.080939,5.330065,8.545910,7.400657,8.537733,8.248461,12.789082,8.551900,8.277439,9.180376,8.158744,9.839166,7.788356,9.062181,9.303027,10.632382,9.595795,10.561702,10.677174,0,0.00132,0.00140,0.00736,0.00170,0.00059,0.00082,0.00491,0.00217,1.48509,0.09805,3.27743
0.245,0,0,0,0,0,0,1,0,0,0,0,0,0,0,0,0,161.720642,32.932575,73.200729,95.861481,4.171610,11.659984,6.793493,12.688670,7.531382,11.978974,0,6.082086,5.330869,8.548745,7.400325,8.521851,8.247906,12.774102,8.545443,8.290310,9.175418,8.166356,9.835455,7.792633,9.063233,9.304845,10.633889,9.595385,10.559727,10.678192,0,0.00132,0.00142,0.00728,0.00164,0.00058,0.00083,0.00493,0.00217,1.48430,0.09787,3.27691
0.246,0,0,0,0,0,0,1,0,0,0,0,0,0,0,0,0,161.843826,32.743656,73.132179,95.541046,4.358594,11.652641,6.797035,12.673678,7.531272,11.972212,0,6.083233,5.331672,8.551579,7.399994,8.505968,8.247352,12.759124,8.538985,8.303181,9.170459,8.173967,9.831744,7.796910,9.064285,9.306662,10.635395,9.594975,10.557752,10.679211,0,0.00122,0.00149,0.00708,0.00163,0.00058,0.00083,0.00492,0.00207,1.48304,0.09800,3.27638
0.247,0,0,0,0,0,0,1,0,0,0,0,0,0,0,0,0,161.795502,32.520782,72.989990,95.242508,4.396680,11.665773,6.803392,12.663512,7.528112,12.178274,0,6.084492,5.332201,8.563625,7.402323,8.494436,8.246135,12.750032,8.537911,8.313408,9.170419,8.179811,9.834981,7.795082,9.065358,9.313427,10.636662,9.595428,10.556108,10.679106,0,0.00116,0.00185,0.00651,0.00161,0.00058,0.00082,0.00468,0.00200,1.48361,0.09826,3.27689
0.248,0,0,0,0,0,0,1,0,0,0,0,0,0,0,0,0,161.744736,32.297424,72.846756,94.944275,4.432652,11.679196,6.809790,12.653416,7.524909,12.387359,0,6.085752,5.332727,8.575802,7.404690,8.482965,8.244907,12.741024,8.536914,8.323597,9.170448,8.185630,9.838315,7.793167,9.066432,9.320263,10.637925,9.595894,10.554467,10.678985,0,0.00115,0.00182,0.00619,0.00163,0.00060,0.00080,0.00458,0.00185,1.48487,0.09835,3.27742
0.249,0,0,0,0,0,0,1,0,0,0,0,0,0,0,0,0,161.693970,32.074066,72.703522,94.646049,4.468623,11.692619,6.816187,12.643318,7.521706,12.596443,0,6.087013,5.333252,8.587978,7.407057,8.471495,8.243681,12.732017,8.535916,8.333787,9.170478,8.191448,9.841650,7.791251,9.067506,9.327098,10.639189,9.596360,10.552828,10.678864,0,0.00113,0.00184,0.00637,0.00164,0.00058,0.00079,0.00485,0.00182,1.48376,0.09804,3.27706
0.250,0,0,0,0,0,0,1,0,0,0,0,0,0,0,0,0,161.643219,31.850708,72.560287,94.347816,4.504594,11.706042,6.822585,12.633221,7.518503,12.805528,0,6.088274,5.333777,8.600155,7.409424,8.460024,8.242454,12.723008,8.534919,8.343976,9.170507,8.197267,9.844984,7.789336,9.068580,9.333934,10.640452,9.596826,10.551188,10.678743,0,0.00112,0.00185,0.00745,0.00165,0.00058,0.00081,0.00484,0.00177,1.48460,0.09842,3.27668
0.251,0,0,0,0,0,0,1,0,0,0,0,0,0,0,0,0,161.392700,31.565071,72.541954,94.178787,4.439128,11.701054,6.827013,12.631993,7.514861,12.803125,0,6.089738,5.334558,8.606846,7.412343,8.463494,8.244870,12.717788,8.537532,8.358916,9.174166,8.209856,9.840122,7.802777,9.067888,9.347332,10.642450,9.603683,10.553779,10.685433,0,0.00111,0.00184,0.00782,0.00166,0.00058,0.00081,0.00481,0.00176,1.48341,0.09875,3.27690
0.252,0,0,0,0,0,0,1,0,0,0,0,0,0,0,0,0,161.139343,31.278547,72.525391,94.011581,4.372222,11.695805,6.831412,12.630892,7.511212,12.797720,0,6.091204,5.335343,8.613458,7.415269,8.467176,8.247338,12.712621,8.540197,8.373924,9.177876,8.222541,9.835143,7.816435,9.067171,9.360823,10.644459,9.610631,10.556430,10.692221,0,0.00111,0.00184,0.00804,0.00136,0.00058,0.00084,0.00453,0.00207,1.48259,0.09849,3.27713
0.253,0,0,0,0,0,0,1,0,0,0,0,0,0,0,0,0,160.886002,30.992025,72.508827,93.844383,4.305316,11.690555,6.835812,12.629789,7.507563,12.792315,0,6.092671,5.336128,8.620070,7.418195,8.470859,8.249806,12.707454,8.542862,8.388932,9.181585,8.235227,9.830165,7.830094,9.066454,9.374314,10.646467,9.617579,10.559081,10.699008,0,0.00113,0.00180,0.00825,0.00102,0.00057,0.00085,0.00457,0.00211,1.48683,0.09837,3.27691
0.254,0,0,0,0,0,0,1,0,0,0,0,0,0,0,0,0,160.632645,30.705502,72.492264,93.677185,4.238410,11.685305,6.840211,12.628688,7.503914,12.786909,0,6.094138,5.336913,8.626683,7.421122,8.474541,8.252275,12.702287,8.545527,8.403940,9.185295,8.247912,9.825186,7.843752,9.065738,9.387806,10.648476,9.624526,10.561732,10.705794,0,0.00112,0.00177,0.00821,0.00099,0.00057,0.00080,0.00477,0.00217,1.48336,0.09873,3.27668
0.255,0,0,0,0,0,0,1,0,0,0,0,0,0,0,0,0,160.501404,30.355160,72.533897,93.651283,4.201863,11.682110,6.843740,12.623517,7.508020,12.562926,0,6.095997,5.336529,8.641441,7.422850,8.464218,8.251815,12.690312,8.548594,8.418621,9.185620,8.259490,9.815536,7.850619,9.065078,9.397098,10.647862,9.627649,10.563191,10.705850,0,0.00111,0.00153,0.00825,0.00106,0.00060,0.00080,0.00465,0.00218,1.48342,0.09889,3.27645
0.256,0,0,0,0,0,0,1,0,0,0,0,0,0,0,0,0,160.371887,30.003912,72.576347,93.627388,4.165748,11.678945,6.847258,12.618287,7.512238,12.335840,0,6.097862,5.336128,8.656315,7.424561,8.453697,8.251314,12.678242,8.551664,8.433298,9.185899,8.271051,9.805819,7.857389,9.064420,9.406330,10.647212,9.630717,10.564632,10.705809,0,0.00090,0.00137,0.00806,0.00114,0.00063,0.00080,0.00429,0.00217,1.48306,0.09875,3.27622
0.257,0,0,0,0,0,0,1,0,0,0,0,0,0,0,0,0,160.242386,29.652664,72.618805,93.603493,4.129632,11.675779,6.850774,12.613058,7.516454,12.108753,0,6.099727,5.335727,8.671188,7.426272,8.443176,8.250813,12.666171,8.554736,8.447974,9.186176,8.282614,9.796102,7.864159,9.063762,9.415563,10.646562,9.633786,10.566074,10.705768,0,0.00103,0.00131,0.00827,0.00115,0.00059,0.00081,0.00422,0.00215,1.48395,0.09894,3.27681
0.258,0,0,0,0,0,0,1,0,0,0,0,0,0,0,0,0,160.112869,29.301416,72.661255,93.579597,4.093517,11.672613,6.854291,12.607829,7.520671,11.881667,0,6.101592,5.335326,8.686063,7.427984,8.432655,8.250312,12.654100,8.557808,8.462651,9.186455,8.294175,9.786386,7.870929,9.063104,9.424795,10.645911,9.636855,10.567516,10.705727,0,0.00120,0.00133,0.00878,0.00112,0.00058,0.00078,0.00445,0.00221,1.48506,0.09918,3.27742
0.259,0,0,0,0,0,0,1,0,0,0,0,0,0,0,0,0,160.652481,29.176867,72.606369,93.470657,4.057887,11.683043,6.856961,12.601472,7.520088,11.888227,0,6.103377,5.334701,8.699998,7.421811,8.420179,8.253505,12.645637,8.560927,8.478758,9.188258,8.305620,9.786924,7.878924,9.064954,9.430442,10.646715,9.642078,10.569959,10.708931,0,0.00125,0.00134,0.00879,0.00110,0.00058,0.00078,0.00465,0.00213,1.48365,0.09921,3.27721
0.260,0,0,0,0,0,0,1,0,0,0,0,0,0,0,0,0,161.201584,29.055534,72.550095,93.360504,4.022263,11.693666,6.859619,12.595099,7.519436,11.898103,0,6.105162,5.334073,8.713920,7.415525,8.407676,8.256749,12.637224,8.564049,8.494884,9.190084,8.317062,9.787609,7.886937,9.066839,9.436038,10.647539,9.647332,10.572415,10.712181,0,0.00134,0.00132,0.00865,0.00105,0.00058,0.00078,0.00447,0.00206,1.48423,0.09905,3.27698
0.261,0,0,0,0,0,0,1,0,0,0,0,0,0,0,0,0,161.750702,28.934202,72.493820,93.250359,3.986639,11.704289,6.862278,12.588727,7.518785,11.907980,0,6.106946,5.333446,8.727841,7.409240,8.395171,8.259995,12.628811,8.567169,8.511011,9.191909,8.328506,9.788295,7.894949,9.068725,9.441633,10.648364,9.652587,10.574873,10.715431,0,0.00140,0.00132,0.00886,0.00103,0.00057,0.00074,0.00441,0.00231,1.48357,0.09924,3.27668
0.262,0,0,0,0,0,0,1,0,0,0,0,0,0,0,0,0,162.299805,28.812872,72.437546,93.140205,3.951015,11.714912,6.864935,12.582355,7.518134,11.917856,0,6.108730,5.332818,8.741764,7.402955,8.382668,8.263239,12.620399,8.570290,8.527138,9.193734,8.339948,9.788980,7.902961,9.070610,9.447229,10.649189,9.657841,10.577330,10.718681,0,0.00139,0.00122,0.00905,0.00109,0.00057,0.00075,0.00476,0.00239,1.48426,0.09943,3.27637
0.263,0,0,0,0,0,0,1,0,0,0,0,0,0,0,0,0,162.713181,28.879087,72.529602,92.793755,3.990267,11.709190,6.870344,12.570076,7.517107,11.938594,0,6.111064,5.332361,8.753785,7.404849,8.379950,8.269979,12.609945,8.577856,8.545203,9.191235,8.348252,9.790505,7.905491,9.073631,9.460215,10.652285,9.662484,10.580603,10.723468,0,0.00139,0.00115,0.00889,0.00103,0.00058,0.00075,0.00489,0.00234,1.48510,0.09932,3.27652
0.264,0,0,0,0,0,0,1,0,0,0,0,0,0,0,0,0,163.124619,28.947968,72.623764,92.443939,4.030582,11.703236,6.875791,12.557714,7.516074,11.959486,0,6.113405,5.331906,8.765780,7.406859,8.377372,8.276769,12.599463,8.585486,8.563296,9.188673,8.356513,9.792043,7.907942,9.076668,9.473304,10.655413,9.667118,10.583888,10.728275,0,0.00141,0.00113,0.00877,0.00099,0.00058,0.00076,0.00456,0.00230,1.48334,0.09901,3.27667
0.265,0,0,0,0,0,0,1,0,0,0,0,0,0,0,0,0,163.536057,29.016848,72.717926,92.094131,4.070897,11.697282,6.881238,12.545353,7.515041,11.980378,0,6.115747,5.331452,8.777775,7.408870,8.374793,8.283559,12.588983,8.593116,8.581389,9.186111,8.364773,9.793580,7.910394,9.079705,9.486394,10.658540,9.671753,10.587173,10.733084,0,0.00140,0.00111,0.00877,0.00097,0.00059,0.00074,0.00436,0.00231,1.48383,0.09921,3.27690
0.266,0,0,0,0,0,0,1,0,0,0,0,0,0,0,0,0,163.947495,29.085728,72.812088,91.744324,4.111212,11.691327,6.886686,12.532991,7.514009,12.001269,0,6.118088,5.330997,8.789770,7.410880,8.372215,8.290348,12.578501,8.600746,8.599482,9.183550,8.373034,9.795117,7.912846,9.082742,9.499484,10.661668,9.676388,10.590458,10.737891,0,0.00140,0.00104,0.00888,0.00093,0.00060,0.00075,0.00451,0.00227,1.48365,0.09935,3.27713
0.267,0,0,0,0,0,0,1,0,0,0,0,0,0,0,0,0,163.856995,28.911779,73.190872,91.249031,4.155859,11.719187,6.891199,12.525921,7.509750,12.466233,0,6.119857,5.330492,8.805696,7.409452,8.364790,8.292053,12.569113,8.609113,8.611096,9.182673,8.383421,9.777781,7.926422,9.086356,9.516853,10.666513,9.683016,10.595202,10.742084,0,0.00140,0.00064,0.00916,0.00090,0.00061,0.00073,0.00479,0.00228,1.48470,0.09915,3.27743
0.268,0,0,0,0,0,0,1,0,0,0,0,0,0,0,0,0,163.759384,28.734385,73.573692,90.751678,4.200568,11.747525,6.895699,12.518925,7.505445,12.937502,0,6.121618,5.329987,8.821676,7.407976,8.357297,8.293686,12.559740,8.617490,8.622618,9.181822,8.393839,9.760176,7.940156,9.089977,9.534284,10.671384,9.689672,10.599968,10.746266,0,0.00141,0.00064,0.01035,0.00093,0.00059,0.00074,0.00472,0.00243,1.48499,0.09885,3.27773
0.269,0,0,0,0,0,0,1,0,0,0,0,0,0,0,0,0,163.661774,28.556988,73.956512,90.254318,4.245276,11.775865,6.900199,12.511929,7.501141,13.408771,0,6.123379,5.329481,8.837657,7.406500,8.349803,8.295319,12.550367,8.625867,8.634140,9.180969,8.404256,9.742571,7.953890,9.093599,9.551713,10.676253,9.696328,10.604733,10.750449,0,0.00154,0.00063,0.01029,0.00098,0.00061,0.00075,0.00444,0.00253,1.48513,0.09922,3.27729
0.270,0,0,0,0,0,0,1,0,0,0,0,0,0,0,0,0,163.564163,28.379591,74.339333,89.756966,4.289984,11.804204,6.904699,12.504932,7.496837,13.880039,0,6.125140,5.328976,8.853638,7.405023,8.342309,8.296951,12.540995,8.634244,8.645662,9.180118,8.414674,9.724966,7.967624,9.097221,9.569143,10.681124,9.702984,10.609499,10.754632,0,0.00157,0.00061,0.00928,0.00108,0.00062,0.00074,0.00478,0.00261,1.48364,0.09933,3.27683
0.271,0,0,0,0,0,0,1,0,0,0,0,0,0,0,0,0,163.935257,28.223459,74.619865,89.303062,4.314265,11.822703,6.907381,12.490192,7.499262,13.905575,0,6.126379,5.329514,8.868454,7.406891,8.340861,8.297067,12.530768,8.645038,8.663227,9.176804,8.425009,9.706429,7.971447,9.100745,9.582675,10.686023,9.706989,10.610085,10.757031,0,0.00160,0.00061,0.00952,0.00115,0.00061,0.00074,0.00487,0.00264,1.48391,0.09893,3.27705
0.272,0,0,0,0,0,0,1,0,0,0,0,0,0,0,0,0,164.313004,28.067627,74.898956,88.849785,4.338256,11.841063,6.910038,12.475343,7.501783,13.924782,0,6.127610,5.330067,8.883253,7.408806,8.339499,8.297161,12.520531,8.655867,8.680878,9.173456,8.435342,9.687878,7.975130,9.104267,9.596151,10.690923,9.710958,10.610612,10.759406,0,0.00159,0.00063,0.00967,0.00121,0.00063,0.00074,0.00484,0.00228,1.47668,0.09901,3.27728
0.273,0,0,0,0,0,0,1,0,0,0,0,0,0,0,0,0,164.690750,27.911797,75.178040,88.396500,4.362247,11.859424,6.912694,12.460493,7.504304,13.943988,0,6.128841,5.330621,8.898052,7.410721,8.338139,8.297256,12.510293,8.666695,8.698528,9.170108,8.445675,9.669327,7.978813,9.107789,9.609628,10.695823,9.714925,10.611139,10.761781,0,0.00157,0.00062,0.00930,0.00127,0.00062,0.00072,0.00507,0.00216,1.48273,0.09927,3.27728
0.274,0,0,0,0,0,0,1,0,0,0,0,0,0,0,0,0,165.068497,27.755966,75.457130,87.943222,4.386238,11.877783,6.915351,12.445643,7.506825,13.963195,0,6.130073,5.331174,8.912851,7.412636,8.336777,8.297350,12.500055,8.677523,8.716179,9.166759,8.456008,9.650776,7.982495,9.111311,9.623104,10.700723,9.718893,10.611666,10.764155,0,0.00172,0.00063,0.00891,0.00128,0.00062,0.00070,0.00497,0.00214,1.48306,0.09912,3.27728
0.275,0,0,0,0,0,0,1,0,0,0,0,0,0,0,0,0,165.283615,27.743633,75.426430,87.497368,4.401222,11.870820,6.920667,12.430639,7.506886,13.977616,0,6.130872,5.332483,8.931289,6.880063,8.513290,8.299455,12.492652,8.669515,8.741837,9.160107,8.470153,9.642586,7.993993,9.115288,9.636922,10.704248,9.724356,10.614607,10.771879,0,0.00180,0.00061,0.00875,0.00122,0.00059,0.00070,0.00496,0.00214,1.48394,0.09880,3.27721
0.276,0,0,0,0,0,0,1,0,0,0,0,0,0,0,0,0,165.496414,27.733337,75.391327,87.051613,4.416079,11.863497,6.926020,12.415632,7.506912,13.991970,0,6.131666,5.333803,8.949779,6.339900,8.692330,8.301588,12.485290,8.661240,8.767609,9.153406,8.484351,9.634542,8.005602,9.119271,9.650744,10.707754,9.729839,10.617581,10.779679,0,0.00174,0.00061,0.00853,0.00112,0.00057,0.00068,0.00504,0.00215,1.48395,0.09886,3.27713
0.277,0,0,0,0,0,0,1,0,0,0,0,0,0,0,0,0,165.709229,27.723042,75.356224,86.605865,4.430935,11.856174,6.931373,12.400625,7.506938,14.006324,0,6.132460,5.335123,8.968267,5.799737,8.871370,8.303721,12.477926,8.652965,8.793381,9.146707,8.498549,9.626498,8.017210,9.123254,9.664567,10.711260,9.735323,10.620557,10.787479,0,0.00151,0.00061,0.00871,0.00110,0.00057,0.00069,0.00530,0.00221,1.48388,0.09890,3.27698
0.278,0,0,0,0,0,0,1,0,0,0,0,0,0,0,0,0,165.922028,27.712746,75.321121,86.160118,4.445792,11.848851,6.936726,12.385618,7.506964,14.020677,0,6.133254,5.336443,8.986757,5.259575,9.050410,8.305856,12.470563,8.644689,8.819153,9.140006,8.512749,9.618454,8.028819,9.127237,9.678390,10.714767,9.740807,10.623531,10.795280,0,0.00151,0.00059,0.00870,0.00110,0.00057,0.00070,0.00549,0.00222,1.48588,0.09885,3.27683
0.279,0,0,0,0,0,0,1,0,0,0,0,0,0,0,0,0,165.952667,27.535372,75.286461,85.579086,4.378263,11.827497,6.942479,12.378001,7.504252,14.036757,0,6.134426,5.338200,9.010084,5.255078,9.077630,8.305638,12.452046,8.637589,8.840065,9.143387,8.524669,9.616119,8.039193,9.131274,9.694007,10.720209,9.744724,10.626389,10.797572,0,0.00150,0.00058,0.00836,0.00110,0.00059,0.00068,0.00547,0.00222,1.48444,0.09847,3.27660
0.280,0,0,0,0,0,0,1,0,0,0,0,0,0,0,0,0,165.980713,27.355627,75.251801,84.996140,4.309563,11.805943,6.948237,12.370489,7.501502,14.052861,0,6.135602,5.339962,9.033481,5.258186,9.102695,8.305388,12.433371,8.630506,8.860908,9.146910,8.536556,9.613866,8.049550,9.135312,9.709650,10.725680,9.748621,10.629244,10.799786,0,0.00143,0.00059,0.00806,0.00110,0.00060,0.00068,0.00527,0.00227,1.48339,0.09834,3.27637
0.281,0,0,0,0,0,0,1,0,0,0,0,0,0,0,0,0,166.008759,27.175882,75.217140,84.413185,4.240864,11.784389,6.953996,12.362977,7.498751,14.068965,0,6.136780,5.341725,9.056876,5.261295,9.127759,8.305139,12.414696,8.623423,8.881751,9.150434,8.548445,9.611612,8.059907,9.139350,9.725293,10.731151,9.752517,10.632099,10.801999,0,0.00136,0.00058,0.00763,0.00109,0.00059,0.00069,0.00521,0.00209,1.48434,0.09852,3.27644
0.282,0,0,0,0,0,0,1,0,0,0,0,0,0,0,0,0,166.036804,26.996136,75.182480,83.830238,4.172164,11.762836,6.959754,12.355464,7.496001,14.085070,0,6.137957,5.343487,9.080273,5.264404,9.152823,8.304889,12.396020,8.616340,8.902594,9.153956,8.560332,9.609359,8.070264,9.143388,9.740936,10.736622,9.756413,10.634954,10.804214,0,0.00137,0.00057,0.00735,0.00104,0.00059,0.00068,0.00518,0.00195,1.48231,0.09857,3.27652
0.283,0,0,0,0,0,0,1,0,0,0,0,0,0,0,0,0,166.841690,26.849182,75.148392,83.154831,4.073811,11.785859,6.962443,12.338098,7.495213,14.084764,0,6.139307,5.346818,9.099691,5.830986,8.843719,8.307666,12.390562,8.616871,8.931405,9.147258,8.578602,9.593907,8.083838,9.147019,9.761592,10.739926,9.761321,10.637398,10.813105,0,0.00137,0.00057,0.00809,0.00101,0.00057,0.00068,0.00514,0.00211,1.48744,0.09820,3.27742
0.284,0,0,0,0,0,0,1,0,0,0,0,0,0,0,0,0,167.657593,26.702696,75.114311,82.478111,3.975036,11.809515,6.965088,12.320590,7.494452,14.084227,0,6.140659,5.350171,9.119054,6.405569,8.529869,8.310487,12.385291,8.617511,8.960329,9.140413,8.596962,9.578269,8.097457,9.150646,9.782318,10.743200,9.766243,10.639834,10.822092,0,0.00133,0.00056,0.00849,0.00101,0.00058,0.00068,0.00546,0.00228,1.48524,0.09804,3.27833
0.285,0,0,0,0,0,0,1,0,0,0,0,0,0,0,0,0,168.473511,26.556208,75.080231,81.801399,3.876261,11.833171,6.967734,12.303083,7.493692,14.083690,0,6.142011,5.353524,9.138417,6.980151,8.216020,8.313307,12.380020,8.618151,8.989254,9.133569,8.615322,9.562631,8.111076,9.154272,9.803044,10.746475,9.771165,10.642272,10.831079,0,0.00132,0.00058,0.00845,0.00101,0.00057,0.00068,0.00611,0.00239,1.48172,0.09829,3.27790
0.286,0,0,0,0,0,0,1,0,0,0,0,0,0,0,0,0,169.289413,26.409719,75.046150,81.124680,3.777486,11.856828,6.970379,12.285576,7.492932,14.083152,0,6.143363,5.356877,9.157780,7.554734,7.902170,8.316128,12.374749,8.618791,9.018178,9.126724,8.633681,9.546992,8.124696,9.157899,9.823771,10.749749,9.776088,10.644709,10.840065,0,0.00133,0.00059,0.00830,0.00102,0.00057,0.00068,0.00658,0.00239,1.48275,0.09830,3.27745
0.287,0,0,0,0,0,0,1,0,0,0,0,0,0,0,0,0,169.663254,26.173389,75.094147,80.538742,3.631675,11.886467,6.975261,12.281725,7.491120,14.088707,0,6.143955,5.361584,9.174238,7.559683,7.894205,8.319250,12.364414,8.635856,9.050480,9.127918,8.651452,9.537361,8.144542,9.163186,9.847499,10.753595,9.781157,10.647140,10.843230,0,0.00137,0.00058,0.00803,0.00103,0.00060,0.00069,0.00728,0.00251,1.48472,0.09787,3.27736
0.288,0,0,0,0,0,0,1,0,0,0,0,0,0,0,0,0,170.030807,25.935785,75.143303,79.954086,3.485197,11.916191,6.980174,12.278068,7.489292,14.094348,0,6.144535,5.366311,9.190657,7.556545,7.890584,8.322378,12.354007,8.653154,9.082829,9.129226,8.669214,9.527816,8.164475,9.168498,9.871269,10.757449,9.786230,10.649570,10.846313,0,0.00141,0.00058,0.00660,0.00098,0.00061,0.00068,0.00737,0.00245,1.48507,0.09770,3.27728
0.289,0,0,0,0,0,0,1,0,0,0,0,0,0,0,0,0,170.398361,25.698179,75.192467,79.369438,3.338719,11.945915,6.985087,12.274410,7.487464,14.099990,0,6.145116,5.371037,9.207074,7.553406,7.886962,8.325505,12.343600,8.670453,9.115179,9.130533,8.686976,9.518270,8.184410,9.173809,9.895039,10.761303,9.791302,10.652001,10.849395,0,0.00129,0.00057,0.00637,0.00089,0.00061,0.00066,0.00724,0.00239,1.48364,0.09801,3.27728
0.290,0,0,0,0,0,0,1,0,0,0,0,0,0,0,0,0,170.765915,25.460573,75.241631,78.784790,3.192240,11.975639,6.990001,12.270753,7.485637,14.105631,0,6.145697,5.375763,9.223493,7.550268,7.883341,8.328632,12.333193,8.687752,9.147529,9.131841,8.704739,9.508725,8.204344,9.179120,9.918809,10.765157,9.796374,10.654431,10.852477,0,0.00124,0.00057,0.00648,0.00079,0.00060,0.00066,0.00736,0.00235,1.48310,0.09795,3.27728
0.291,0,0,0,0,0,0,1,0,0,0,0,0,0,0,0,0,170.471268,25.290424,75.454956,78.286621,3.080380,11.978168,6.991700,12.259184,7.490660,14.108721,0,6.145844,5.380490,9.248583,7.549811,7.878693,8.332365,12.320389,8.689821,9.169491,9.131126,8.722228,9.492500,8.224649,9.184452,9.938689,10.770344,9.804247,10.660862,10.851896,0,0.00120,0.00056,0.00629,0.00071,0.00061,0.00066,0.00739,0.00232,1.48402,0.09772,3.27751
0.292,0,0,0,0,0,0,1,0,0,0,0,0,0,0,0,0,170.167236,25.121231,75.670609,77.789673,2.969011,11.980309,6.993353,12.247503,7.495780,14.111774,0,6.145986,5.385218,9.273795,7.549392,7.874030,8.336105,12.307550,8.691674,9.191305,9.130384,8.739714,9.476181,8.244960,9.189784,9.958515,10.775549,9.812160,10.667349,10.851264,0,0.00123,0.00055,0.00633,0.00062,0.00060,0.00062,0.00780,0.00232,1.48240,0.09761,3.27774
0.293,0,0,0,0,0,0,1,0,0,0,0,0,0,0,0,0,169.863190,24.952040,75.886261,77.292732,2.857642,11.982451,6.995007,12.235823,7.500901,14.114827,0,6.146127,5.389946,9.299008,7.548974,7.869367,8.339847,12.294713,8.693528,9.213120,9.129642,8.757199,9.459862,8.265270,9.195116,9.978340,10.780754,9.820073,10.673836,10.850632,0,0.00123,0.00053,0.00653,0.00054,0.00061,0.00061,0.00839,0.00241,1.48380,0.09781,3.27759
