"Time","51 right DS","50 left DS","v3 R COP","v2 L COP","v1 xCoM","37a CoMy (cm)","37 CoMy (cm)","33 FLy (cm)","35 FRy (cm)","30 HRy (cm)","28 HLy (cm)","3 Platform"
0.000,0,0,0.000000,0.000000,5.699289,0.244121,5.686349,6.727718,5.066399,3.821371,6.287681,-0.00013
0.001,0,0,0.000000,0.000000,5.691049,0.082878,5.686654,6.728996,5.066386,3.814834,6.292089,0.00025
0.002,0,0,0.000000,0.000000,5.682877,-0.058106,5.686218,6.729532,5.066528,3.808001,6.295628,0.00013
0.003,0,0,0.000000,0.000000,5.674715,-0.197705,5.685732,6.730017,5.066682,3.801148,6.299108,0.00013
0.004,0,0,0.000000,0.000000,5.667071,-0.337304,5.685246,6.730503,5.066835,3.794294,6.302587,0.00000
0.005,0,0,0.000000,0.000000,5.659447,-0.476903,5.684760,6.730988,5.066989,3.787441,6.306067,0.00028
0.006,0,0,0.000000,0.000000,5.652812,-0.575113,5.683806,6.731651,5.067554,3.780520,6.306458,0.00013
0.007,0,0,0.000000,0.000000,5.646197,-0.670493,5.682820,6.732326,5.068147,3.773595,6.306637,0.00018
0.008,0,0,0.000000,0.000000,5.640658,-0.765873,5.681834,6.733001,5.068739,3.766670,6.306816,0.00013
0.009,0,0,0.000000,0.000000,5.635138,-0.861253,5.680847,6.733676,5.069332,3.759745,6.306995,0.00025
0.010,0,0,0.000000,0.000000,5.630631,-0.923937,5.679963,6.732826,5.070163,3.751792,6.302637,0.00000
0.011,0,0,0.000000,0.000000,5.626138,-0.984386,5.679086,6.731872,5.071011,3.743768,6.297967,0.00018
0.012,0,0,0.000000,0.000000,5.622419,-1.044835,5.678209,6.730917,5.071858,3.735745,6.293298,0.00003
0.013,0,0,0.000000,0.000000,5.618711,-1.105284,5.677332,6.729963,5.072705,3.727721,6.288629,0.00031
0.014,0,0,0.000000,0.000000,5.615574,-1.131560,5.675921,6.728473,5.074006,3.720975,6.290370,0.00003
0.015,0,0,0.000000,0.000000,5.612451,-1.155498,5.674475,6.726946,5.075338,3.714317,6.292548,0.00000
0.016,0,0,0.000000,0.000000,5.610092,-1.179437,5.673028,6.725420,5.076670,3.707658,6.294727,0.00008
0.017,0,0,0.000000,0.000000,5.607750,-1.203376,5.671580,6.723893,5.078002,3.700999,6.296906,0.00013
0.018,0,0,0.000000,0.000000,5.606363,-1.200968,5.670311,6.722331,5.079082,3.695586,6.295035,0.00018
0.019,0,0,0.000000,0.000000,5.604987,-1.196758,5.669054,6.720767,5.080144,3.690257,6.292889,0.00005
0.020,0,0,0.000000,0.000000,5.604254,-1.192549,5.667797,6.719203,5.081207,3.684928,6.290742,0.00015
0.021,0,0,0.000000,0.000000,5.603527,-1.188339,5.666540,6.717640,5.082270,3.679599,6.288596,-0.00028
0.022,0,0,0.000000,0.000000,5.603155,-1.162348,5.665182,6.716528,5.083290,3.676078,6.289164,-0.00003
0.023,0,0,0.000000,0.000000,5.602799,-1.134868,5.663817,6.715447,5.084307,3.672681,6.289917,-0.00010
0.024,0,0,0.000000,0.000000,5.603282,-1.107388,5.662452,6.714365,5.085324,3.669284,6.290670,-0.00022
0.025,0,0,0.000000,0.000000,5.603791,-1.079907,5.661088,6.713284,5.086341,3.665887,6.291423,0.00010
0.026,0,0,0.000000,0.000000,5.605634,-1.021406,5.660180,6.712203,5.087543,3.664109,6.299485,0.00025
0.027,0,0,0.000000,0.000000,5.607493,-0.960783,5.659304,6.711120,5.088757,3.662442,6.308047,0.00000
0.028,0,0,0.000000,0.000000,5.610250,-0.900160,5.658427,6.710038,5.089970,3.660774,6.316609,-0.00007
0.029,0,0,0.000000,0.000000,5.613014,-0.839537,5.657551,6.708955,5.091184,3.659107,6.325171,0.00005
0.030,0,0,0.000000,0.000000,5.616158,-0.758160,5.656683,6.707612,5.092433,3.658366,6.327167,0.00043
0.031,0,0,0.000000,0.000000,5.619313,-0.675364,5.655816,6.706249,5.093685,3.657688,6.328715,-0.00013
0.032,0,0,0.000000,0.000000,5.623154,-0.592569,5.654949,6.704887,5.094937,3.657010,6.330263,0.00015
0.033,0,0,0.000000,0.000000,5.627016,-0.509773,5.654081,6.703526,5.096189,3.656332,6.331811,0.00013
0.034,0,0,0.000000,0.000000,5.631990,-0.397343,5.653541,6.702243,5.097322,3.656630,6.331781,0.00028
0.035,0,0,0.000000,0.000000,5.636984,-0.282887,5.653022,6.700966,5.098447,3.656996,6.331643,0.00025
0.036,0,0,0.000000,0.000000,5.643019,-0.168432,5.652503,6.699689,5.099572,3.657361,6.331504,0.00015
0.037,0,0,0.000000,0.058609,5.649068,-0.053976,5.651985,6.698412,5.100697,3.657726,6.331366,0.00003
0.038,0,1,0.000000,3.314673,5.655915,0.074269,5.652164,6.696858,5.101616,3.657809,6.330500,0.00015
0.039,0,1,0.000000,6.512108,5.662770,0.203458,5.652390,6.695286,5.102522,3.657873,6.329584,0.00028
0.040,0,1,0.000000,6.510997,5.670037,0.332646,5.652617,6.693713,5.103428,3.657937,6.328669,-0.00003
0.041,0,1,0.000000,6.509911,5.677306,0.461834,5.652844,6.692140,5.104333,3.658000,6.327753,0.00015
0.042,0,1,0.000000,6.510161,5.684608,0.584211,5.653577,6.691363,5.105810,3.658306,6.330164,0.00028
0.043,0,1,0.000000,6.510435,5.691909,0.706122,5.654345,6.690642,5.107325,3.658629,6.332803,0.00013
0.044,0,1,0.000000,6.511995,5.699077,0.828034,5.655113,6.689920,5.108840,3.658952,6.335442,0.00018
0.045,0,1,0.000000,6.513568,5.706239,0.949945,5.655880,6.689198,5.110355,3.659274,6.338080,0.00005
0.046,0,1,0.000000,6.515853,5.713128,1.049471,5.657232,6.688857,5.111650,3.659766,6.341938,0.00018
0.047,0,1,0.000000,6.518123,5.720007,1.147466,5.658623,6.688542,5.112931,3.660269,6.345879,0.00013
0.048,0,1,0.000000,6.519538,5.726335,1.245461,5.660014,6.688227,5.114212,3.660772,6.349819,0.00015
0.049,0,1,0.000000,6.520920,5.732646,1.343456,5.661405,6.687911,5.115493,3.661275,6.353760,0.00031
0.050,0,1,0.000000,6.520484,5.738085,1.402539,5.663160,6.687087,5.116754,3.662141,6.355261,0.00000
0.051,0,1,0.000000,6.520072,5.743501,1.458963,5.664940,6.686228,5.118013,3.663033,6.356596,0.00025
0.052,0,1,0.000000,6.520874,5.747705,1.515386,5.666719,6.685369,5.119273,3.663924,6.357930,-0.00022
0.053,0,1,0.000000,6.521752,5.751884,1.571809,5.668499,6.684510,5.120532,3.664815,6.359264,0.00000
0.054,0,1,0.000000,6.526832,5.754646,1.587622,5.670038,6.684289,5.121560,3.666259,6.370949,0.00013
0.055,0,1,0.000000,6.531945,5.757389,1.600658,5.671559,6.684113,5.122571,3.667741,6.383340,-0.00013
0.056,0,1,0.000000,6.538931,5.759135,1.613694,5.673081,6.683937,5.123583,3.669222,6.395732,-0.00013
0.057,0,1,0.000000,6.545890,5.760871,1.626730,5.674603,6.683760,5.124595,3.670704,6.408124,0.00043
0.058,0,1,0.000000,6.551374,5.762078,1.609484,5.676458,6.683669,5.124837,3.671551,6.416534,0.00000
0.059,0,1,0.000000,6.556810,5.763274,1.590167,5.678336,6.683583,5.125027,3.672354,6.424671,0.00028
0.060,0,1,0.000000,6.559599,5.763829,1.570850,5.680214,6.683498,5.125217,3.673157,6.432808,0.00003
0.061,0,1,0.000000,6.562341,5.764369,1.551533,5.682092,6.683413,5.125407,3.673960,6.440945,0.00005
0.062,0,1,0.000000,6.562480,5.764080,1.509184,5.683798,6.683205,5.125128,3.675200,6.442077,0.00022
0.063,0,1,0.000000,6.562622,5.763780,1.465261,5.685493,6.682989,5.124817,3.676471,6.442729,-0.00005
0.064,0,1,0.000000,6.562902,5.762853,1.421337,5.687187,6.682774,5.124506,3.677741,6.443382,0.00013
0.065,0,1,0.000000,6.563230,5.761919,1.377413,5.688881,6.682558,5.124195,3.679011,6.444034,0.00013
0.066,0,1,0.000000,6.566174,5.760641,1.332620,5.689918,6.682526,5.122969,3.680429,6.450052,0.00018
0.067,0,1,0.000000,6.569126,5.759358,1.287768,5.690910,6.682506,5.121679,3.681857,6.456436,0.00000
0.068,0,1,0.000000,6.572516,5.757883,1.242915,5.691903,6.682487,5.120390,3.683285,6.462821,0.00000
0.069,0,1,0.000000,6.575868,5.756406,1.198063,5.692895,6.682467,5.119101,3.684713,6.469205,0.00003
0.070,0,1,0.000000,6.577093,5.754866,1.150300,5.693968,6.682857,5.118363,3.686100,6.471024,0.00013
0.071,0,1,0.000000,6.578310,5.753327,1.102338,5.695047,6.683274,5.117662,3.687485,6.472531,0.00003
0.072,0,1,0.000000,6.579045,5.751930,1.054376,5.696126,6.683692,5.116962,3.688870,6.474038,0.00025
0.073,0,1,0.000000,6.579807,5.750538,1.006414,5.697205,6.684110,5.116262,3.690255,6.475545,0.00013
0.074,0,1,0.000000,6.582073,5.749470,0.969994,5.698210,6.684529,5.115294,3.691218,6.479136,0.00003
0.075,0,1,0.000000,6.584333,5.748408,0.934363,5.699210,6.684948,5.114308,3.692152,6.482870,0.00003
0.076,0,1,0.000000,6.586253,5.747672,0.898732,5.700211,6.685367,5.113322,3.693086,6.486603,0.00013
0.077,0,1,0.000000,6.588130,5.746940,0.863101,5.701210,6.685786,5.112335,3.694020,6.490337,0.00013
0.078,0,1,0.000000,6.587670,5.746430,0.835557,5.702081,6.686863,5.111526,3.694963,6.488538,0.00022
0.079,0,1,0.000000,6.587208,5.745920,0.808566,5.702943,6.687986,5.110729,3.695906,6.486360,0.00010
0.080,0,1,0.000000,6.586617,5.745301,0.781575,5.703805,6.689108,5.109932,3.696850,6.484183,0.00003
0.081,0,1,0.000000,6.586071,5.744676,0.754584,5.704667,6.690231,5.109136,3.697794,6.482005,0.00003
0.082,0,1,0.000000,6.587904,5.743705,0.729815,5.705097,6.691681,5.108371,3.698570,6.484797,0.00015
0.083,0,1,0.000000,6.589753,5.742736,0.705198,5.705497,6.693153,5.107608,3.699334,6.487929,0.00000
0.084,0,1,0.000000,6.592457,5.741887,0.680582,5.705898,6.694625,5.106846,3.700099,6.491060,0.00010
0.085,0,1,0.000000,6.595138,5.741049,0.655965,5.706298,6.696097,5.106083,3.700863,6.494192,0.00010
0.086,0,1,0.000000,6.596602,5.740814,0.638668,5.707066,6.697880,5.105625,3.701067,6.494824,-0.00015
0.087,0,1,0.000000,6.598055,5.740584,0.621872,5.707859,6.699683,5.105187,3.701234,6.495285,0.00025
0.088,0,1,0.000000,6.598904,5.740604,0.605076,5.708652,6.701486,5.104749,3.701400,6.495746,0.00007
0.089,0,1,0.000000,6.599760,5.740621,0.588280,5.709445,6.703290,5.104311,3.701566,6.496206,0.00003
0.090,0,1,0.000000,6.601054,5.740424,0.572309,5.710041,6.705151,5.104413,3.701474,6.496910,0.00015
0.091,0,1,0.000000,6.602349,5.740225,0.556395,5.710623,6.707017,5.104551,3.701364,6.497630,0.00015
0.092,0,1,0.000000,6.603642,5.739909,0.540480,5.711205,6.708882,5.104689,3.701254,6.498350,0.00010
0.093,0,1,0.000000,6.604922,5.739595,0.524566,5.711788,6.710748,5.104827,3.701144,6.499069,0.00043
0.094,0,1,0.000000,6.605556,5.739398,0.515860,5.712185,6.711997,5.105331,3.701155,6.498849,0.00003
0.095,0,1,0.000000,6.606185,5.739205,0.507647,5.712569,6.713203,5.105861,3.701174,6.498565,0.00003
0.096,0,1,0.000000,6.606498,5.739277,0.499434,5.712953,6.714410,5.106390,3.701193,6.498281,0.00015
0.097,0,1,0.000000,6.606814,5.739357,0.491221,5.713336,6.715617,5.106918,3.701212,6.497996,0.00003
0.098,0,1,0.000000,6.607259,5.739804,0.493529,5.713820,6.716845,5.107734,3.701156,6.497491,0.00003
0.099,0,1,0.000000,6.607702,5.740257,0.496556,5.714309,6.718074,5.108569,3.701094,6.496971,-0.00003
0.100,0,1,0.000000,6.607980,5.741080,0.499584,5.714799,6.719303,5.109404,3.701032,6.496451,0.00000
0.101,0,1,0.000000,6.608252,5.741909,0.502611,5.715288,6.720532,5.110239,3.700970,6.495931,0.00000
0.102,0,1,0.000000,6.608150,5.743099,0.520786,5.715711,6.721766,5.112019,3.701327,6.495314,0.00005
0.103,0,1,0.000000,6.608061,5.744298,0.539996,5.716128,6.723000,5.113863,3.701713,6.494690,0.00025
0.104,0,1,0.000000,6.608709,5.745942,0.559206,5.716546,6.724234,5.115707,3.702099,6.494066,0.00003
0.105,0,1,0.000000,6.609388,5.747595,0.578416,5.716964,6.725468,5.117551,3.702484,6.493443,0.00028
0.106,0,1,0.000000,6.611778,5.749765,0.613475,5.717434,6.726567,5.119826,3.703068,6.497243,0.00000
0.107,0,1,0.000000,6.614174,5.751942,0.649618,5.717908,6.727658,5.122131,3.703666,6.501348,0.00010
0.108,0,1,0.000000,6.616951,5.754519,0.685760,5.718383,6.728748,5.124435,3.704264,6.505451,0.00003
0.109,0,1,0.000000,6.619704,5.757100,0.721903,5.718857,6.729839,5.126740,3.704862,6.509555,0.00025
0.110,0,1,0.000000,6.621173,5.759921,0.757221,5.719835,6.730935,5.129709,3.705245,6.509984,0.00031
0.111,0,1,0.000000,6.622614,5.762744,0.792482,5.720848,6.732031,5.132724,3.705613,6.510162,0.00015
0.112,0,1,0.000000,6.622545,5.765678,0.827743,5.721861,6.733128,5.135739,3.705981,6.510339,0.00021
0.113,0,1,0.000000,6.622455,5.768611,0.863004,5.722874,6.734224,5.138754,3.706348,6.510517,0.00013
0.114,0,1,0.000000,6.621221,5.771543,0.900464,5.723773,6.735559,5.141884,3.706310,6.507026,0.00000
0.115,0,1,0.000000,6.619988,5.774472,0.938075,5.724664,6.736911,5.145021,3.706243,6.503285,0.00025
0.116,0,1,0.000000,6.618824,5.777318,0.975685,5.725555,6.738262,5.148159,3.706176,6.499543,0.00038
0.117,0,1,0.000000,6.617680,5.780159,1.013296,5.726446,6.739614,5.151297,3.706109,6.495801,0.00003
0.118,0,1,0.000000,6.617663,5.782812,1.038377,5.727554,6.740693,5.154975,3.707019,6.494947,0.00013
0.119,0,1,0.000000,6.558087,5.785456,1.062601,5.728676,6.741754,5.158691,3.707995,6.494290,0.00028
0.120,0,0,0.000000,3.249264,5.787653,1.086825,5.729798,6.742815,5.162406,3.708971,6.493633,0.00025
0.121,0,0,0.000000,0.000000,5.789840,1.111050,5.730920,6.743876,5.166122,3.709947,6.492976,0.00005
0.122,0,0,0.000000,0.000000,5.791435,1.121585,5.731985,6.744498,5.169933,3.710716,6.490335,0.00000
0.123,0,0,0.000000,0.000000,5.793029,1.131184,5.733046,6.745090,5.173751,3.711470,6.487557,0.00015
0.124,0,0,0.000000,0.000000,5.794576,1.140782,5.734106,6.745681,5.177569,3.712224,6.484780,0.00010
0.125,0,0,0.000000,0.000000,5.796132,1.150381,5.735167,6.746273,5.181387,3.712979,6.482003,-0.00022
0.126,0,0,0.000000,0.000000,5.798160,1.159794,5.736664,6.746469,5.184565,3.714245,6.476460,-0.00010
0.127,0,0,0.000000,0.000000,5.800187,1.169194,5.738192,6.746637,5.187699,3.715546,6.470728,-0.00007
0.128,0,0,0.000000,0.000000,5.802212,1.178594,5.739718,6.746806,5.190833,3.716847,6.464997,0.00003
0.129,0,0,0.000000,0.000000,5.804227,1.187994,5.741246,6.746974,5.193967,3.718148,6.459265,0.00000
0.130,0,0,0.000000,0.000000,5.805724,1.198889,5.742236,6.746990,5.196678,3.719841,6.466619,0.00025
0.131,0,0,0.000000,0.000000,5.807222,1.209886,5.743189,6.746995,5.199359,3.721561,6.474868,0.00028
0.132,0,0,0.000000,0.000000,5.808790,1.220883,5.744142,6.747001,5.202040,3.723281,6.483117,0.00021
0.133,0,0,0.000000,0.000000,5.810372,1.231881,5.745095,6.747006,5.204721,3.725002,6.491366,0.00015
0.134,0,0,0.000000,0.000000,5.812776,1.266114,5.746098,6.746465,5.206594,3.726619,6.520169,0.00005
0.135,0,0,0.000000,0.000000,5.815197,1.301937,5.747105,6.745886,5.208411,3.728230,6.550378,-0.00013
0.136,0,0,0.000000,0.000000,5.818527,1.337759,5.748111,6.745307,5.210228,3.729841,6.580587,0.00015
0.137,0,0,0.000000,0.000000,5.821873,1.373581,5.749118,6.744728,5.212045,3.731452,6.610796,0.00003
0.138,0,0,0.000000,0.000000,5.826035,1.428812,5.750648,6.744075,5.213509,3.732846,6.630649,0.00000
0.139,0,0,0.000000,0.000000,5.830210,1.485369,5.752213,6.743416,5.214948,3.734224,6.649793,0.00018
0.140,0,0,0.000000,0.000000,5.835114,1.541926,5.753779,6.742758,5.216387,3.735602,6.668938,0.00028
0.141,0,0,0.000000,0.000000,5.840029,1.598484,5.755344,6.742100,5.217826,3.736980,6.688082,0.00003
0.142,0,0,0.000000,0.000000,5.845549,1.672998,5.757004,6.741667,5.219971,3.738453,6.706572,0.00015
0.143,0,0,0.000000,0.000000,5.851075,1.748741,5.758669,6.741251,5.222164,3.739932,6.725016,0.00003
0.144,0,0,0.000000,0.000000,5.856892,1.824484,5.760335,6.740833,5.224356,3.741411,6.743460,-0.00010
0.145,0,0,0.000000,0.000000,5.862708,1.900226,5.762001,6.740417,5.226549,3.742890,6.761904,0.00000
0.146,0,0,0.000000,0.000000,5.868482,1.968839,5.764007,6.739917,5.228915,3.744328,6.770270,0.00003
0.147,0,0,0.000000,0.000000,5.874252,2.036965,5.766036,6.739411,5.231293,3.745762,6.777947,0.00003
0.148,0,0,0.000000,0.000000,5.879778,2.105091,5.768065,6.738906,5.233672,3.747197,6.785624,0.00008
0.149,0,0,0.000000,0.000000,5.885299,2.173216,5.770094,6.738401,5.236050,3.748631,6.793301,0.00000
0.150,0,0,0.000000,0.000000,5.890460,2.221850,5.772571,6.737943,5.239157,3.749947,6.760294,0.00003
0.151,0,0,0.000000,0.000000,5.895616,2.269151,5.775077,6.737488,5.242315,3.751255,6.724507,-0.00007
0.152,0,0,0.000000,0.000000,5.900505,2.316453,5.777584,6.737033,5.245472,3.752562,6.688719,0.00025
0.153,0,0,0.000000,0.000000,5.905391,2.363754,5.780091,6.736578,5.248630,3.753870,6.652932,0.00022
0.154,0,0,0.000000,0.000000,5.910124,2.402108,5.782708,6.735895,5.252659,3.755544,6.639480,0.00010
0.155,0,0,0.000000,0.000000,5.914853,2.439850,5.785333,6.735196,5.256748,3.757243,6.627555,0.00003
0.156,0,0,0.000000,0.000000,5.919387,2.477592,5.787958,6.734497,5.260837,3.758942,6.615630,-0.00007
0.157,0,0,0.000000,0.000000,5.923918,2.515334,5.790583,6.733799,5.264926,3.760641,6.603705,-0.00010
0.158,0,0,0.000000,0.000000,5.928249,2.553999,5.792975,6.733279,5.268877,3.762292,6.602144,0.00035
0.159,0,0,0.000000,0.000000,5.932583,2.592727,5.795352,6.732772,5.272819,3.763940,6.601292,-0.00003
0.160,0,0,0.000000,0.000000,5.937094,2.631455,5.797728,6.732265,5.276761,3.765588,6.600440,0.00010
0.161,0,0,0.000000,0.000000,5.941617,2.670184,5.800104,6.731759,5.280703,3.767236,6.599588,0.00000
0.162,0,0,0.000000,0.000000,5.946752,2.726683,5.802624,6.731046,5.284638,3.768548,6.600467,-0.00010
0.163,0,0,0.000000,0.000000,5.951902,2.784398,5.805153,6.730320,5.288573,3.769836,6.601465,0.00010
0.164,0,0,0.000000,0.000000,5.957876,2.842113,5.807683,6.729594,5.292508,3.771124,6.602462,0.00013
0.165,0,0,0.000000,0.000000,5.963865,2.899827,5.810213,6.728868,5.296443,3.772413,6.603459,-0.00018
0.166,0,0,0.000000,0.000000,5.970729,2.974500,5.813283,6.728567,5.300100,3.773767,6.608136,0.00005
0.167,0,0,0.000000,0.000000,5.977601,3.050332,5.816391,6.728294,5.303737,3.775125,6.613065,-0.00003
0.168,0,0,0.000000,0.000000,5.984951,3.126164,5.819498,6.728022,5.307374,3.776484,6.617993,0.00028
0.169,0,0,0.000000,0.000000,5.992303,3.201996,5.822605,6.727750,5.311012,3.777842,6.622922,0.00028
0.170,0,0,0.000000,0.000000,5.999690,3.276956,5.825970,6.727515,5.314665,3.778940,6.633983,0.00003
0.171,0,0,0.000000,0.000000,6.007075,3.351857,5.829353,6.727283,5.318320,3.780021,6.645463,-0.00003
0.172,0,0,0.000000,0.000000,6.014399,3.426758,5.832736,6.727051,5.321974,3.781102,6.656943,0.00013
0.173,0,0,0.000000,0.000000,6.021721,3.501658,5.836119,6.726820,5.325629,3.782183,6.668423,0.00033
0.174,0,0,0.000000,0.000000,6.028934,3.563093,5.839881,6.726701,5.328792,3.783010,6.669706,0.00010
0.175,0,0,0.000000,0.000000,6.036139,3.623606,5.843669,6.726589,5.331921,3.783820,6.670292,0.00013
0.176,0,0,0.000000,0.000000,6.042951,3.684120,5.847457,6.726478,5.335050,3.784630,6.670878,0.00003
0.177,0,0,0.000000,0.000000,6.049751,3.744633,5.851245,6.726367,5.338179,3.785439,6.671464,0.00018
0.178,0,0,0.000000,0.000000,6.055884,3.780321,5.855232,6.726343,5.342306,3.786360,6.674721,0.00003
0.179,0,0,0.000000,0.000000,6.062006,3.814310,5.859231,6.726324,5.346502,3.787288,6.678160,0.00013
0.180,0,0,0.000000,0.000000,6.067526,3.848300,5.863232,6.726306,5.350697,3.788216,6.681600,-0.00018
0.181,0,0,0.000000,0.000000,6.073038,3.882289,5.867231,6.726287,5.354893,3.789145,6.685039,0.00000
0.182,0,0,0.000000,0.000000,6.078110,3.903968,5.871063,6.726366,5.358758,3.790034,6.693496,0.00025
0.183,0,0,0.000000,0.000000,6.083176,3.924804,5.874884,6.726450,5.362600,3.790920,6.702295,0.00025
0.184,0,0,0.000000,0.000000,6.087976,3.945641,5.878704,6.726535,5.366443,3.791807,6.711094,0.00028
0.185,0,0,0.000000,0.000000,6.092774,3.966478,5.882524,6.726620,5.370285,3.792694,6.719894,0.00015
0.186,0,0,0.000000,0.000000,6.097459,3.977363,5.886611,6.726987,5.373498,3.793935,6.724462,-0.00013
0.187,0,0,0.000000,0.000000,6.102143,3.987568,5.890715,6.727374,5.376667,3.795199,6.728740,0.00003
0.188,0,0,0.000000,0.000000,6.106754,3.997773,5.894819,6.727760,5.379837,3.796464,6.733018,0.00013
0.189,0,0,0.000000,0.000000,6.111365,4.007977,5.898923,6.728147,5.383007,3.797729,6.737297,0.00010
0.190,0,0,0.000000,0.000000,6.115968,4.022536,5.902916,6.728653,5.385188,3.799502,6.735859,-0.00013
0.191,0,0,0.000000,0.000000,6.120578,4.037393,5.906901,6.729168,5.387300,3.801310,6.734032,0.00003
0.192,0,0,0.000000,0.000000,6.125493,4.052249,5.910886,6.729684,5.389413,3.803118,6.732204,-0.00002
0.193,0,0,0.000000,0.000000,6.130419,4.067106,5.914871,6.730199,5.391526,3.804927,6.730376,0.00000
0.194,0,0,0.000000,0.000000,6.135913,4.095664,5.918947,6.730737,5.393002,3.806618,6.726894,0.00013
0.195,0,0,0.000000,0.000000,6.141412,4.125158,5.923028,6.731276,5.394433,3.808301,6.723299,0.00005
0.196,0,0,0.000000,0.000000,6.147186,4.154652,5.927110,6.731815,5.395865,3.809984,6.719703,0.00000
0.197,0,0,0.000000,0.000000,6.152959,4.184146,5.931192,6.732355,5.397297,3.811667,6.716107,0.00000
0.198,0,0,0.000000,0.000000,6.158678,4.217383,5.935226,6.733265,5.397729,3.813348,6.720724,0.00000
0.199,0,0,0.000000,0.000000,6.164400,4.250876,5.939258,6.734200,5.398093,3.815028,6.725903,0.00028
0.200,0,0,0.000000,0.000000,6.170280,4.284369,5.943289,6.735137,5.398456,3.816708,6.731081,0.00013
0.201,0,0,0.000000,0.000000,6.176167,4.317862,5.947321,6.736072,5.398820,3.818389,6.736259,0.00013
0.202,0,0,0.000000,0.000000,6.182424,4.349432,5.951814,6.736909,5.398092,3.820705,6.737281,-0.00015
0.203,0,0,0.000000,0.000000,6.188678,4.380871,5.956338,6.737739,5.397289,3.823065,6.738019,0.00015
0.204,0,0,0.000000,0.000000,6.194814,4.412311,5.960863,6.738568,5.396486,3.825425,6.738757,0.00000
0.205,0,0,0.000000,0.000000,6.200937,4.443749,5.965387,6.739398,5.395683,3.827785,6.739495,0.00022
0.206,0,0,0.000000,0.000000,6.206354,4.448749,5.970141,6.740283,5.394526,3.829907,6.738615,-0.00010
0.207,0,0,0.000000,0.000000,6.211755,4.451940,5.974911,6.741170,5.393345,3.832012,6.737624,0.00018
0.208,0,0,0.000000,0.000000,6.216288,4.455131,5.979680,6.742058,5.392164,3.834117,6.736633,0.00003
0.209,0,0,0.000000,0.000000,6.220805,4.458323,5.984450,6.742946,5.390983,3.836222,6.735643,0.00010
0.210,0,0,0.000000,0.000000,6.224419,4.434146,5.988953,6.743719,5.389985,3.838786,6.743754,-0.00013
0.211,0,0,0.000000,0.000000,6.228016,4.408099,5.993437,6.744484,5.388999,3.841382,6.752488,0.00015
0.212,0,0,0.000000,0.000000,6.230687,4.382052,5.997922,6.745250,5.388014,3.843977,6.761222,0.00000
0.213,0,0,0.000000,0.000000,6.233342,4.356005,6.002407,6.746015,5.387029,3.846572,6.769956,0.00003
0.214,0,0,0.000000,0.000000,6.235073,4.299984,6.006768,6.747040,5.386252,3.849108,6.769022,0.00013
0.215,0,0,0.000000,0.000000,6.236790,4.241915,6.011121,6.748083,5.385489,3.851640,6.767427,0.00025
0.216,0,0,0.000000,0.000000,6.237678,4.183845,6.015474,6.749125,5.384727,3.854172,6.765832,-0.00003
0.217,0,0,0.000000,0.000000,6.238553,4.125775,6.019828,6.750168,5.383964,3.856704,6.764237,-0.00013
0.218,0,0,0.000000,0.000000,6.238734,4.050471,6.023806,6.750707,5.383695,3.859204,6.765921,0.00003
0.219,0,0,0.041624,0.000000,6.238905,3.973988,6.027759,6.751211,5.383459,3.861702,6.767829,0.00010
0.220,1,0,2.354044,0.000000,6.238565,3.897505,6.031712,6.751716,5.383223,3.864201,6.769738,0.00003
0.221,1,0,4.624856,0.000000,6.238218,3.821023,6.035665,6.752220,5.382987,3.866699,6.771646,0.00005
0.222,1,0,4.625677,0.000000,6.237497,3.731848,6.039446,6.752591,5.382370,3.869556,6.774765,0.00013
0.223,1,0,4.626508,0.000000,6.236767,3.641805,6.043215,6.752954,5.381728,3.872438,6.777967,0.00000
0.224,1,0,4.627879,0.000000,6.235524,3.551762,6.046984,6.753316,5.381085,3.875319,6.781169,0.00000
0.225,1,0,4.629274,0.000000,6.234269,3.461720,6.050753,6.753678,5.380443,3.878201,6.784370,0.00018
0.226,1,0,4.632013,0.000000,6.232358,3.359910,6.054054,6.753994,5.380247,3.884498,6.783521,0.00008
0.227,1,0,4.634767,0.000000,6.230438,3.257295,6.057324,6.754308,5.380082,3.891029,6.782394,0.00003
0.228,1,0,4.638327,0.000000,6.228048,3.154681,6.060593,6.754622,5.379916,3.897559,6.781268,0.00018
0.229,1,0,4.641888,0.000000,6.225654,3.052067,6.063862,6.754935,5.379751,3.904090,6.780141,0.00000
0.230,1,0,4.645465,0.000000,6.222989,2.942941,6.066784,6.755607,5.379448,3.911270,6.781734,0.00013
0.231,1,0,4.607137,0.000000,6.220315,2.833370,6.069682,6.756304,5.379136,3.918496,6.783512,0.00003
0.232,1,0,2.282648,0.000000,6.217199,2.723800,6.072580,6.757001,5.378824,3.925721,6.785291,0.00000
0.233,0,0,0.000000,0.000000,6.214070,2.614229,6.075478,6.757699,5.378512,3.932946,6.787069,0.00013
0.234,0,0,0.000000,0.000000,6.210304,2.495650,6.077817,6.758466,5.378522,3.938966,6.784297,0.00013
0.235,0,0,0.000000,0.000000,6.206529,2.376456,6.080119,6.759237,5.378555,3.944902,6.781213,0.00011
0.236,0,0,0.000000,0.000000,6.202301,2.257262,6.082420,6.760009,5.378587,3.950839,6.778130,0.00015
0.237,0,0,0.000000,0.000000,6.198068,2.138067,6.084722,6.760780,5.378620,3.956775,6.775047,0.00015
0.238,0,0,0.000000,0.000000,6.193626,2.015911,6.086695,6.761494,5.378216,3.963150,6.773869,-0.00010
0.239,0,0,0.000000,0.000000,6.189181,1.893553,6.088645,6.762202,5.377782,3.969555,6.772822,0.00003
0.240,0,0,0.000000,0.000000,6.184567,1.771195,6.090595,6.762911,5.377348,3.975959,6.771774,-0.00013
0.241,0,0,0.000000,0.000000,6.179948,1.648836,6.092546,6.763620,5.376915,3.982364,6.770727,0.00028
0.242,0,0,0.000000,0.000000,6.175085,1.523314,6.094056,6.765028,5.376790,3.990118,6.772908,0.00000
0.243,0,0,0.000000,0.000000,6.170210,1.397576,6.095536,6.766484,5.376687,3.997964,6.775310,0.00022
0.244,0,0,0.000000,0.000000,6.164754,1.271837,6.097016,6.767940,5.376584,4.005810,6.777712,0.00013
0.245,0,0,0.000000,0.000000,6.159283,1.146099,6.098496,6.769396,5.376480,4.013656,6.780114,0.00021
0.246,0,0,0.000000,0.000000,6.152942,1.006387,6.099325,6.771385,5.376827,4.023179,6.778974,0.00003
0.247,0,0,0.000000,0.000000,6.146591,0.865720,6.100110,6.773412,5.377204,4.032817,6.777593,0.00013
0.248,0,0,0.000000,0.000000,6.139637,0.725053,6.100894,6.775438,5.377581,4.042456,6.776211,0.00015
0.249,0,0,0.000000,0.000000,6.132679,0.584386,6.101679,6.777464,5.377958,4.052094,6.774829,0.00018
0.250,0,0,0.000000,0.000000,6.125456,0.438752,6.102039,6.779626,5.378385,4.062299,6.777959,0.00003
0.251,0,0,0.000000,0.000000,6.118226,0.292777,6.102370,6.781798,5.378814,4.072544,6.781398,0.00015
0.252,0,0,0.000000,0.000000,6.110665,0.146803,6.102701,6.783970,5.379244,4.082788,6.784836,0.00003
0.253,0,0,0.000000,0.000000,6.103096,0.000829,6.103032,6.786142,5.379673,4.093031,6.788275,0.00028
0.254,0,0,0.000000,0.000000,6.095034,-0.156585,6.103052,6.788307,5.379881,4.102771,6.783480,0.00003
0.255,0,0,0.000000,0.000000,6.086960,-0.314780,6.103050,6.790471,5.380074,4.112476,6.778122,0.00022
0.256,0,0,0.000000,0.000000,6.078300,-0.472976,6.103049,6.792636,5.380266,4.122181,6.772765,0.00025
0.257,0,0,0.000000,0.000000,6.069629,-0.631172,6.103048,6.794800,5.380458,4.131886,6.767407,0.00010
0.258,0,0,0.000000,0.000000,6.060406,-0.780462,6.101784,6.797433,5.380278,4.142189,6.771721,-0.00013
0.259,0,0,0.000000,0.000000,6.051182,-0.929143,6.100435,6.800097,5.380072,4.152531,6.776697,0.00003
0.260,0,0,0.000000,0.000000,6.041944,-1.077825,6.099085,6.802762,5.379866,4.162874,6.781672,0.00015
0.261,0,0,0.000000,0.000000,6.032716,-1.226506,6.097735,6.805427,5.379660,4.173216,6.786647,0.00000
0.262,0,0,0.000000,0.000000,6.023997,-1.361449,6.096300,6.808586,5.379251,4.184431,6.790412,0.00017
0.263,0,0,0.000000,0.000000,6.015285,-1.495453,6.094859,6.811779,5.378829,4.195706,6.794094,0.00003
0.264,0,0,0.000000,0.000000,6.006890,-1.629456,6.093418,6.814973,5.378407,4.206980,6.797775,0.00000
0.265,0,0,0.000000,0.000000,5.998497,-1.763460,6.091977,6.818166,5.377985,4.218255,6.801457,-0.00003
0.266,0,0,0.000000,0.000000,5.990186,-1.874541,6.089819,6.821246,5.377284,4.228815,6.799567,0.00013
0.267,0,0,0.000000,0.000000,5.981884,-1.984055,6.087612,6.824317,5.376565,4.239326,6.797296,0.00015
0.268,0,0,0.000000,0.000000,5.974125,-2.093568,6.085405,6.827389,5.375845,4.249836,6.795025,0.00005
0.269,0,0,0.000000,0.000000,5.966386,-2.203082,6.083198,6.830460,5.375126,4.260347,6.792755,0.00000
0.270,0,0,0.000000,0.000000,5.959666,-2.280386,6.080834,6.833214,5.374184,4.267666,6.790987,0.00000
0.271,0,0,0.000000,0.000000,5.952959,-2.355488,6.078460,6.835946,5.373226,4.274767,6.789254,0.00013
0.272,0,0,0.000000,0.000000,5.946914,-2.430590,6.076085,6.838678,5.372268,4.281868,6.787521,0.00013
0.273,0,0,0.000000,0.000000,5.940874,-2.505692,6.073711,6.841410,5.371310,4.288968,6.785788,0.00031
0.274,0,0,0.000000,0.000000,5.935083,-2.555655,6.070872,6.843586,5.370123,4.295339,6.786618,0.00013
0.275,0,0,0.000000,0.000000,5.929305,-2.603900,6.068001,6.845724,5.368920,4.301660,6.787622,0.00015
0.276,0,0,0.000000,0.000000,5.924183,-2.652145,6.065131,6.847862,5.367718,4.307980,6.788628,0.00000
0.277,0,0,0.000000,0.000000,5.919084,-2.700390,6.062260,6.850000,5.366515,4.314301,6.789632,0.00000
0.278,0,0,0.000000,0.000000,5.915131,-2.714427,6.059452,6.851738,5.364765,4.320932,6.787266,0.00028
0.279,0,0,0.000000,0.000000,5.911197,-2.726124,6.056649,6.853449,5.362977,4.327584,6.784669,0.00013
0.280,0,0,0.000000,0.000000,5.908222,-2.737822,6.053845,6.855160,5.361190,4.334237,6.782072,0.00003
0.281,0,0,0.000000,0.000000,5.905260,-2.749519,6.051042,6.856871,5.359402,4.340889,6.779475,0.00003
0.282,0,0,0.000000,0.000000,5.902953,-2.732654,6.048121,6.857140,5.357798,4.346740,6.779466,0.00015
0.283,0,0,0.000000,0.000000,5.900659,-2.713836,6.045193,6.857311,5.356206,4.352537,6.779634,0.00000
0.284,0,0,0.000000,0.000000,5.899046,-2.695019,6.042264,6.857482,5.354614,4.358333,6.779802,0.00015
0.285,0,0,0.000000,0.000000,5.897448,-2.676201,6.039335,6.857653,5.353023,4.364129,6.779971,0.00013
0.286,0,0,0.000000,0.000000,5.896615,-2.637006,6.036708,6.857662,5.351640,4.368783,6.780314,0.00013
0.287,0,0,0.000000,0.000000,5.895795,-2.596418,6.034102,6.857659,5.350272,4.373359,6.780670,0.00015
0.288,0,0,0.000000,0.000000,5.895661,-2.555830,6.031496,6.857657,5.348904,4.377934,6.781026,0.00015
0.289,0,0,0.000000,0.000000,5.895538,-2.515241,6.028890,6.857655,5.347536,4.382510,6.781381,0.00031
0.290,0,0,0.000000,0.000000,5.896008,-2.454074,6.026403,6.858070,5.346856,4.384710,6.785631,0.00000
0.291,0,0,0.000000,0.000000,5.896492,-2.391499,6.023924,6.858513,5.346224,4.386747,6.790146,0.00000
0.292,0,0,0.000000,0.000000,5.897640,-2.328924,6.021445,6.858957,5.345592,4.388784,6.794662,0.00013
0.293,0,0,0.000000,0.000000,5.898802,-2.266349,6.018966,6.859400,5.344960,4.390821,6.799178,0.00015
0.294,0,0,0.000000,0.000000,5.900688,-2.187681,6.016879,6.859404,5.344551,4.393003,6.797022,0.00005
0.295,0,0,0.000000,0.000000,5.902584,-2.107912,6.014819,6.859377,5.344157,4.395195,6.794409,0.00015
0.296,0,0,0.000000,0.000000,5.904991,-2.028144,6.012759,6.859350,5.343763,4.397386,6.791797,0.00015
0.297,0,0,0.000000,0.000000,5.907405,-1.948375,6.010699,6.859324,5.343369,4.399578,6.789185,-0.00013
0.298,0,0,0.000000,0.000000,5.910170,-1.849694,6.008587,6.859474,5.343162,4.401848,6.786993,-0.00003
0.299,0,0,0.000000,0.000000,5.912950,-1.749720,6.006471,6.859635,5.342968,4.404123,6.784831,-0.00013
0.300,0,0,0.000000,0.000000,5.916487,-1.649746,6.004356,6.859797,5.342773,4.406398,6.782669,0.00015
0.301,0,0,0.000000,0.000000,5.920046,-1.549771,6.002241,6.859959,5.342578,4.408673,6.780506,0.00013
0.302,0,0,0.000000,0.000000,5.924735,-1.434194,6.001020,6.864568,5.342187,4.410505,6.776631,0.00028
0.303,0,0,0.000000,0.000000,5.929434,-1.317550,5.999861,6.869481,5.341782,4.412308,6.772639,0.00013
0.304,0,0,0.000000,0.000000,5.934743,-1.200907,5.998702,6.874394,5.341377,4.414110,6.768648,-0.00010
0.305,0,0,0.000000,0.000000,5.940052,-1.084263,5.997543,6.879307,5.340971,4.415912,6.764656,0.00031
0.306,0,0,0.000000,0.000000,5.945372,-0.964688,5.996617,6.884501,5.340608,4.416711,6.763331,0.00015
0.307,0,0,0.000000,0.000000,5.950696,-0.844912,5.995707,6.889714,5.340246,4.417443,6.762190,0.00018
0.308,0,0,0.000000,0.000000,5.956233,-0.725137,5.994796,6.894928,5.339885,4.418174,6.761049,0.00013
0.309,0,0,0.000000,0.000000,5.961779,-0.605361,5.993886,6.900141,5.339524,4.418905,6.759907,0.00010
0.310,0,0,0.000000,0.000000,5.967800,-0.486767,5.993568,6.904404,5.339552,4.419486,6.762817,0.00018
0.311,0,0,0.000000,0.000000,5.973821,-0.368253,5.993291,6.908601,5.339607,4.420056,6.766003,0.00013
0.312,0,0,0.000000,0.000000,5.979813,-0.249739,5.993014,6.912798,5.339662,4.420627,6.769189,0.00003
0.313,0,0,0.000000,0.000000,5.985794,-0.131225,5.992737,6.916996,5.339716,4.421197,6.772376,0.00015
0.314,0,0,0.000000,0.000000,5.991177,-0.035699,5.992843,6.921109,5.339483,4.420073,6.770466,0.00015
0.315,0,0,0.000000,0.000000,5.996551,0.058256,5.992974,6.925216,5.339230,4.418832,6.768209,-0.00010
0.316,0,0,0.000000,0.000000,6.001432,0.152210,5.993106,6.929323,5.338977,4.417591,6.765951,0.00000
0.317,0,0,0.000000,0.000000,6.006308,0.246164,5.993238,6.933430,5.338724,4.416350,6.763693,0.00018
0.318,0,0,0.000000,0.000000,6.010878,0.317091,5.993771,6.905392,5.338767,4.411533,6.765032,0.00018
0.319,0,0,0.000000,0.000000,6.015437,0.386444,5.994330,6.875156,5.338830,4.406471,6.766617,0.00015
0.320,0,0,0.000000,0.000000,6.019390,0.455796,5.994890,6.844920,5.338894,4.401409,6.768202,0.00015
0.321,0,0,0.000000,0.000000,6.023324,0.525149,5.995450,6.814684,5.338957,4.396347,6.769787,0.00000
0.322,0,0,0.000000,0.000000,6.026282,0.557445,5.996246,6.815863,5.339353,4.390124,6.769428,-0.00003
0.323,0,0,0.000000,0.000000,6.029221,0.587208,5.997058,6.819190,5.339771,4.383822,6.768935,0.00003
0.324,0,0,0.000000,0.000000,6.031128,0.616970,5.997870,6.822517,5.340189,4.377520,6.768443,0.00000
0.325,0,0,0.000000,0.000000,6.033018,0.646733,5.998682,6.825844,5.340608,4.371218,6.767951,-0.00022
0.326,0,0,0.000000,0.000000,6.033899,0.640146,5.999475,6.829943,5.341273,4.365140,6.766677,0.00000
0.327,0,0,0.000000,0.000000,6.034762,0.631074,6.000267,6.834095,5.341955,4.359077,6.765350,0.00013
0.328,0,0,0.000000,0.000000,6.034588,0.622001,6.001058,6.838246,5.342637,4.353014,6.764023,0.00005
0.329,0,0,0.000000,0.000000,6.034395,0.612929,6.001849,6.842398,5.343319,4.346951,6.762696,0.00003
0.330,0,0,0.000000,0.000000,6.033138,0.568502,6.002527,6.846739,5.343715,4.340230,6.764519,0.00015
0.331,0,0,0.000000,0.000000,6.031863,0.521658,6.003197,6.851093,5.344091,4.333464,6.766557,0.00005
0.332,0,0,0.000000,0.000000,6.029577,0.474814,6.003866,6.855447,5.344467,4.326697,6.768596,0.00010
0.333,0,0,0.000000,0.000000,6.027275,0.427969,6.004536,6.859801,5.344843,4.319931,6.770634,0.00000
0.334,0,0,0.000000,0.000000,6.024038,0.352760,6.004937,6.865340,5.344388,4.313269,6.769722,0.00003
0.335,0,0,0.000000,0.000000,6.020786,0.275612,6.005319,6.870959,5.343877,4.306613,6.768609,0.00013
0.336,0,0,0.000000,0.000000,6.016680,0.198464,6.005701,6.876579,5.343366,4.299958,6.767496,0.00028
0.337,0,0,0.000000,0.000000,6.012560,0.121316,6.006083,6.882199,5.342854,4.293303,6.766382,0.00025
0.338,0,0,0.000000,0.000000,6.007707,0.026184,6.006123,6.887922,5.342109,4.285931,6.766460,0.00010
0.339,0,0,0.000000,0.000000,6.002846,-0.070177,6.006139,6.893652,5.341348,4.278510,6.766619,0.00025
0.340,0,0,0.000000,0.000000,5.997552,-0.166537,6.006155,6.899382,5.340587,4.271089,6.766778,0.00015
0.341,0,0,0.000000,0.000000,5.992257,-0.262898,6.006172,6.905112,5.339825,4.263668,6.766937,0.00003
0.342,0,0,0.000000,0.000000,5.986827,-0.357144,6.005720,6.910408,5.338807,4.255953,6.767009,0.00028
0.343,0,0,0.000000,0.000000,5.981395,-0.451245,6.005237,6.915674,5.337771,4.248219,6.767076,0.00015
0.344,0,0,0.000000,0.000000,5.975889,-0.545345,6.004753,6.920940,5.336735,4.240484,6.767142,0.00000
0.345,0,0,0.000000,0.000000,5.970382,-0.639446,6.004269,6.926207,5.335700,4.232749,6.767208,0.00015
0.346,0,0,0.000000,0.000000,5.964849,-0.723391,6.003337,6.928253,5.335437,4.225196,6.767298,0.00005
0.347,0,0,0.000000,0.000000,5.959321,-0.806641,6.002375,6.930079,5.335227,4.217655,6.767389,0.00015
0.348,0,0,0.000000,0.000000,5.954079,-0.889892,6.001412,6.931906,5.335018,4.210114,6.767480,0.00000
0.349,0,0,0.000000,0.000000,5.948848,-0.973142,6.000450,6.933733,5.334808,4.202572,6.767571,0.00018
0.350,0,0,0.000000,0.000000,5.944221,-1.030675,5.999138,6.937586,5.334971,4.194950,6.764538,0.00031
0.351,0,0,0.000000,0.000000,5.939606,-1.086450,5.997802,6.941579,5.335160,4.187321,6.761292,0.00013
0.352,0,0,0.000000,0.000000,5.935598,-1.142225,5.996466,6.945571,5.335349,4.179693,6.758045,0.00003
0.353,0,0,0.000000,0.000000,5.931600,-1.198000,5.995130,6.949564,5.335538,4.172065,6.754799,0.00013
0.354,0,0,0.000000,0.000000,5.928144,-1.236836,5.993968,6.945770,5.335449,4.164865,6.753921,0.00038
0.355,0,0,0.000000,0.000000,5.924697,-1.274514,5.992818,6.941444,5.335342,4.157696,6.753206,0.00018
0.356,0,0,0.000000,0.000000,5.921812,-1.312191,5.991668,6.937118,5.335235,4.150526,6.752490,0.00000
0.357,0,0,0.000000,0.000000,5.918939,-1.349869,5.990518,6.932792,5.335127,4.143356,6.751774,0.00038
0.358,0,0,0.000000,0.000000,5.916695,-1.355891,5.988951,6.927867,5.335624,4.137568,6.752475,0.00000
0.359,0,0,0.000000,0.061504,5.914466,-1.359747,5.987356,6.922901,5.336163,4.131874,6.753273,-0.00025
0.360,0,0,0.000000,3.478416,5.913043,-1.363604,5.985761,6.917936,5.336701,4.126179,6.754071,-0.00013
0.361,0,1,0.000000,6.833826,5.911638,-1.367461,5.984165,6.912970,5.337240,4.120485,6.754869,0.00015
0.362,0,1,0.000000,6.833962,5.911207,-1.341756,5.982789,6.908178,5.337697,4.117902,6.758430,0.00013
0.363,0,1,0.000000,6.834078,5.910795,-1.314030,5.981427,6.903398,5.338148,4.115532,6.762180,0.00003
0.364,0,1,0.000000,6.833015,5.911360,-1.286304,5.980065,6.898617,5.338600,4.113163,6.765930,-0.00013
0.365,0,1,0.000000,6.831906,5.911943,-1.258578,5.978704,6.893837,5.339051,4.110793,6.769681,0.00025
0.366,0,1,0.000000,6.828238,5.913521,-1.187427,5.977087,6.888509,5.339754,4.110074,6.774591,0.00003
0.367,0,1,0.000000,6.824686,5.915123,-1.113306,5.975454,6.883143,5.340474,4.109467,6.779582,0.00015
0.368,0,1,0.000000,6.827432,5.918025,-1.039185,5.973820,6.877778,5.341194,4.108861,6.784572,0.00003
0.369,0,1,0.000000,6.830427,5.920955,-0.965064,5.972186,6.872412,5.341914,4.108254,6.789562,0.00015
0.370,0,1,0.000000,6.846992,5.925364,-0.864099,5.971484,6.899630,5.342668,4.107981,6.793900,0.00013
0.371,0,1,0.000000,6.863567,5.929788,-0.761298,5.970846,6.929075,5.343424,4.107731,6.798192,0.00011
0.372,0,1,0.000000,6.880724,5.934940,-0.658498,5.970208,6.958520,5.344180,4.107480,6.802484,-0.00003
0.373,0,1,0.000000,6.897630,5.940092,-0.555697,5.969570,6.987966,5.344936,4.107230,6.806777,0.00015
0.374,0,1,0.000000,6.900859,5.945230,-0.445253,5.969081,6.986638,5.345768,4.106893,6.808311,0.00005
0.375,0,1,0.000000,6.903946,5.950377,-0.334287,5.968603,6.983205,5.346605,4.106550,6.809657,0.00013
0.376,0,1,0.000000,6.899260,5.956004,-0.223320,5.968124,6.979773,5.347442,4.106208,6.811002,0.00015
0.377,0,1,0.000000,6.894613,5.961648,-0.112354,5.967646,6.976341,5.348279,4.105865,6.812348,-0.00007
0.378,0,1,0.000000,6.892207,5.968266,0.000468,5.968146,6.972671,5.349090,4.105579,6.816609,-0.00007
0.379,0,1,0.000000,6.889893,5.974881,0.113416,5.968714,6.968985,5.349898,4.105297,6.821069,0.00005
0.380,0,1,0.000000,6.892650,5.981384,0.226364,5.969281,6.965298,5.350706,4.105015,6.825530,0.00025
0.381,0,1,0.000000,6.895492,5.987864,0.339313,5.969849,6.961612,5.351515,4.104733,6.829990,0.00003
0.382,0,1,0.000000,6.903010,5.993084,0.427802,5.970123,6.958129,5.352477,4.104683,6.846437,-0.00003
0.383,0,1,0.000000,6.910509,5.998292,0.514618,5.970378,6.954660,5.353450,4.104649,6.863704,-0.00015
0.384,0,1,0.000000,6.916893,6.002838,0.601435,5.970633,6.951190,5.354424,4.104615,6.880971,0.00015
0.385,0,1,0.000000,6.923162,6.007387,0.688252,5.970888,6.947721,5.355397,4.104582,6.898238,0.00015
0.386,0,1,0.000000,6.923137,6.012107,0.760258,5.971719,6.943948,5.356199,4.104747,6.900998,0.00018
0.387,0,1,0.000000,6.923079,6.016825,0.831253,5.972589,6.940154,5.356989,4.104926,6.902766,0.00003
0.388,0,1,0.000000,6.921216,6.021386,0.902247,5.973460,6.936360,5.357779,4.105105,6.904534,0.00007
0.389,0,1,0.000000,6.919419,6.025933,0.973241,5.974330,6.932566,5.358569,4.105284,6.906302,0.00013
0.390,0,1,0.000000,6.921204,6.029757,1.009389,5.975833,6.928828,5.359121,4.105209,6.913940,0.00022
0.391,0,1,0.000000,6.923002,6.033566,1.043155,5.977379,6.925095,5.359657,4.105117,6.921979,-0.00003
0.392,0,1,0.000000,6.925475,6.036487,1.076921,5.978925,6.921361,5.360193,4.105025,6.930019,0.00018
0.393,0,1,0.000000,6.927887,6.039391,1.110687,5.980471,6.917628,5.360729,4.104933,6.938058,0.00025
0.394,0,1,0.000000,6.926954,6.041381,1.118613,5.981694,6.914010,5.360178,4.105262,6.938366,0.00013
0.395,0,1,0.000000,6.925989,6.043356,1.124773,5.982896,6.910399,5.359554,4.105620,6.938145,-0.00015
0.396,0,1,0.000000,6.923234,6.044492,1.130932,5.984097,6.906789,5.358929,4.105978,6.937924,0.00025
0.397,0,1,0.000000,6.920491,6.045614,1.137091,5.985299,6.903179,5.358304,4.106336,6.937704,0.00005
0.398,0,1,0.000000,6.918355,6.045976,1.118517,5.986316,6.902717,5.357645,4.106384,6.933587,0.00015
0.399,0,1,0.000000,6.916214,6.046324,1.098251,5.987320,6.902471,5.356984,4.106411,6.929204,0.00015
0.400,0,1,0.000000,6.913751,6.045887,1.077985,5.988324,6.902225,5.356323,4.106439,6.924822,0.00015
0.401,0,1,0.000000,6.911260,6.045435,1.057720,5.989328,6.901978,5.355662,4.106466,6.920439,0.00015
0.402,0,1,0.000000,6.907259,6.044175,1.007934,5.990429,6.898592,5.354915,4.106744,6.916452,0.00000
0.403,0,1,0.000000,6.903265,6.042903,0.956131,5.991537,6.894992,5.354163,4.107038,6.912492,0.00013
0.404,0,1,0.000000,6.899668,6.040944,0.904327,5.992645,6.891392,5.353411,4.107333,6.908532,0.00000
0.405,0,1,0.000000,6.896111,6.038974,0.852523,5.993752,6.887791,5.352658,4.107628,6.904572,-0.00013
0.406,0,1,0.000000,6.894799,6.036418,0.781441,5.994624,6.887487,5.351059,4.108178,6.901802,0.00018
0.407,0,1,0.000000,6.893485,6.033847,0.709041,5.995479,6.887408,5.349402,4.108745,6.899114,0.00003
0.408,0,1,0.000000,6.892047,6.030503,0.636642,5.996334,6.887330,5.347745,4.109312,6.896427,-0.00010
0.409,0,1,0.000000,6.890563,6.027142,0.564242,5.997188,6.887251,5.346088,4.109879,6.893739,-0.00010
0.410,0,1,0.000000,6.886608,6.022788,0.461027,5.997882,6.887932,5.345115,4.110144,6.886165,0.00013
0.411,0,1,0.000000,6.882665,6.018415,0.355706,5.998564,6.888665,5.344187,4.110388,6.878258,0.00015
0.412,0,1,0.000000,6.879383,6.013052,0.250385,5.999247,6.889399,5.343260,4.110632,6.870350,0.00038
0.413,0,1,0.000000,6.876179,6.007674,0.145063,5.999929,6.890132,5.342333,4.110876,6.862442,0.00025
0.414,0,1,0.000000,6.877226,6.001463,0.031143,5.999718,6.891416,5.341780,4.110731,6.865646,0.00025
0.415,0,1,0.000000,6.878327,5.995248,-0.083365,5.999446,6.892738,5.341253,4.110559,6.869609,0.00020
0.416,0,1,0.000000,6.882327,5.988794,-0.197873,5.999173,6.894060,5.340726,4.110388,6.873571,0.00040
0.417,0,1,0.000000,6.886333,5.982346,-0.312381,5.998901,6.895381,5.340199,4.110216,6.877534,0.00013
0.418,0,1,0.000000,6.890718,5.976236,-0.414645,5.998348,6.897058,5.340741,4.110693,6.883265,0.00005
0.419,0,1,0.000000,6.895082,5.970132,-0.516073,5.997777,6.898759,5.341356,4.111215,6.889117,0.00013
0.420,0,1,0.000000,6.898344,5.964322,-0.617500,5.997205,6.900460,5.341971,4.111736,6.894969,0.00013
0.421,0,1,0.000000,6.901573,5.958516,-0.718927,5.996633,6.902161,5.342587,4.112257,6.900820,-0.00010
0.422,0,1,0.000000,6.902975,5.952940,-0.793554,5.995431,6.903248,5.343586,4.112988,6.902360,0.00028
0.423,0,1,0.000000,6.904368,5.947379,-0.866349,5.994187,6.904294,5.344613,4.113734,6.903605,0.00028
0.424,0,1,0.000000,6.905293,5.942677,-0.939143,5.992943,6.905339,5.345639,4.114480,6.904850,-0.00007
0.425,0,1,0.000000,6.906233,5.938001,-1.011938,5.991698,6.906385,5.346665,4.115225,6.906095,-0.00010
0.426,0,1,0.000000,6.908030,5.934787,-1.044952,5.990650,6.906841,5.347887,4.115596,6.908496,0.00015
0.427,0,1,0.000000,6.909815,5.931592,-1.075246,5.989615,6.907258,5.349121,4.115942,6.910976,0.00035
0.428,0,1,0.000000,6.910971,5.929439,-1.105540,5.988580,6.907674,5.350356,4.116287,6.913457,0.00013
0.429,0,1,0.000000,6.912086,5.927296,-1.135834,5.987545,6.908090,5.351591,4.116633,6.915937,0.00013
0.430,0,1,0.000000,6.910980,5.925669,-1.135249,5.986239,6.908679,5.352883,4.117101,6.912753,0.00013
0.431,0,1,0.000000,6.909862,5.924057,-1.132552,5.984915,6.909279,5.354180,4.117578,6.909182,0.00018
0.432,0,1,0.000000,6.908051,5.923253,-1.129854,5.983591,6.909879,5.355477,4.118055,6.905611,0.00010
0.433,0,1,0.000000,6.906262,5.922471,-1.127157,5.982267,6.910480,5.356773,4.118532,6.902040,0.00013
0.434,0,1,0.000000,6.905738,5.922891,-1.086774,5.980968,6.911409,5.357913,4.119195,6.901134,0.00028
0.435,0,1,0.000000,6.843077,5.923330,-1.043814,5.979672,6.912360,5.359041,4.119872,6.900409,0.00000
0.436,0,1,0.000000,3.390465,5.924786,-1.000854,5.978375,6.913312,5.360169,4.120548,6.899685,-0.00003
0.437,0,0,0.000000,0.000000,5.926256,-0.957894,5.977078,6.914263,5.361298,4.121225,6.898961,0.00013
0.438,0,0,0.000000,0.000000,5.928475,-0.891502,5.976132,6.915660,5.363380,4.121095,6.899273,0.00005
0.439,0,0,0.000000,0.000000,5.930709,-0.823508,5.975211,6.917088,5.365527,4.120910,6.899656,0.00015
0.440,0,0,0.000000,0.000000,5.933784,-0.755514,5.974288,6.918516,5.367675,4.120725,6.900039,0.00013
0.441,0,0,0.000000,0.000000,5.936876,-0.687520,5.973367,6.919943,5.369822,4.120540,6.900423,0.00013
0.442,0,0,0.000000,0.000000,5.940920,-0.596013,5.972837,6.921539,5.371537,4.120963,6.891937,0.00013
0.443,0,0,0.000000,0.000000,5.944978,-0.502898,5.972334,6.923146,5.373223,4.121428,6.882845,0.00013
0.444,0,0,0.000000,0.000000,5.949739,-0.409783,5.971831,6.924753,5.374909,4.121892,6.873753,0.00018
0.445,0,0,0.000000,0.000000,5.954509,-0.316668,5.971328,6.926360,5.376595,4.122357,6.864661,0.00003
0.446,0,0,0.000000,0.000000,5.959681,-0.214285,5.971186,6.928054,5.377312,4.123169,6.850107,0.00038
0.447,0,0,0.000000,0.000000,5.964859,-0.111269,5.971070,6.929755,5.377963,4.124005,6.835178,0.00028
0.448,0,0,0.000000,0.000000,5.970348,-0.008252,5.970953,6.931455,5.378613,4.124842,6.820250,-0.00013
0.449,0,0,0.000000,0.000000,5.975843,0.094765,5.970837,6.933155,5.379264,4.125678,6.805322,-0.00015
0.450,0,0,0.000000,0.000000,5.981629,0.202582,5.971042,6.934339,5.381204,4.126306,6.835386,0.00003
0.451,0,0,0.000000,0.000000,5.987422,0.310727,5.971270,6.935486,5.383231,4.126920,6.868526,0.00031
0.452,0,0,0.000000,0.000000,5.993528,0.418872,5.971497,6.936635,5.385259,4.127534,6.901667,0.00018
0.453,0,0,0.000000,0.000000,5.999640,0.527017,5.971725,6.937783,5.387287,4.128149,6.934808,0.00018
0.454,0,0,0.000000,0.000000,6.006052,0.633328,5.972503,6.939335,5.388451,4.128820,6.911025,0.00008
0.455,0,0,0.000000,0.000000,6.012465,0.739514,5.973319,6.940914,5.389555,4.129497,6.883350,-0.00018
0.456,0,0,0.000000,0.000000,6.018936,0.845700,5.974134,6.942493,5.390660,4.130173,6.855675,0.00013
0.457,0,0,0.000000,0.000000,6.025404,0.951885,5.974950,6.944073,5.391765,4.130848,6.828000,0.00015
0.458,0,0,0.000000,0.000000,6.031686,1.047136,5.976107,6.945281,5.392577,4.131570,6.843745,0.00025
0.459,0,0,0.000000,0.000000,6.037964,1.141639,5.977287,6.946463,5.393369,4.132296,6.862458,0.00015
0.460,0,0,0.000000,0.000000,6.044075,1.236142,5.978467,6.947646,5.394161,4.133021,6.881172,0.00000
0.461,0,0,0.000000,0.000000,6.050182,1.330646,5.979647,6.948828,5.394953,4.133746,6.899885,-0.00010
0.462,0,0,0.000000,0.000000,6.056151,1.408870,5.981270,6.949471,5.394831,4.134123,6.881777,0.00015
0.463,0,0,0.000000,0.000000,6.062112,1.485981,5.982924,6.950078,5.394646,4.134477,6.861151,-0.00010
0.464,0,0,0.000000,0.000000,6.067660,1.563092,5.984578,6.950686,5.394461,4.134830,6.840526,0.00022
0.465,0,0,0.000000,0.000000,6.073196,1.640203,5.986231,6.951293,5.394276,4.135184,6.819900,0.00028
0.466,0,0,0.000000,0.000000,6.078036,1.691337,5.988089,6.951781,5.393644,4.135592,6.800076,0.00018
0.467,0,0,0.000000,0.000000,6.082863,1.740694,5.989960,6.952261,5.392981,4.136004,6.780306,0.00028
0.468,0,0,0.000000,0.000000,6.087051,1.790052,5.991831,6.952741,5.392319,4.136416,6.760537,0.00003
0.469,0,0,0.000000,0.000000,6.091230,1.839409,5.993702,6.953221,5.391656,4.136828,6.740768,-0.00013
0.470,0,0,0.000000,0.000000,6.094900,1.868466,5.995636,6.953396,5.389806,4.137819,6.734873,0.00015
0.471,0,0,0.000000,0.000000,6.098561,1.896135,5.997573,6.953550,5.387875,4.138850,6.729926,0.00007
0.472,0,0,0.000000,0.000000,6.101741,1.923804,5.999512,6.953704,5.385943,4.139880,6.724979,0.00025
0.473,0,0,0.000000,0.000000,6.104912,1.951473,6.001450,6.953857,5.384012,4.140911,6.720032,0.00013
0.474,0,0,0.000000,0.000000,6.107605,1.959198,6.003553,6.954436,5.382050,4.141981,6.716451,0.00025
0.475,0,0,0.000000,0.000000,6.110291,1.965558,6.005669,6.955043,5.380085,4.143053,6.712964,0.00021
0.476,0,0,0.000000,0.000000,6.112538,1.971918,6.007784,6.955650,5.378121,4.144125,6.709476,0.00000
0.477,0,0,0.000000,0.000000,6.114779,1.978278,6.009900,6.956257,5.376156,4.145198,6.705988,0.00000
0.478,0,0,0.000000,0.000000,6.116618,1.972474,6.011875,6.957285,5.374381,4.146027,6.700091,0.00025
0.479,0,0,0.000000,0.000000,6.118451,1.965838,6.013840,6.958341,5.372618,4.146839,6.694030,0.00015
0.480,0,0,0.000000,0.000000,6.119873,1.959202,6.015805,6.959397,5.370855,4.147652,6.687969,0.00015
0.481,0,0,0.000000,0.000000,6.121287,1.952566,6.017770,6.960453,5.369093,4.148464,6.681908,0.00018
0.482,0,0,0.000000,0.000000,6.122284,1.931836,6.019723,6.961365,5.367369,4.149754,6.680634,0.00005
0.483,0,0,0.000000,0.000000,6.123275,1.910143,6.021676,6.962267,5.365648,4.151076,6.679687,0.00013
0.484,0,0,0.000000,0.000000,6.123912,1.888449,6.023628,6.963169,5.363927,4.152399,6.678740,0.00015
0.485,0,0,0.000000,0.000000,6.124543,1.866755,6.025580,6.964071,5.362206,4.153721,6.677793,-0.00003
0.486,0,0,0.000000,0.000000,6.124892,1.836240,6.027438,6.964958,5.361052,4.154595,6.669523,0.00022
0.487,0,0,0.000000,0.000000,6.125236,1.805122,6.029288,6.965844,5.359937,4.155438,6.660752,-0.00003
0.488,0,0,0.000000,0.000000,6.125312,1.774003,6.031139,6.966730,5.358821,4.156281,6.651980,0.00013
0.489,0,0,0.042817,0.000000,6.125383,1.742884,6.032990,6.967616,5.357706,4.157124,6.643209,0.00043
0.490,0,0,2.421566,0.000000,6.125176,1.702156,6.034795,6.967949,5.357429,4.157540,6.640032,-0.00010
0.491,1,0,4.757500,0.000000,6.124963,1.660770,6.036598,6.968246,5.357210,4.157928,6.637237,0.00005
0.492,1,0,4.757617,0.000000,6.124417,1.619385,6.038402,6.968542,5.356990,4.158316,6.634442,0.00003
0.493,1,0,4.757735,0.000000,6.123865,1.577999,6.040205,6.968838,5.356771,4.158703,6.631647,-0.00003
0.494,1,0,4.757816,0.000000,6.122986,1.536730,6.041559,6.968663,5.356157,4.159412,6.633207,0.00010
0.495,1,0,4.757896,0.000000,6.122108,1.495469,6.042882,6.968456,5.355515,4.160143,6.635066,0.00031
0.496,1,0,4.757910,0.000000,6.121257,1.454208,6.044206,6.968249,5.354874,4.160875,6.636925,0.00010
0.497,1,0,4.757923,0.000000,6.120412,1.412946,6.045530,6.968042,5.354233,4.161606,6.638783,0.00003
0.498,1,0,4.757864,0.000000,6.119940,1.379240,6.046937,6.967895,5.353502,4.162165,6.637282,0.00003
0.499,1,0,4.757805,0.000000,6.119472,1.346050,6.048349,6.967752,5.352765,4.162711,6.635551,0.00000
0.500,1,0,4.757679,0.000000,6.119232,1.312860,6.049762,6.967609,5.352028,4.163258,6.633820,0.00015
0.501,1,0,4.757552,0.000000,6.118994,1.279670,6.051174,6.967466,5.351292,4.163805,6.632089,0.00003
0.502,1,0,4.757379,0.000000,6.118818,1.259963,6.052243,6.967392,5.350380,4.164412,6.630370,0.00003
0.503,1,0,4.757206,0.000000,6.118650,1.241178,6.053289,6.967322,5.349456,4.165024,6.628651,-0.00013
0.504,1,0,4.757065,0.000000,6.118890,1.222392,6.054334,6.967252,5.348532,4.165637,6.626933,0.00025
0.505,1,0,4.756925,0.000000,6.119144,1.203607,6.055380,6.967182,5.347608,4.166249,6.625214,0.00003
0.506,1,0,4.756886,0.000000,6.120158,1.204318,6.056540,6.967245,5.346713,4.167116,6.623162,0.00018
0.507,1,0,4.756847,0.000000,6.121181,1.206362,6.057707,6.967316,5.345819,4.168001,6.621087,0.00013
0.508,1,0,4.756873,0.000000,6.122680,1.208405,6.058874,6.967388,5.344926,4.168886,6.619011,0.00018
0.509,1,0,4.756899,0.000000,6.124180,1.210449,6.060041,6.967459,5.344032,4.169770,6.616936,0.00000
0.510,1,0,4.756966,0.000000,6.125807,1.221331,6.061213,6.967529,5.343405,4.170726,6.618496,0.00018
0.511,1,0,4.757035,0.000000,6.127439,1.232818,6.062384,6.967599,5.342796,4.171688,6.620306,0.00010
0.512,1,0,4.757304,0.000000,6.129349,1.244304,6.063555,6.967669,5.342187,4.172648,6.622115,0.00028
0.513,1,0,4.757579,0.000000,6.131268,1.255790,6.064727,6.967738,5.341579,4.173609,6.623924,0.00015
0.514,1,0,4.758194,0.000000,6.133675,1.279065,6.066017,6.967638,5.341870,4.174662,6.631660,0.00003
0.515,1,0,4.758813,0.000000,6.136087,1.303145,6.067316,6.967526,5.342223,4.175720,6.639802,0.00000
0.516,1,0,4.759596,0.000000,6.138805,1.327225,6.068615,6.967415,5.342576,4.176779,6.647943,0.00015
0.517,1,0,4.760377,0.000000,6.141525,1.351305,6.069914,6.967304,5.342929,4.177838,6.656085,0.00022
0.518,1,0,4.761097,0.000000,6.144303,1.377164,6.071316,6.967178,5.343302,4.178770,6.666286,0.00028
0.519,1,0,4.761815,0.000000,6.147082,1.403144,6.072726,6.967052,5.343676,4.179694,6.676628,0.00018
0.520,1,0,4.762404,0.000000,6.149876,1.429124,6.074136,6.966926,5.344050,4.180618,6.686969,0.00015
0.521,1,0,4.762990,0.000000,6.152670,1.455105,6.075545,6.966799,5.344425,4.181541,6.697311,0.00028
0.522,1,0,4.763450,0.000000,6.155514,1.482777,6.077010,6.967000,5.344940,4.181937,6.692871,0.00000
0.523,1,0,4.763909,0.000000,6.158361,1.510565,6.078478,6.967222,5.345465,4.182297,6.687419,0.00003
0.524,1,0,4.764337,0.000000,6.161385,1.538353,6.079947,6.967445,5.345989,4.182656,6.681968,0.00022
0.525,1,0,4.764765,0.000000,6.164413,1.566142,6.081415,6.967668,5.346514,4.183016,6.676517,0.00025
0.526,1,0,4.765271,0.000000,6.167697,1.596554,6.083065,6.968032,5.346782,4.183887,6.673046,-0.00010
0.527,1,0,4.765779,0.000000,6.170982,1.627146,6.084726,6.968407,5.347033,4.184793,6.669710,0.00015
0.528,1,0,4.766419,0.000000,6.174265,1.657738,6.086389,6.968781,5.347284,4.185699,6.666374,0.00020
0.529,1,0,4.767062,0.000000,6.177544,1.688331,6.088051,6.969156,5.347535,4.186604,6.663038,0.00022
0.530,1,0,4.767860,0.000000,6.180535,1.709522,6.089799,6.968973,5.347734,4.188098,6.656559,0.00015
0.531,1,0,4.768661,0.000000,6.183522,1.730071,6.091553,6.968752,5.347929,4.189631,6.649864,0.00015
0.532,1,0,4.769582,0.000000,6.186239,1.750619,6.093307,6.968531,5.348125,4.191165,6.643170,0.00015
0.533,1,0,4.770504,0.000000,6.188953,1.771168,6.095062,6.968310,5.348321,4.192699,6.636476,0.00028
0.534,1,0,4.771486,0.000000,6.191484,1.783676,6.096856,6.968311,5.348594,4.194345,6.633203,0.00015
0.535,1,0,4.772469,0.000000,6.194011,1.795634,6.098653,6.968327,5.348873,4.195999,6.630164,-0.00007
0.536,1,0,4.773421,0.000000,6.196358,1.807592,6.100451,6.968343,5.349151,4.197653,6.627124,-0.00003
0.537,1,0,4.774371,0.000000,6.198700,1.819551,6.102248,6.968359,5.349430,4.199306,6.624085,0.00015
0.538,1,0,4.775212,0.000000,6.200821,1.817259,6.104323,6.967829,5.349668,4.200658,6.626790,0.00025
0.539,1,0,4.776051,0.000000,6.202934,1.813993,6.106416,6.967262,5.349904,4.201990,6.629888,0.00025
0.540,1,0,4.776785,0.000000,6.204686,1.810727,6.108510,6.966694,5.350140,4.203321,6.632985,0.00008
0.541,1,0,4.777519,0.000000,6.206429,1.807462,6.110604,6.966127,5.350375,4.204652,6.636083,0.00013
0.542,1,0,4.778183,0.000000,6.207733,1.800374,6.112268,6.966120,5.350299,4.206052,6.642209,0.00013
0.543,1,0,4.778847,0.000000,6.209035,1.793025,6.113904,6.966150,5.350201,4.207456,6.648541,0.00015
0.544,1,0,4.779491,0.000000,6.210231,1.785677,6.115540,6.966181,5.350103,4.208860,6.654874,-0.00013
0.545,1,0,4.780135,0.000000,6.211432,1.778328,6.117175,6.966212,5.350006,4.210265,6.661207,0.00003
0.546,1,0,4.780782,0.000000,6.212875,1.774180,6.118898,6.966618,5.349950,4.211496,6.671348,-0.00013
0.547,1,0,4.781428,0.000000,6.214322,1.770251,6.120628,6.967049,5.349896,4.212717,6.681749,0.00010
0.548,1,0,4.781957,0.000000,6.215909,1.766322,6.122357,6.967480,5.349844,4.213937,6.692150,0.00013
0.549,1,0,4.782483,0.000000,6.217496,1.762393,6.124087,6.967911,5.349790,4.215158,6.702551,0.00013
0.550,1,0,4.782768,0.000000,6.219047,1.759910,6.125781,6.968076,5.349579,4.215765,6.706504,-0.00018
0.551,1,0,4.783049,0.000000,6.220598,1.757526,6.127473,6.968224,5.349358,4.216331,6.710016,0.00018
0.552,1,0,4.783125,0.000000,6.222176,1.755142,6.129165,6.968371,5.349136,4.216897,6.713528,0.00015
0.553,1,0,4.783199,0.000000,6.223755,1.752758,6.130857,6.968518,5.348915,4.217463,6.717041,0.00013
0.554,1,0,4.783138,0.000000,6.225430,1.748014,6.132717,6.968940,5.348476,4.217690,6.714571,0.00010
0.555,1,0,4.783075,0.000000,6.227103,1.743109,6.134587,6.969381,5.348022,4.217893,6.711694,0.00040
0.556,1,0,4.782895,0.000000,6.228660,1.738204,6.136458,6.969822,5.347568,4.218096,6.708817,0.00005
0.557,1,0,4.782713,0.000000,6.230211,1.733299,6.138330,6.970263,5.347114,4.218300,6.705939,0.00003
0.558,1,0,4.782434,0.000000,6.231401,1.718724,6.140110,6.970505,5.346797,4.218061,6.708328,0.00028
0.559,1,0,4.782154,0.000000,6.232584,1.703487,6.141885,6.970733,5.346488,4.217793,6.711078,0.00015
0.560,1,0,4.781858,0.000000,6.233362,1.688251,6.143661,6.970962,5.346180,4.217525,6.713828,0.00000
0.561,1,0,4.781564,0.000000,6.234133,1.673015,6.145435,6.971189,5.345872,4.217257,6.716577,0.00013
0.562,1,0,4.781354,0.000000,6.234491,1.643503,6.147139,6.971824,5.345809,4.217075,6.715903,0.00013
0.563,1,0,4.781148,0.000000,6.234840,1.613015,6.148837,6.972487,5.345762,4.216899,6.714996,0.00010
0.564,1,0,4.781120,0.000000,6.234688,1.582527,6.150535,6.973149,5.345716,4.216723,6.714088,0.00028
0.565,1,0,4.781096,0.000000,6.234527,1.552040,6.152233,6.973812,5.345669,4.216547,6.713181,-0.00010
0.566,1,0,4.781288,0.000000,6.233799,1.509408,6.153604,6.974422,5.345843,4.216727,6.710430,-0.00007
0.567,1,0,4.781480,0.000000,6.233065,1.465946,6.154952,6.975029,5.346032,4.216931,6.707553,0.00013
0.568,1,0,4.781681,0.000000,6.231915,1.422485,6.156301,6.975636,5.346221,4.217134,6.704676,0.00003
0.569,1,0,4.781879,0.000000,6.230761,1.379023,6.157649,6.976243,5.346410,4.217339,6.701799,0.00003
0.570,1,0,4.781902,0.000000,6.229342,1.320570,6.159153,6.976789,5.346396,4.217485,6.703340,0.00018
0.571,1,0,4.781927,0.000000,6.227914,1.261092,6.160667,6.977329,5.346368,4.217628,6.705181,0.00025
0.572,1,0,4.782013,0.000000,6.226091,1.201614,6.162181,6.977870,5.346340,4.217772,6.707023,-0.00007
0.573,1,0,4.782104,0.000000,6.224259,1.142136,6.163696,6.978411,5.346312,4.217915,6.708865,0.00025
0.574,1,0,4.782524,0.000000,6.221899,1.075884,6.164740,6.978791,5.346226,4.219004,6.708210,0.00000
0.575,1,0,4.782948,0.000000,6.219534,1.009169,6.165751,6.979161,5.346136,4.220157,6.707383,0.00000
0.576,1,0,4.783575,0.000000,6.216869,0.942454,6.166763,6.979530,5.346045,4.221311,6.706557,0.00010
0.577,1,0,4.784201,0.000000,6.214203,0.875739,6.167775,6.979899,5.345955,4.222464,6.705730,-0.00005
0.578,1,0,4.784811,0.000000,6.211475,0.808048,6.168525,6.979681,5.345483,4.223962,6.713002,-0.00003
0.579,1,0,4.785419,0.000000,6.208742,0.740290,6.169256,6.979423,5.344984,4.225483,6.720827,0.00015
0.580,1,0,4.785846,0.000000,6.205771,0.672532,6.169988,6.979165,5.344486,4.227004,6.728652,0.00025
0.581,1,0,4.786268,0.000000,6.202794,0.604774,6.170720,6.978906,5.343987,4.228525,6.736478,-0.00022
0.582,1,0,4.786413,0.000000,6.199396,0.535482,6.170976,6.979220,5.343461,4.229225,6.734543,0.00005
0.583,1,0,4.743476,0.000000,6.195996,0.466084,6.171199,6.979574,5.342933,4.229868,6.731942,0.00013
0.584,0,0,2.350199,0.000000,6.192492,0.396687,6.171422,6.979927,5.342406,4.230511,6.729341,0.00015
0.585,0,0,0.000000,0.000000,6.188991,0.327290,6.171645,6.980281,5.341878,4.231154,6.726739,0.00015
0.586,0,0,0.000000,0.000000,6.185702,0.256782,6.172037,6.980591,5.342174,4.230591,6.730321,-0.00010
0.587,0,0,0.000000,0.000000,6.182412,0.186197,6.172441,6.980897,5.342525,4.229946,6.734326,0.00003
0.588,0,0,0.000000,0.000000,6.179034,0.115613,6.172845,6.981205,5.342878,4.229300,6.738331,0.00005
0.589,0,0,0.000000,0.000000,6.175648,0.045029,6.173249,6.981512,5.343230,4.228655,6.742336,0.00000
0.590,0,0,0.000000,0.000000,6.171798,-0.031088,6.173270,6.982079,5.343373,4.227381,6.742131,0.00005
0.591,0,0,0.000000,0.000000,6.167942,-0.107583,6.173265,6.982664,5.343503,4.226064,6.741638,0.00000
0.592,0,0,0.000000,0.000000,6.163704,-0.184078,6.173260,6.983248,5.343632,4.224747,6.741145,0.00040
0.593,0,0,0.000000,0.000000,6.159462,-0.260573,6.173255,6.983833,5.343762,4.223430,6.740652,0.00043
0.594,0,0,0.000000,0.000000,6.155026,-0.336520,6.172813,6.984447,5.343836,4.222562,6.741751,0.00015
0.595,0,0,0.000000,0.000000,6.150589,-0.412429,6.172341,6.985064,5.343907,4.221725,6.742959,0.00000
0.596,0,0,0.000000,0.000000,6.146042,-0.488338,6.171869,6.985680,5.343977,4.220888,6.744166,0.00021
0.597,0,0,0.000000,0.000000,6.141496,-0.564247,6.171397,6.986296,5.344049,4.220050,6.745374,0.00015
0.598,0,0,0.000000,0.000000,6.136944,-0.629849,6.170483,6.985730,5.343986,4.219747,6.741173,0.00010
0.599,0,0,0.000000,0.000000,6.132398,-0.694746,6.169538,6.985083,5.343914,4.219479,6.736602,0.00028
0.600,0,0,0.000000,0.000000,6.128155,-0.759643,6.168593,6.984435,5.343842,4.219212,6.732031,0.00028
0.601,0,0,0.000000,0.000000,6.123923,-0.824540,6.167649,6.983788,5.343770,4.218945,6.727460,0.00018
0.602,0,0,0.000000,0.000000,6.120297,-0.870933,6.166749,6.982452,5.343261,4.219579,6.724644,0.00000
0.603,0,0,0.000000,0.000000,6.116682,-0.916061,6.165853,6.981070,5.342723,4.220274,6.721947,0.00013
0.604,0,0,0.000000,0.000000,6.113680,-0.961190,6.164957,6.979687,5.342185,4.220970,6.719250,0.00010
0.605,0,0,0.000000,0.000000,6.110690,-1.006318,6.164060,6.978304,5.341647,4.221666,6.716553,0.00000
0.606,0,0,0.000000,0.000000,6.108303,-1.021903,6.162898,6.976203,5.340918,4.223119,6.719481,0.00028
0.607,0,0,0.000000,0.000000,6.105932,-1.035468,6.161717,6.974054,5.340176,4.224625,6.722793,0.00015
0.608,0,0,0.000000,0.000000,6.104445,-1.049033,6.160536,6.971905,5.339433,4.226130,6.726105,0.00003
0.609,0,0,0.000000,0.000000,6.102980,-1.062598,6.159356,6.969756,5.338691,4.227635,6.729417,0.00015
0.610,0,0,0.000000,0.000000,6.102656,-1.040557,6.158240,6.972085,5.337581,4.229784,6.730682,-0.00025
0.611,0,0,0.000000,0.000000,6.102350,-1.016082,6.157129,6.974721,5.336447,4.231977,6.731807,0.00003
0.612,0,0,0.000000,0.000000,6.102969,-0.991607,6.156018,6.977356,5.335312,4.234169,6.732932,0.00005
0.613,0,0,0.000000,0.000000,6.103601,-0.967132,6.154907,6.979991,5.334178,4.236362,6.734057,0.00015
0.614,0,0,0.000000,0.000000,6.104912,-0.910619,6.153623,6.982724,5.333623,4.239167,6.734263,0.00040
0.615,0,0,0.000000,0.000000,6.106240,-0.851916,6.152327,6.985462,5.333107,4.242013,6.734406,-0.00003
0.616,0,0,0.000000,0.000000,6.108482,-0.793213,6.151031,6.988201,5.332592,4.244860,6.734550,0.00031
0.617,0,0,0.000000,0.000000,6.110746,-0.734510,6.149735,6.990940,5.332077,4.247707,6.734693,0.00000
0.618,0,0,0.000000,0.000000,6.114143,-0.654476,6.149131,6.994093,5.331271,4.249197,6.733183,0.00018
0.619,0,0,0.000000,0.000000,6.117552,-0.572985,6.148573,6.997274,5.330445,4.250596,6.731561,0.00017
0.620,0,0,0.000000,0.000000,6.121625,-0.491493,6.148016,7.000456,5.329619,4.251994,6.729939,-0.00015
0.621,0,0,0.000000,0.000000,6.125700,-0.410001,6.147460,7.003637,5.328793,4.253391,6.728317,0.00013
0.622,0,0,0.000000,0.000000,6.129858,-0.332800,6.147429,7.006921,5.328053,4.254337,6.728570,0.00028
0.623,0,0,0.000000,0.000000,6.134013,-0.255892,6.147436,7.010212,5.327318,4.255251,6.728952,0.00005
0.624,0,0,0.000000,0.000000,6.138032,-0.178985,6.147442,7.013504,5.326583,4.256166,6.729333,-0.00007
0.625,0,0,0.000000,0.000000,6.142046,-0.102078,6.147448,7.016795,5.325849,4.257080,6.729715,0.00000
0.626,0,0,0.000000,0.000000,6.145810,-0.037486,6.147617,7.020087,5.325307,4.259408,6.734140,0.00000
0.627,0,0,0.000000,0.000000,6.149567,0.026264,6.147798,7.023378,5.324780,4.261832,6.738842,0.00000
0.628,0,0,0.000000,0.000000,6.152953,0.090013,6.147978,7.026670,5.324252,4.264256,6.743543,0.00000
0.629,0,0,0.000000,0.000000,6.156332,0.153763,6.148159,7.029962,5.323724,4.266681,6.748245,0.00013
0.630,0,0,0.000000,0.000000,6.159297,0.206699,6.148299,7.033708,5.322679,4.270702,6.746363,0.00003
0.631,0,0,0.000000,0.000000,6.162260,0.258895,6.148436,7.037485,5.321599,4.274834,6.744030,0.00003
0.632,0,0,0.000000,0.000000,6.165111,0.311091,6.148573,7.041262,5.320519,4.278965,6.741698,0.00015
0.633,0,0,0.000000,0.000000,6.167967,0.363288,6.148711,7.045039,5.319439,4.283096,6.739365,-0.00003
0.634,0,0,0.000000,0.000000,6.171065,0.417762,6.149103,7.048619,5.319049,4.288599,6.740155,0.00018
0.635,0,0,0.000000,0.000000,6.174170,0.472392,6.149513,7.052186,5.318707,4.294197,6.741158,0.00028
0.636,0,0,0.000000,0.000000,6.177651,0.527022,6.149922,7.055752,5.318363,4.299795,6.742161,0.00013
0.637,0,0,0.000000,0.000000,6.181140,0.581652,6.150332,7.059319,5.318020,4.305392,6.743164,0.00003
0.638,0,0,0.000000,0.000000,6.185047,0.645565,6.150982,7.062235,5.317375,4.311305,6.742829,0.00046
0.639,0,0,0.000000,0.000000,6.188961,0.710111,6.151648,7.065108,5.316708,4.317239,6.742403,-0.00003
0.640,0,0,0.000000,0.000000,6.193201,0.774658,6.152314,7.067980,5.316041,4.323173,6.741977,0.00015
0.641,0,0,0.000000,0.000000,6.197444,0.839205,6.152981,7.070852,5.315375,4.329107,6.741550,0.00015
0.642,0,0,0.000000,0.000000,6.201856,0.901367,6.154015,7.073797,5.314782,4.334616,6.739884,0.00010
0.643,0,0,0.000000,0.000000,6.206265,0.963366,6.155074,7.076746,5.314193,4.340096,6.738132,0.00010
0.644,0,0,0.000000,0.000000,6.210555,1.025365,6.156133,7.079695,5.313605,4.345576,6.736381,-0.00013
0.645,0,0,0.000000,0.000000,6.214837,1.087363,6.157192,7.082644,5.313017,4.351056,6.734629,0.00018
0.646,0,0,0.000000,0.000000,6.218726,1.134248,6.158402,7.084927,5.312600,4.355913,6.732744,0.00015
0.647,0,0,0.000000,0.000000,6.222608,1.180099,6.159623,7.087162,5.312194,4.360727,6.730849,-0.00010
0.648,0,0,0.000000,0.000000,6.226057,1.225949,6.160844,7.089399,5.311789,4.365541,6.728955,-0.00005
0.649,0,0,0.000000,0.000000,6.229497,1.271800,6.162065,7.091635,5.311383,4.370355,6.727061,0.00015
0.650,0,0,0.000000,0.000000,6.232454,1.291121,6.163589,7.094747,5.311598,4.375564,6.727815,0.00015
0.651,0,0,0.000000,0.000000,6.235395,1.308627,6.165135,7.097919,5.311856,4.380799,6.728750,0.00031
0.652,0,0,0.000000,0.000000,6.237459,1.326133,6.166681,7.101090,5.312114,4.386035,6.729685,0.00015
0.653,0,0,0.000000,0.000000,6.239501,1.343640,6.168227,7.104261,5.312372,4.391271,6.730620,0.00003
0.654,0,0,0.000000,0.000000,6.240319,1.325185,6.169657,7.108124,5.312863,4.395516,6.733812,0.00003
0.655,0,0,0.000000,0.000000,6.241121,1.304271,6.171080,7.112034,5.313371,4.399694,6.737160,0.00015
0.656,0,0,0.000000,0.000000,6.241006,1.283357,6.172503,7.115944,5.313878,4.403872,6.740507,-0.00005
0.657,0,0,0.000000,0.000000,6.240882,1.262444,6.173925,7.119853,5.314385,4.408050,6.743854,-0.00015
0.658,0,0,0.000000,0.000000,6.240243,1.220518,6.175296,7.123905,5.314871,4.410788,6.746994,0.00000
0.659,0,0,0.000000,0.000000,6.239594,1.177156,6.176663,7.127965,5.315356,4.413428,6.750119,0.00022
0.660,0,0,0.000000,0.000000,6.238416,1.133793,6.178031,7.132026,5.315840,4.416067,6.753244,0.00013
0.661,0,0,0.000000,0.000000,6.237227,1.090431,6.179399,7.136086,5.316325,4.418707,6.756370,0.00018
0.662,0,0,0.000000,0.000000,6.235458,1.036113,6.180419,7.104588,5.316940,4.420378,6.760103,0.00013
0.663,0,0,0.000000,0.000000,6.233684,0.981045,6.181415,7.070657,5.317565,4.421984,6.763878,0.00018
0.664,0,0,0.000000,0.000000,6.231631,0.925978,6.182412,7.036726,5.318190,4.423589,6.767653,0.00018
0.665,0,0,0.000000,0.000000,6.229580,0.870911,6.183408,7.002796,5.318815,4.425194,6.771427,0.00003
0.666,0,0,0.000000,0.000000,6.227637,0.829166,6.183900,6.968302,5.319668,4.426709,6.772603,0.00018
0.667,0,0,0.000000,0.000000,6.225703,0.788332,6.184358,6.933770,5.320537,4.428217,6.773600,0.00003
0.668,0,0,0.000000,0.000000,6.224196,0.747498,6.184816,6.899238,5.321406,4.429726,6.774597,0.00000
0.669,0,0,0.000000,0.000000,6.222701,0.706663,6.185274,6.864706,5.322275,4.431235,6.775595,0.00015
0.670,0,0,0.000000,0.000000,6.221828,0.680358,6.185915,6.830013,5.322808,4.432200,6.771663,-0.00003
0.671,0,0,0.000000,0.000000,6.220961,0.655046,6.186568,6.795310,5.323319,4.433128,6.767394,0.00013
0.672,0,0,0.000000,0.000000,6.220430,0.629734,6.187222,6.760607,5.323830,4.434057,6.763124,0.00013
0.673,0,0,0.000000,0.000000,6.219899,0.604422,6.187875,6.725904,5.324340,4.434985,6.758855,0.00000
0.674,0,0,0.000000,0.000000,6.219356,0.582661,6.188461,6.691398,5.325026,4.436903,6.759126,0.00015
0.675,0,0,0.000000,0.000000,6.218812,0.561144,6.189043,6.656904,5.325722,4.438889,6.759707,0.00013
0.676,0,0,0.000000,0.000000,6.218240,0.539627,6.189624,6.622411,5.326419,4.440875,6.760289,0.00003
0.677,0,0,0.000000,0.000000,6.217667,0.518110,6.190205,6.587917,5.327116,4.442861,6.760870,0.00015
0.678,0,0,0.000000,0.000000,6.217086,0.493666,6.190796,6.553715,5.327664,4.445154,6.759289,0.00025
0.679,0,0,0.000000,0.000000,6.216500,0.469022,6.191388,6.519533,5.328202,4.447469,6.757561,0.00010
0.680,0,0,0.000000,0.000000,6.215672,0.444378,6.191979,6.485351,5.328740,4.449783,6.755833,0.00015
0.681,0,0,0.000000,0.000000,6.214837,0.419734,6.192571,6.451169,5.329278,4.452097,6.754104,0.00015
0.682,0,0,0.000000,0.000000,6.213553,0.385805,6.193015,6.416696,5.330345,4.454746,6.753500,0.00028
0.683,0,0,0.000000,0.000000,6.212265,0.351242,6.193449,6.382203,5.331449,4.457417,6.752971,0.00015
0.684,0,0,0.000000,0.000000,6.210770,0.316679,6.193883,6.347710,5.332551,4.460088,6.752443,-0.00010
0.685,0,0,0.000000,0.000000,6.209277,0.282115,6.194317,6.313217,5.333655,4.462759,6.751915,0.00005
0.686,0,0,0.000000,0.000000,6.207912,0.258097,6.194391,6.278941,5.334821,4.464565,6.751231,0.00015
0.687,0,0,0.000000,0.000000,6.206554,0.234799,6.194440,6.244679,5.335992,4.466311,6.750536,0.00015
0.688,0,0,0.000000,0.000000,6.205520,0.211501,6.194489,6.210418,5.337163,4.468058,6.749842,-0.00003
0.689,0,0,0.000000,0.000000,6.204494,0.188203,6.194539,6.176156,5.338334,4.469804,6.749146,0.00003
0.690,0,0,0.000000,0.000000,6.203914,0.180019,6.194567,6.142338,5.339630,4.470694,6.752325,0.00028
0.691,0,0,0.000000,0.000000,6.203341,0.172869,6.194593,6.108551,5.340934,4.471525,6.755768,0.00025
0.692,0,0,0.000000,0.000000,6.203182,0.165719,6.194620,6.074763,5.342238,4.472357,6.759211,0.00003
0.693,0,0,0.000000,0.000000,6.203029,0.158569,6.194646,6.040976,5.343543,4.473188,6.762654,0.00013
0.694,0,0,0.000000,0.000000,6.203230,0.163621,6.194734,6.006950,5.344178,4.472412,6.762168,0.00028
0.695,0,0,0.000000,0.000000,6.203439,0.169506,6.194825,5.972908,5.344767,4.471526,6.761413,0.00018
0.696,0,0,0.000000,0.000000,6.204014,0.175392,6.194917,5.938866,5.345356,4.470640,6.760658,0.00015
0.697,0,0,0.000000,0.000000,6.204595,0.181278,6.195008,5.904824,5.345946,4.469754,6.759903,0.00020
0.698,0,0,0.000000,0.000000,6.205501,0.190479,6.195361,5.899121,5.346276,4.468791,6.764416,0.00013
0.699,0,0,0.000000,0.000000,6.206405,0.199907,6.195731,5.895357,5.346588,4.467821,6.769289,-0.00013
0.700,0,0,0.000000,0.000000,6.207246,0.209334,6.196102,5.891592,5.346900,4.466852,6.774163,-0.00010
0.701,0,0,0.000000,0.000000,6.208078,0.218762,6.196472,5.887827,5.347212,4.465883,6.779037,0.00015
0.702,0,0,0.000000,0.000000,6.208472,0.218514,6.196748,5.884955,5.347351,4.465014,6.786300,-0.00015
0.703,0,0,0.000000,0.000000,6.208860,0.217605,6.197018,5.882143,5.347477,4.464153,6.793728,-0.00015
0.704,0,0,0.000000,0.000000,6.208935,0.216696,6.197288,5.879331,5.347604,4.463292,6.801155,0.00043
0.705,0,0,0.000000,0.000000,6.209009,0.215787,6.197557,5.876519,5.347730,4.462430,6.808582,0.00015
0.706,0,0,0.000000,0.000000,6.209023,0.214481,6.197717,5.872559,5.348016,4.461901,6.810346,0.00000
0.707,0,0,0.000000,0.000000,6.209039,0.213147,6.197869,5.868521,5.348313,4.461393,6.811721,0.00015
0.708,0,0,0.000000,0.000000,6.209177,0.211813,6.198021,5.864482,5.348610,4.460886,6.813097,0.00000
0.709,0,0,0.000000,0.000000,6.209320,0.210480,6.198174,5.860443,5.348907,4.460379,6.814473,-0.00003
0.710,0,0,0.000000,0.000000,6.209709,0.215671,6.198369,5.857945,5.349247,4.459795,6.814253,0.00025
0.711,0,0,0.000000,0.000000,6.210102,0.221309,6.198566,5.855554,5.349588,4.459207,6.813925,0.00015
0.712,0,0,0.000000,0.000000,6.210690,0.226946,6.198765,5.853161,5.349931,4.458618,6.813596,0.00005
0.713,0,0,0.000000,0.000000,6.211280,0.232584,6.198963,5.850769,5.350273,4.458029,6.813267,0.00015
0.714,0,0,0.000000,0.000000,6.211950,0.241920,6.199064,5.879857,5.351126,4.457619,6.812971,0.00000
0.715,0,0,0.000000,0.000000,6.212617,0.251509,6.199159,5.911097,5.352015,4.457221,6.812676,0.00010
0.716,0,0,0.000000,0.000000,6.213164,0.261098,6.199254,5.942337,5.352903,4.456823,6.812381,0.00003
0.717,0,0,0.000000,0.000000,6.213704,0.270687,6.199348,5.973577,5.353791,4.456426,6.812087,-0.00015
0.718,0,0,0.000000,0.000000,6.213866,0.259778,6.199705,6.005705,5.354061,4.455116,6.809084,0.00015
0.719,0,0,0.000000,0.058055,6.214014,0.247467,6.200080,6.037895,5.354288,4.453743,6.805897,0.00015
0.720,0,1,0.000000,3.283320,6.213364,0.235156,6.200455,6.070085,5.354515,4.452371,6.802710,0.00003
0.721,0,1,0.000000,6.450852,6.212692,0.222845,6.200830,6.102274,5.354742,4.450998,6.799522,-0.00015
0.722,0,1,0.000000,6.468708,6.210813,0.165151,6.201409,6.132353,5.353735,4.448895,6.807693,0.00000
0.723,0,1,0.000000,6.486616,6.208908,0.104355,6.202003,6.162288,5.352643,4.446741,6.816640,0.00015
0.724,0,1,0.000000,6.507406,6.205643,0.043558,6.202596,6.192223,5.351552,4.444587,6.825588,0.00015
0.725,0,1,0.000000,6.528214,6.202352,-0.017239,6.203189,6.222158,5.350461,4.442433,6.834535,0.00010
0.726,0,1,0.000000,6.550018,6.197630,-0.120527,6.203332,6.256475,5.347953,4.439431,6.843366,0.00015
0.727,0,1,0.000000,6.571819,6.192882,-0.226720,6.203444,6.291093,5.345349,4.436372,6.852188,0.00018
0.728,0,1,0.000000,6.593469,6.186691,-0.332913,6.203556,6.325710,5.342745,4.433312,6.861010,-0.00015
0.729,0,1,0.000000,6.615092,6.180476,-0.439106,6.203668,6.360327,5.340141,4.430253,6.869833,0.00013
0.730,0,1,0.000000,6.635252,6.172940,-0.570230,6.202878,6.394089,5.337409,4.428268,6.871976,0.00000
0.731,0,1,0.000000,6.655330,6.165393,-0.703059,6.202027,6.427792,5.334669,4.426357,6.873663,0.00013
0.732,0,1,0.000000,6.670939,6.157197,-0.835888,6.201176,6.461494,5.331928,4.424445,6.875350,0.00013
0.733,0,1,0.000000,6.686432,6.149004,-0.968717,6.200324,6.495197,5.329188,4.422534,6.877038,0.00028
0.734,0,1,0.000000,6.695608,6.140914,-1.088373,6.198855,6.514658,5.325693,4.421355,6.876245,-0.00010
0.735,0,1,0.000000,6.704770,6.132833,-1.207127,6.197344,6.533144,5.322146,4.420227,6.875284,-0.00010
0.736,0,1,0.000000,6.713170,6.125268,-1.325882,6.195833,6.551631,5.318599,4.419098,6.874323,-0.00013
0.737,0,1,0.000000,6.721664,6.117718,-1.444637,6.194322,6.570118,5.315052,4.417970,6.873362,0.00040
0.738,0,1,0.000000,6.735312,6.110924,-1.536187,6.192660,6.601098,5.311963,4.417207,6.872375,-0.00015
0.739,0,1,0.000000,6.749019,6.104142,-1.625877,6.190988,6.632931,5.308905,4.416470,6.871388,0.00015
0.740,0,1,0.000000,6.765955,6.098029,-1.715567,6.189316,6.664765,5.305847,4.415732,6.870400,0.00022
0.741,0,1,0.000000,6.782890,6.091925,-1.805258,6.187644,6.696599,5.302788,4.414995,6.869412,0.00003
0.742,0,1,0.000000,6.799787,6.086345,-1.866857,6.185560,6.727387,5.302369,4.414460,6.872902,-0.00022
0.743,0,1,0.000000,6.816695,6.080775,-1.926537,6.183447,6.758104,5.302131,4.413939,6.876698,0.00003
0.744,0,1,0.000000,6.834254,6.075758,-1.986216,6.181335,6.788821,5.301892,4.413418,6.880495,0.00000
0.745,0,1,0.000000,6.851831,6.070750,-2.045895,6.179223,6.819538,5.301653,4.412898,6.884291,0.00025
0.746,0,1,0.000000,6.870376,6.066303,-2.089416,6.177157,6.849895,5.301926,4.412745,6.885207,0.00025
0.747,0,1,0.000000,6.888821,6.061861,-2.131832,6.175096,6.880228,5.302233,4.412618,6.885925,0.00013
0.748,0,1,0.000000,6.901798,6.057668,-2.174248,6.173034,6.910561,5.302541,4.412490,6.886644,0.00015
0.749,0,1,0.000000,6.914567,6.053473,-2.216664,6.170972,6.940894,5.302849,4.412363,6.887362,0.00003
0.750,0,1,0.000000,6.915935,6.049203,-2.253155,6.168611,6.942826,5.304307,4.412592,6.883362,0.00015
0.751,0,1,0.000000,6.917185,6.044932,-2.289241,6.166230,6.942816,5.305845,4.412846,6.879038,0.00010
0.752,0,1,0.000000,6.912007,6.040618,-2.325326,6.163848,6.942807,5.307382,4.413100,6.874715,0.00003
0.753,0,1,0.000000,6.906838,6.036304,-2.361412,6.161467,6.942797,5.308919,4.413353,6.870391,0.00025
0.754,0,1,0.000000,6.902218,6.032043,-2.395585,6.159016,6.941753,5.310674,4.413673,6.865253,0.00025
0.755,0,1,0.000000,6.897647,6.027782,-2.429626,6.156560,6.940638,5.312443,4.413998,6.860060,0.00018
0.756,0,1,0.000000,6.895735,6.023523,-2.463668,6.154104,6.939523,5.314213,4.414322,6.854867,0.00028
0.757,0,1,0.000000,6.893879,6.019264,-2.497710,6.151649,6.938408,5.315982,4.414646,6.849673,0.00013
0.758,0,1,0.000000,6.895073,6.015047,-2.523597,6.149157,6.939338,5.317981,4.414936,6.852512,0.00015
0.759,0,1,0.000000,6.896302,6.010842,-2.548926,6.146662,6.940407,5.319995,4.415224,6.855900,0.00015
0.760,0,1,0.000000,6.899411,6.007327,-2.574256,6.144167,6.941476,5.322009,4.415511,6.859288,-0.00013
0.761,0,1,0.000000,6.902530,6.003836,-2.599585,6.141673,6.942545,5.324023,4.415798,6.862676,0.00003
0.762,0,1,0.000000,6.906188,6.001716,-2.578344,6.139053,6.942775,5.326835,4.415811,6.869996,0.00031
0.763,0,1,0.000000,6.909853,5.999622,-2.553919,6.136425,6.942948,5.329701,4.415804,6.877584,0.00013
0.764,0,1,0.000000,6.913922,5.998956,-2.529493,6.133797,6.943121,5.332567,4.415797,6.885172,0.00000
0.765,0,1,0.000000,6.855657,5.998316,-2.505068,6.131169,6.943294,5.335433,4.415791,6.892761,0.00005
0.766,0,0,0.000000,3.396698,5.999057,-2.420043,6.128130,6.943503,5.339811,4.415608,6.891031,-0.00003
0.767,0,0,0.000000,0.000000,5.999829,-2.330874,6.125063,6.943716,5.344292,4.415414,6.888665,0.00010
0.768,0,0,0.000000,0.000000,6.002266,-2.241705,6.121996,6.943928,5.348773,4.415220,6.886298,-0.00003
0.769,0,0,0.000000,0.000000,6.004739,-2.152537,6.118929,6.944140,5.353254,4.415026,6.883931,0.00028
0.770,0,0,0.000000,0.000000,6.009180,-2.006837,6.116468,6.943566,5.358508,4.415035,6.852340,0.00003
0.771,0,0,0.000000,0.000000,6.013656,-1.857271,6.114048,6.942938,5.363813,4.415057,6.818752,-0.00007
0.772,0,0,0.000000,0.000000,6.020070,-1.707706,6.111629,6.942310,5.369120,4.415079,6.785163,0.00013
0.773,0,0,0.000000,0.000000,6.026514,-1.558141,6.109209,6.941683,5.374426,4.415102,6.751574,0.00010
0.774,0,0,0.000000,0.000000,6.034615,-1.387203,6.108425,6.943384,5.380358,4.414780,6.751204,0.00003
0.775,0,0,0.000000,0.000000,6.042728,-1.214804,6.107752,6.945245,5.386333,4.414434,6.753104,0.00000
0.776,0,0,0.000000,0.000000,6.051505,-1.042405,6.107080,6.947105,5.392308,4.414088,6.755005,-0.00015
0.777,0,0,0.000000,0.000000,6.060274,-0.870006,6.106407,6.948966,5.398283,4.413743,6.756906,0.00028
0.778,0,0,0.000000,0.000000,6.068640,-0.715994,6.106171,6.946036,5.405469,4.413379,6.757535,0.00013
0.779,0,0,0.000000,0.000000,6.076992,-0.563240,6.105965,6.942778,5.412738,4.413013,6.758078,0.00000
0.780,0,0,0.000000,0.000000,6.084478,-0.410486,6.105759,6.939521,5.420008,4.412648,6.758620,0.00013
0.781,0,0,0.000000,0.000000,6.091945,-0.257732,6.105553,6.936263,5.427277,4.412282,6.759163,-0.00010
0.782,0,0,0.000000,0.000000,6.098354,-0.140162,6.105416,6.933646,5.434323,4.412165,6.782485,-0.00003
0.783,0,0,0.000000,0.000000,6.104749,-0.024999,6.105284,6.931073,5.441354,4.412065,6.807365,0.00031
0.784,0,0,0.000000,0.000000,6.110350,0.090165,6.105152,6.928500,5.448385,4.411964,6.832245,0.00010
0.785,0,0,0.000000,0.000000,6.115942,0.205329,6.105021,6.925927,5.455416,4.411864,6.857125,0.00022
0.786,0,0,0.000000,0.000000,6.121105,0.293253,6.105478,6.937737,5.459588,4.412285,6.836116,0.00013
0.787,0,0,0.000000,0.000000,6.126265,0.379315,6.105977,6.950531,5.463565,4.412742,6.811969,0.00015
0.788,0,0,0.000000,0.000000,6.131237,0.465376,6.106475,6.963325,5.467542,4.413198,6.787822,0.00000
0.789,0,0,0.000000,0.000000,6.136209,0.551438,6.106974,6.976119,5.471519,4.413655,6.763675,0.00010
0.790,0,0,0.000000,0.000000,6.141128,0.627202,6.107760,6.976524,5.474014,4.413684,6.772449,0.00043
0.791,0,0,0.000000,0.000000,6.146042,0.702261,6.108567,6.976083,5.476408,4.413684,6.783476,-0.00010
0.792,0,0,0.000000,0.000000,6.150714,0.777321,6.109374,6.975642,5.478802,4.413684,6.794502,0.00031
0.793,0,0,0.000000,0.000000,6.155376,0.852381,6.110180,6.975200,5.481196,4.413684,6.805528,-0.00013
0.794,0,0,0.000000,0.000000,6.159552,0.909271,6.111097,6.975844,5.481308,4.414198,6.806692,0.00000
0.795,0,0,0.000000,0.000000,6.163717,0.964920,6.112021,6.976562,5.481264,4.414747,6.807183,0.00028
0.796,0,0,0.000000,0.000000,6.167336,1.020568,6.112947,6.977280,5.481219,4.415296,6.807673,0.00010
0.797,0,0,0.000000,0.000000,6.170944,1.076216,6.113871,6.977998,5.481175,4.415845,6.808163,0.00010
0.798,0,0,0.000000,0.000000,6.173989,1.102924,6.115231,6.979170,5.480257,4.416364,6.790477,0.00000
0.799,0,0,0.000000,0.000000,6.177022,1.127652,6.116620,6.980374,5.479279,4.416882,6.771548,-0.00013
0.800,0,0,0.000000,0.000000,6.179430,1.152381,6.118009,6.981578,5.478301,4.417399,6.752619,-0.00007
0.801,0,0,0.000000,0.000000,6.181824,1.177109,6.119399,6.982782,5.477323,4.417916,6.733690,0.00038
0.802,0,0,0.000000,0.000000,6.183488,1.172992,6.120844,6.984090,5.475657,4.418563,6.721415,0.00000
0.803,0,0,0.000000,0.000000,6.185134,1.166902,6.122293,6.985406,5.473943,4.419219,6.709596,-0.00003
0.804,0,0,0.000000,0.000000,6.185805,1.160813,6.123742,6.986722,5.472229,4.419875,6.697776,0.00031
0.805,0,0,0.000000,0.000000,6.186454,1.154723,6.125191,6.988037,5.470516,4.420531,6.685957,0.00028
0.806,0,0,0.000000,0.000000,6.185945,1.118946,6.126225,6.989818,5.468611,4.421307,6.681184,0.00022
0.807,0,0,0.000000,0.000000,6.185419,1.081140,6.127231,6.991631,5.466693,4.422090,6.676892,0.00031
0.808,0,0,0.000000,0.000000,6.184006,1.043333,6.128237,6.993443,5.464775,4.422873,6.672601,-0.00010
0.809,0,0,0.000000,0.000000,6.182583,1.005526,6.129242,6.995256,5.462856,4.423656,6.668309,0.00013
0.810,0,0,0.000000,0.000000,6.180676,0.951666,6.130207,6.996171,5.461069,4.424141,6.663334,0.00003
0.811,0,0,0.000000,0.000000,6.178767,0.896708,6.131168,6.997023,5.459290,4.424606,6.658312,0.00003
0.812,0,0,0.000000,0.000000,6.176777,0.841750,6.132130,6.997876,5.457510,4.425071,6.653291,0.00025
0.813,0,0,0.000000,0.000000,6.174792,0.786792,6.133092,6.998729,5.455731,4.425536,6.648269,0.00015
0.814,0,0,0.000000,0.000000,6.173028,0.737362,6.133959,6.999603,5.454511,4.425911,6.645458,0.00013
0.815,0,0,0.000000,0.000000,6.171265,0.688310,6.134820,7.000478,5.453329,4.426281,6.642798,0.00015
0.816,0,0,0.000000,0.000000,6.169548,0.639257,6.135681,7.001354,5.452147,4.426651,6.640138,0.00018
0.817,0,0,0.000000,0.000000,6.167828,0.590205,6.136541,7.002230,5.450964,4.427021,6.637478,-0.00007
0.818,0,0,0.000000,0.000000,6.165950,0.552897,6.136714,7.003201,5.449359,4.427290,6.635412,-0.00003
0.819,0,0,0.000000,0.000000,6.164074,0.516392,6.136841,7.004178,5.447725,4.427553,6.633386,0.00003
0.820,0,0,0.000000,0.000000,6.162323,0.479886,6.136967,7.005156,5.446092,4.427815,6.631360,0.00003
0.821,0,0,0.044411,0.000000,6.160581,0.443381,6.137093,7.006133,5.444458,4.428077,6.629333,0.00000
0.822,1,0,2.511674,0.000000,6.159317,0.420163,6.137306,7.006820,5.442318,4.428404,6.630360,0.00015
0.823,1,0,4.934509,0.000000,6.158064,0.397853,6.137526,7.007488,5.440144,4.428736,6.631595,0.00028
0.824,1,0,4.933556,0.000000,6.157356,0.375544,6.137745,7.008155,5.437970,4.429068,6.632830,-0.00015
0.825,1,0,4.932601,0.000000,6.156656,0.353234,6.137964,7.008823,5.435796,4.429399,6.634065,0.00015
0.826,1,0,4.931630,0.000000,6.156422,0.336050,6.138649,7.009315,5.433537,4.429839,6.632818,0.00007
0.827,1,0,4.930660,0.000000,6.156190,0.319217,6.139366,7.009795,5.431272,4.430285,6.631401,0.00031
0.828,1,0,4.929803,0.000000,6.156065,0.302384,6.140082,7.010275,5.429007,4.430731,6.629983,0.00000
0.829,1,0,4.928951,0.000000,6.155935,0.285550,6.140799,7.010756,5.426742,4.431177,6.628566,0.00025
0.830,1,0,4.928356,0.000000,6.155569,0.274175,6.140975,7.010884,5.424909,4.432142,6.624928,0.00000
0.831,1,0,4.927767,0.000000,6.155200,0.263173,6.141116,7.010990,5.423106,4.433142,6.621137,0.00018
0.832,1,0,4.927530,0.000000,6.154691,0.252171,6.141255,7.011095,5.421304,4.434142,6.617346,0.00031
0.833,1,0,4.927300,0.000000,6.154183,0.241169,6.141395,7.011200,5.419501,4.435142,6.613555,-0.00013
0.834,1,0,4.927464,0.000000,6.153753,0.235200,6.141424,7.011548,5.418841,4.436323,6.612670,0.00025
0.835,1,0,4.927633,0.000000,6.153327,0.229575,6.141445,7.011912,5.418259,4.437516,6.611984,0.00000
0.836,1,0,4.928060,0.000000,6.153180,0.223949,6.141466,7.012276,5.417677,4.438710,6.611298,0.00025
0.837,1,0,4.928488,0.000000,6.153042,0.218324,6.141487,7.012640,5.417095,4.439904,6.610611,0.00013
0.838,1,0,4.929039,0.000000,6.153398,0.227834,6.141711,7.012913,5.417491,4.440806,6.619031,0.00018
0.839,1,0,4.929594,0.000000,6.153768,0.238379,6.141948,7.013179,5.417954,4.441688,6.628073,0.00000
0.840,1,0,4.930370,0.000000,6.154937,0.248925,6.142185,7.013445,5.418418,4.442570,6.637115,0.00000
0.841,1,0,4.931151,0.000000,6.156126,0.259470,6.142422,7.013711,5.418881,4.443452,6.646157,0.00013
0.842,1,0,4.932242,0.000000,6.158354,0.303128,6.142695,7.013796,5.419757,4.444769,6.648274,0.00013
0.843,1,0,4.933335,0.000000,6.160599,0.349051,6.142971,7.013868,5.420661,4.446115,6.649917,0.00028
0.844,1,0,4.934490,0.000000,6.163717,0.394974,6.143247,7.013940,5.421565,4.447462,6.651559,-0.00010
0.845,1,0,4.935641,0.000000,6.166847,0.440897,6.143522,7.014012,5.422470,4.448808,6.653203,0.00015
0.846,1,0,4.936610,0.000000,6.170618,0.511226,6.143814,7.014289,5.423621,4.449646,6.660178,0.00000
0.847,1,0,4.937580,0.000000,6.174399,0.583223,6.144107,7.014580,5.424789,4.450450,6.667519,-0.00021
0.848,1,0,4.938580,0.000000,6.178796,0.655221,6.144400,7.014871,5.425957,4.451254,6.674860,0.00013
0.849,1,0,4.939584,0.000000,6.183204,0.727218,6.144693,7.015162,5.427125,4.452057,6.682200,0.00003
0.850,1,0,4.940847,0.000000,6.188264,0.813556,6.145475,7.015655,5.428475,4.453184,6.685325,0.00010
0.851,1,0,4.942110,0.000000,6.193336,0.900874,6.146290,7.016161,5.429836,4.454333,6.688161,0.00003
0.852,1,0,4.943359,0.000000,6.199105,0.988192,6.147105,7.016667,5.431198,4.455482,6.690998,-0.00015
0.853,1,0,4.944602,0.000000,6.204885,1.075511,6.147921,7.017174,5.432559,4.456630,6.693835,0.00015
0.854,1,0,4.945512,0.000000,6.211280,1.167209,6.149371,7.017779,5.433133,4.457686,6.696869,0.00013
0.855,1,0,4.946418,0.000000,6.217675,1.259206,6.150866,7.018391,5.433652,4.458735,6.699917,0.00010
0.856,1,0,4.947095,0.000000,6.224026,1.351203,6.152360,7.019003,5.434171,4.459785,6.702965,0.00028
0.857,1,0,4.947772,0.000000,6.230363,1.443200,6.153854,7.019615,5.434690,4.460834,6.706013,0.00000
0.858,1,0,4.948415,0.000000,6.235982,1.511629,6.155522,7.019933,5.435191,4.461666,6.716924,0.00010
0.859,1,0,4.949059,0.000000,6.241587,1.578446,6.157203,7.020232,5.435690,4.462483,6.728373,0.00043
0.860,1,0,4.949730,0.000000,6.246472,1.645262,6.158883,7.020530,5.436190,4.463300,6.739821,0.00000
0.861,1,0,4.950401,0.000000,6.251347,1.712079,6.160563,7.020829,5.436689,4.464118,6.751270,0.00018
0.862,1,0,4.951111,0.000000,6.255675,1.756317,6.162377,7.021353,5.437161,4.465060,6.759160,0.00025
0.863,1,0,4.951820,0.000000,6.259995,1.799012,6.164199,7.021892,5.437632,4.466011,6.766807,0.00007
0.864,1,0,4.952532,0.000000,6.263875,1.841706,6.166022,7.022431,5.438103,4.466961,6.774453,0.00025
0.865,1,0,4.953244,0.000000,6.267746,1.884400,6.167844,7.022971,5.438574,4.467912,6.782100,0.00050
0.866,1,0,4.953941,0.000000,6.271216,1.902208,6.170111,7.023149,5.438870,4.469126,6.784711,0.00040
0.867,1,0,4.954640,0.000000,6.274676,1.918313,6.172408,7.023304,5.439155,4.470357,6.786978,0.00000
0.868,1,0,4.955450,0.000000,6.277556,1.934419,6.174705,7.023458,5.439440,4.471589,6.789245,0.00018
0.869,1,0,4.956264,0.000000,6.280422,1.950525,6.177001,7.023612,5.439724,4.472821,6.791512,0.00000
0.870,1,0,4.957293,0.000000,6.282580,1.956470,6.178730,7.023451,5.440220,4.474391,6.790768,0.00013
0.871,1,0,4.958323,0.000000,6.284732,1.961720,6.180421,7.023268,5.440731,4.475985,6.789818,0.00000
0.872,1,0,4.959394,0.000000,6.286540,1.966970,6.182111,7.023086,5.441241,4.477578,6.788869,0.00013
0.873,1,0,4.960463,0.000000,6.288348,1.972220,6.183802,7.022903,5.441751,4.479172,6.787919,0.00010
0.874,1,0,4.961360,0.000000,6.290191,1.967458,6.185831,7.022861,5.442364,4.480179,6.784032,0.00003
0.875,1,0,4.962255,0.000000,6.292032,1.962012,6.187882,7.022830,5.442985,4.481147,6.779943,0.00021
0.876,1,0,4.962961,0.000000,6.293728,1.956566,6.189934,7.022799,5.443606,4.482114,6.775855,0.00000
0.877,1,0,4.963664,0.000000,6.295417,1.951119,6.191987,7.022768,5.444227,4.483082,6.771766,0.00025
0.878,1,0,4.964208,0.000000,6.296748,1.938564,6.194016,7.022764,5.444081,4.484173,6.771146,0.00028
0.879,1,0,4.964749,0.000000,6.298079,1.925523,6.196043,7.022763,5.443882,4.485273,6.770763,0.00013
0.880,1,0,4.965121,0.000000,6.299419,1.912482,6.198071,7.022761,5.443684,4.486373,6.770380,0.00028
0.881,1,0,4.965489,0.000000,6.300767,1.899441,6.200099,7.022760,5.443486,4.487473,6.769997,0.00018
0.882,1,0,4.965687,0.000000,6.302475,1.893021,6.202075,7.023398,5.443473,4.487825,6.770483,-0.00003
0.883,1,0,4.965883,0.000000,6.304183,1.887053,6.204047,7.024080,5.443472,4.488127,6.771030,0.00000
0.884,1,0,4.965993,0.000000,6.305794,1.881085,6.206018,7.024763,5.443471,4.488428,6.771576,0.00010
0.885,1,0,4.966103,0.000000,6.307395,1.875117,6.207990,7.025445,5.443470,4.488729,6.772123,0.00000
0.886,1,0,4.966234,0.000000,6.308455,1.866959,6.209566,7.025677,5.443851,4.488735,6.768049,0.00015
0.887,1,0,4.966367,0.000000,6.309516,1.858652,6.211114,7.025878,5.444258,4.488720,6.763659,0.00013
0.888,1,0,4.966619,0.000000,6.310664,1.850344,6.212663,7.026079,5.444664,4.488706,6.759269,0.00000
0.889,1,0,4.966873,0.000000,6.311828,1.842037,6.214211,7.026280,5.445071,4.488691,6.754879,0.00003
0.890,1,0,4.967296,0.000000,6.313829,1.850860,6.216082,7.026637,5.445016,4.489584,6.746833,-0.00003
0.891,1,0,4.967719,0.000000,6.315845,1.860853,6.217975,7.027004,5.444930,4.490541,6.738537,0.00015
0.892,1,0,4.968164,0.000000,6.318625,1.870847,6.219868,7.027371,5.444843,4.491496,6.730241,-0.00013
0.893,1,0,4.968607,0.000000,6.321413,1.880841,6.221761,7.027739,5.444757,4.492452,6.721945,0.00013
0.894,1,0,4.968927,0.000000,6.324640,1.902801,6.223794,7.028149,5.444572,4.493289,6.718223,0.00013
0.895,1,0,4.969247,0.000000,6.327868,1.925580,6.225836,7.028561,5.444381,4.494117,6.714814,0.00003
0.896,1,0,4.969564,0.000000,6.331138,1.948359,6.227879,7.028974,5.444190,4.494946,6.711404,-0.00003
0.897,1,0,4.969884,0.000000,6.334402,1.971138,6.229921,7.029387,5.443998,4.495774,6.707995,-0.00047
0.898,1,0,4.970348,0.000000,6.337378,1.992743,6.231659,7.029468,5.443677,4.497099,6.706576,-0.00013
0.899,1,0,4.970814,0.000000,6.340350,2.014268,6.233377,7.029527,5.443347,4.498459,6.705293,-0.00013
0.900,1,0,4.971371,0.000000,6.343109,2.035793,6.235095,7.029586,5.443016,4.499818,6.704010,0.00013
0.901,1,0,4.971929,0.000000,6.345865,2.057317,6.236812,7.029644,5.442686,4.501177,6.702727,-0.00022
0.902,1,0,4.972501,0.000000,6.348501,2.060699,6.239045,7.029650,5.442057,4.503060,6.696392,0.00015
0.903,1,0,4.973076,0.000000,6.351128,2.062839,6.241313,7.029652,5.441409,4.504980,6.689710,-0.00013
0.904,1,0,4.973764,0.000000,6.353294,2.064980,6.243581,7.029654,5.440760,4.506899,6.683029,0.00021
0.905,1,0,4.974456,0.000000,6.355445,2.067121,6.245849,7.029656,5.440111,4.508818,6.676347,-0.00003
0.906,1,0,4.975374,0.000000,6.356733,2.035848,6.248353,7.030137,5.439854,4.511069,6.674884,-0.00010
0.907,1,0,4.976295,0.000000,6.358004,2.002291,6.250875,7.030650,5.439624,4.513342,6.673777,0.00028
0.908,1,0,4.977405,0.000000,6.358283,1.968733,6.253396,7.031163,5.439394,4.515616,6.672670,0.00015
0.909,1,0,4.978517,0.000000,6.358544,1.935176,6.255917,7.031676,5.439164,4.517889,6.671564,0.00028
0.910,1,0,4.979710,0.000000,6.357842,1.884542,6.257695,7.032020,5.439157,4.520090,6.671969,0.00025
0.911,1,0,4.980901,0.000000,6.357129,1.832741,6.259423,7.032351,5.439167,4.522285,6.672478,0.00025
0.912,1,0,4.981926,0.000000,6.355844,1.780939,6.261151,7.032683,5.439175,4.524481,6.672987,0.00025
0.913,1,0,4.982944,0.000000,6.354555,1.729138,6.262879,7.033014,5.439184,4.526677,6.673496,0.00017
0.914,1,0,4.983593,0.000000,6.353130,1.674433,6.264400,7.033565,5.438979,4.528024,6.676292,0.00028
0.915,1,0,4.984237,0.000000,6.351705,1.619530,6.265907,7.034130,5.438758,4.529314,6.679245,0.00038
0.916,1,0,4.984675,0.000000,6.350320,1.564626,6.267413,7.034695,5.438538,4.530603,6.682199,0.00025
0.917,1,0,4.985113,0.000000,6.348938,1.509723,6.268920,7.035260,5.438318,4.531893,6.685152,0.00000
0.918,1,0,4.985589,0.000000,6.347723,1.467817,6.270123,7.034377,5.437842,4.533507,6.686256,0.00000
0.919,1,0,4.986067,0.000000,6.346516,1.426799,6.271306,7.033395,5.437350,4.535143,6.687234,0.00015
0.920,1,0,4.986721,0.000000,6.345713,1.385781,6.272488,7.032414,5.436857,4.536779,6.688212,0.00010
0.921,1,0,4.987379,0.000000,6.344920,1.344763,6.273671,7.031432,5.436365,4.538415,6.689190,0.00010
0.922,1,0,4.988299,0.000000,6.344656,1.313887,6.274992,7.031694,5.436427,4.540408,6.690676,0.00022
0.923,1,0,4.989223,0.000000,6.344391,1.283705,6.276323,7.032041,5.436528,4.542424,6.692196,0.00050
0.924,1,0,4.990399,0.000000,6.344120,1.253522,6.277654,7.032388,5.436628,4.544441,6.693717,0.00018
0.925,1,0,4.991579,0.000000,6.343837,1.223340,6.278985,7.032734,5.436728,4.546457,6.695237,0.00015
0.926,1,0,4.992946,0.000000,6.342909,1.172058,6.280351,7.032109,5.436695,4.549189,6.693395,-0.00010
0.927,1,0,4.994313,0.000000,6.341965,1.119332,6.281719,7.031417,5.436652,4.551970,6.691322,-0.00003
0.928,1,0,4.995684,0.000000,6.340116,1.066607,6.283087,7.030726,5.436609,4.554750,6.689250,0.00013
0.929,1,0,4.997052,0.000000,6.338245,1.013882,6.284455,7.030034,5.436567,4.557530,6.687177,-0.00007
0.930,1,0,4.998260,0.000000,6.335290,0.925786,6.285561,7.030063,5.436282,4.560173,6.686316,0.00022
0.931,1,0,4.999467,0.000000,6.332311,0.835271,6.286649,7.030141,5.435981,4.562806,6.685538,-0.00005
0.932,1,0,5.000597,0.000000,6.327961,0.744756,6.287736,7.030220,5.435679,4.565439,6.684760,0.00015
0.933,1,0,5.001726,0.000000,6.323582,0.654242,6.288824,7.030298,5.435378,4.568072,6.683981,0.00005
0.934,1,0,5.002844,0.000000,6.317620,0.521015,6.289373,7.030422,5.435513,4.569838,6.685106,0.00013
0.935,1,0,5.003956,0.000000,6.311633,0.384868,6.289886,7.030548,5.435678,4.571544,6.686360,0.00028
0.936,1,0,5.004737,0.000000,6.304299,0.248721,6.290399,7.030674,5.435843,4.573250,6.687614,0.00013
0.937,1,0,5.005507,0.000000,6.296948,0.112574,6.290911,7.030800,5.436007,4.574956,6.688869,-0.00013
0.938,1,0,5.005643,0.000000,6.288623,-0.046739,6.290840,7.030632,5.436120,4.574837,6.692839,-0.00003
0.939,1,0,5.005772,0.000000,6.280287,-0.207637,6.290729,7.030444,5.436229,4.574593,6.696994,0.00018
0.940,1,0,5.005531,0.000000,6.271381,-0.368535,6.290618,7.030255,5.436338,4.574349,6.701150,0.00015
0.941,1,0,5.005289,0.000000,6.262472,-0.529433,6.290507,7.030066,5.436447,4.574105,6.705305,-0.00007
0.942,1,0,5.004957,0.000000,6.253432,-0.680014,6.289690,7.029664,5.436534,4.572910,6.703672,-0.00005
0.943,1,0,5.004618,0.000000,6.244399,-0.829890,6.288826,7.029247,5.436619,4.571650,6.701644,0.00013
0.944,1,0,5.003814,0.000000,6.235786,-0.979766,6.287961,7.028830,5.436705,4.570390,6.699616,-0.00015
0.945,1,0,5.002994,0.000000,6.227191,-1.129641,6.287097,7.028413,5.436790,4.569129,6.697587,0.00022
0.946,1,0,5.001307,0.000000,6.219577,-1.228430,6.285382,7.029332,5.437099,4.565000,6.688617,0.00018
0.947,1,0,4.999609,0.000000,6.211988,-1.323725,6.283609,7.030342,5.437422,4.560674,6.679172,0.00005
0.948,1,0,4.997341,0.000000,6.205835,-1.419021,6.281837,7.031352,5.437746,4.556348,6.669726,0.00018
0.949,1,0,4.995070,0.000000,6.199716,-1.514316,6.280065,7.032362,5.438070,4.552022,6.660281,0.00013
0.950,1,0,4.992567,0.000000,6.195404,-1.540281,6.277969,7.033494,5.438012,4.546526,6.660265,0.00010
0.951,1,0,4.945198,0.000000,6.191127,-1.561505,6.275852,7.034635,5.437928,4.540951,6.660894,0.00000
0.952,1,0,2.450143,0.000000,6.188792,-1.582729,6.273734,7.035775,5.437843,4.535376,6.661523,0.00005
0.953,0,0,0.000000,0.000000,6.186492,-1.603954,6.271616,7.036916,5.437759,4.529800,6.662152,0.00028
0.954,0,0,0.000000,0.000000,6.186107,-1.565750,6.269783,7.038067,5.437506,4.521468,6.664358,0.00003
0.955,0,0,0.000000,0.000000,6.185749,-1.523483,6.267968,7.039219,5.437242,4.512947,6.666672,-0.00013
0.956,0,0,0.000000,0.000000,6.186863,-1.481216,6.266153,7.040371,5.436978,4.504426,6.668987,0.00013
0.957,0,0,0.000000,0.000000,6.187994,-1.438949,6.264338,7.041523,5.436714,4.495905,6.671301,0.00013
0.958,0,0,0.000000,0.000000,6.190038,-1.377129,6.263188,7.042356,5.436579,4.486606,6.672129,0.00025
0.959,0,0,0.000000,0.000000,6.192089,-1.313973,6.262083,7.043168,5.436452,4.477254,6.672855,0.00003
0.960,0,0,0.000000,0.000000,6.194501,-1.250817,6.260978,7.043979,5.436326,4.467902,6.673582,0.00005
0.961,0,0,0.000000,0.000000,6.196910,-1.187661,6.259872,7.044791,5.436200,4.458549,6.674308,0.00000
0.962,0,0,0.000000,0.000000,6.199200,-1.130984,6.259009,7.046070,5.436027,4.448025,6.676433,0.00015
0.963,0,0,0.000000,0.000000,6.201485,-1.074749,6.258162,7.047381,5.435851,4.437420,6.678655,0.00013
0.964,0,0,0.000000,0.000000,6.203485,-1.018515,6.257314,7.048692,5.435675,4.426815,6.680876,0.00003
0.965,0,0,0.000000,0.000000,6.205479,-0.962280,6.256467,7.050003,5.435499,4.416210,6.683097,0.00010
0.966,0,0,0.000000,0.000000,6.207125,-0.919517,6.255689,7.051692,5.435045,4.405173,6.681398,0.00013
0.967,0,0,0.000000,0.000000,6.208765,-0.877674,6.254915,7.053407,5.434573,4.394106,6.679431,0.00013
0.968,0,0,0.000000,0.000000,6.210038,-0.835832,6.254142,7.055122,5.434100,4.383039,6.677464,0.00003
0.969,0,0,0.000000,0.000000,6.211307,-0.793989,6.253368,7.056838,5.433627,4.371973,6.675497,-0.00022
0.970,0,0,0.000000,0.000000,6.212342,-0.749415,6.252334,7.060267,5.433391,4.361294,6.675567,0.00000
0.971,0,0,0.000000,0.000000,6.213387,-0.704655,6.251281,7.063815,5.433171,4.350641,6.675776,0.00022
0.972,0,0,0.000000,0.000000,6.214946,-0.659894,6.250229,7.067362,5.432950,4.339989,6.675986,-0.00003
0.973,0,0,0.000000,0.000000,6.216529,-0.615134,6.249176,7.070910,5.432730,4.329337,6.676195,0.00003
0.974,0,0,0.000000,0.000000,6.219347,-0.543443,6.248630,7.072868,5.432440,4.319038,6.675615,0.00028
0.975,0,0,0.000000,0.000000,6.222183,-0.469910,6.248117,7.074718,5.432145,4.308764,6.674981,0.00013
0.976,0,0,0.000000,0.000000,6.226051,-0.396378,6.247605,7.076567,5.431850,4.298491,6.674347,0.00005
0.977,0,0,0.000000,0.000000,6.229931,-0.322846,6.247094,7.078417,5.431556,4.288217,6.673713,0.00003
0.978,0,0,0.000000,0.000000,6.234450,-0.229438,6.246879,7.081366,5.431236,4.278785,6.672149,0.00018
0.979,0,0,0.000000,0.000000,6.238979,-0.134672,6.246685,7.084390,5.430915,4.269411,6.670521,-0.00003
0.980,0,0,0.000000,0.000000,6.244071,-0.039906,6.246491,7.087415,5.430594,4.260037,6.668892,0.00022
0.981,0,0,0.000000,0.000000,6.249173,0.054861,6.246297,7.090439,5.430274,4.250663,6.667264,-0.00003
0.982,0,0,0.000000,0.000000,6.254805,0.160888,6.246405,7.092260,5.429702,4.244515,6.667428,0.00025
0.983,0,0,0.000000,0.000000,6.260443,0.267684,6.246534,7.093999,5.429114,4.238588,6.667715,0.00028
0.984,0,0,0.000000,0.000000,6.266366,0.374481,6.246663,7.095738,5.428526,4.232661,6.668001,-0.00003
0.985,0,0,0.000000,0.000000,6.272288,0.481277,6.246791,7.097478,5.427938,4.226734,6.668288,0.00003
0.986,0,0,0.000000,0.000000,6.278170,0.571300,6.247662,7.099362,5.427791,4.222675,6.672946,0.00005
0.987,0,0,0.000000,0.000000,6.284044,0.660175,6.248584,7.101257,5.427673,4.218745,6.677904,0.00015
0.988,0,0,0.000000,0.000000,6.289465,0.749051,6.249506,7.103152,5.427556,4.214814,6.682862,0.00003
0.989,0,0,0.000000,0.000000,6.294871,0.837926,6.250427,7.105047,5.427438,4.210883,6.687819,0.00025
0.990,0,0,0.000000,0.000000,6.299457,0.895683,6.251572,7.107388,5.427192,4.210095,6.688418,-0.00010
0.991,0,0,0.000000,0.000000,6.304028,0.951311,6.252732,7.109759,5.426938,4.209521,6.688719,0.00000
0.992,0,0,0.000000,0.000000,6.307731,1.006940,6.253893,7.112130,5.426682,4.208948,6.689020,0.00010
0.993,0,0,0.000000,0.000000,6.311419,1.062568,6.255053,7.114501,5.426428,4.208375,6.689322,0.00013
0.994,0,0,0.000000,0.000000,6.314266,1.084820,6.256331,7.116580,5.426403,4.208853,6.691208,0.00015
0.995,0,0,0.000000,0.000000,6.317095,1.104790,6.257617,7.118638,5.426394,4.209403,6.693204,0.00005
0.996,0,0,0.000000,0.000000,6.319014,1.124761,6.258902,7.120696,5.426385,4.209953,6.695200,0.00025
0.997,0,0,0.000000,0.000000,6.320915,1.144731,6.260188,7.122754,5.426376,4.210503,6.697196,0.00028
0.998,0,0,0.000000,0.000000,6.321874,1.134351,6.261433,7.119047,5.426298,4.213787,6.699067,0.00000
0.999,0,0,0.000000,0.000000,6.322819,1.121896,6.262676,7.114946,5.426216,4.217258,6.700930,0.00003
1.000,0,0,0.000000,0.000000,6.323082,1.109441,6.263918,7.110846,5.426133,4.220728,6.702793,0.00003
1.001,0,0,0.000000,0.000000,6.323339,1.096986,6.265161,7.106745,5.426050,4.224199,6.704656,-0.00003
1.002,0,0,0.000000,0.000000,6.323234,1.075440,6.266175,7.102925,5.425828,4.228794,6.702554,0.00025
1.003,0,0,0.000000,0.000000,6.323126,1.053272,6.267173,7.099125,5.425597,4.233466,6.700181,0.00003
1.004,0,0,0.000000,0.000000,6.322888,1.031104,6.268171,7.095325,5.425365,4.238137,6.697807,-0.00007
1.005,0,0,0.000000,0.000000,6.322651,1.008936,6.269169,7.091525,5.425134,4.242808,6.695434,0.00010
1.006,0,0,0.000000,0.000000,6.322449,0.987726,6.270103,7.087388,5.424965,4.248897,6.691678,0.00015
1.007,0,0,0.000000,0.000000,6.322247,0.966581,6.271031,7.083229,5.424800,4.255082,6.687827,0.00000
1.008,0,0,0.000000,0.000000,6.322063,0.945436,6.271959,7.079069,5.424636,4.261267,6.683976,0.00015
1.009,0,0,0.000000,0.000000,6.321879,0.924291,6.272888,7.074910,5.424471,4.267452,6.680125,0.00000
1.010,0,0,0.000000,0.000000,6.321690,0.906452,6.273736,7.071178,5.424768,4.274255,6.683876,0.00028
1.011,0,0,0.000000,0.000000,6.321504,0.888839,6.274580,7.067476,5.425097,4.281100,6.688146,0.00013
1.012,0,0,0.000000,0.000000,6.321497,0.871226,6.275423,7.063775,5.425426,4.287945,6.692417,-0.00015
1.013,0,0,0.000000,0.000000,6.321496,0.853613,6.276266,7.060072,5.425755,4.294790,6.696687,0.00015
1.014,0,0,0.000000,0.000000,6.321815,0.842973,6.277118,7.056521,5.425822,4.301262,6.701886,0.00005
1.015,0,0,0.000000,0.000000,6.322133,0.832811,6.277971,7.052979,5.425871,4.307709,6.707147,-0.00010
1.016,0,0,0.000000,0.000000,6.322444,0.822648,6.278824,7.049438,5.425921,4.314156,6.712409,-0.00018
1.017,0,0,0.000000,0.000000,6.322749,0.812486,6.279677,7.045897,5.425970,4.320603,6.717671,-0.00003
1.018,0,0,0.000000,0.000000,6.322693,0.794024,6.280495,7.041448,5.426095,4.326581,6.718359,0.00000
1.019,0,0,0.000000,0.000000,6.322632,0.774995,6.281311,7.036936,5.426225,4.332527,6.718735,0.00040
1.020,0,0,0.000000,0.000000,6.322322,0.755967,6.282126,7.032424,5.426354,4.338474,6.719110,0.00015
1.021,0,0,0.000000,0.000000,6.322011,0.736938,6.282941,7.027913,5.426484,4.344420,6.719486,0.00018
1.022,0,0,0.000000,0.000000,6.321633,0.715773,6.283607,7.022915,5.426641,4.349688,6.720915,0.00005
1.023,0,0,0.000000,0.000000,6.321251,0.694462,6.284263,7.017884,5.426801,4.354909,6.722415,0.00028
1.024,0,0,0.000000,0.000000,6.320696,0.673150,6.284918,7.012854,5.426960,4.360130,6.723916,0.00013
1.025,0,0,0.000000,0.061749,6.320135,0.651839,6.285573,7.007823,5.427120,4.365352,6.725417,0.00000
1.026,0,1,0.000000,3.492223,6.319245,0.617127,6.286375,7.002732,5.427627,4.368933,6.724007,0.00003
1.027,0,1,0.000000,6.860881,6.318349,0.581498,6.287186,6.997636,5.428158,4.372402,6.722398,0.00015
1.028,0,1,0.000000,6.857121,6.317113,0.545870,6.287997,6.992541,5.428689,4.375871,6.720789,-0.00010
1.029,0,1,0.000000,6.853357,6.315872,0.510241,6.288808,6.987446,5.429221,4.379339,6.719180,-0.00005
1.030,0,1,0.000000,6.849384,6.314363,0.476935,6.289089,6.982708,5.429500,4.381100,6.717083,-0.00005
1.031,0,1,0.000000,6.845428,6.312853,0.443787,6.289333,6.977995,5.429762,4.382744,6.714951,0.00043
1.032,0,1,0.000000,6.842472,6.311337,0.410639,6.289578,6.973282,5.430024,4.384388,6.712820,0.00000
1.033,0,1,0.000000,6.839549,6.309826,0.377492,6.289823,6.968569,5.430285,4.386033,6.710689,0.00031
1.034,0,1,0.000000,6.838445,6.308543,0.345934,6.290244,6.964396,5.430671,4.386219,6.712550,0.00000
1.035,0,1,0.000000,6.837344,6.307261,0.314485,6.290676,6.960260,5.431066,4.386305,6.714684,0.00003
1.036,0,1,0.000000,6.836434,6.306069,0.283036,6.291109,6.956124,5.431460,4.386391,6.716817,0.00013
1.037,0,1,0.000000,6.835497,6.304877,0.251587,6.291542,6.951988,5.431855,4.386477,6.718951,-0.00015
1.038,0,1,0.000000,6.833090,6.303653,0.232924,6.291510,6.947508,5.432002,4.385065,6.718650,0.00015
1.039,0,1,0.000000,6.830681,6.302435,0.215134,6.291446,6.943005,5.432132,4.383550,6.718183,0.00013
1.040,0,1,0.000000,6.828125,6.301612,0.197345,6.291382,6.938501,5.432261,4.382034,6.717716,-0.00003
1.041,0,1,0.000000,6.825595,6.300804,0.179555,6.291319,6.933997,5.432392,4.380519,6.717249,0.00000
1.042,0,1,0.000000,6.824450,6.300779,0.175271,6.291616,6.929648,5.433044,4.378696,6.719159,-0.00022
1.043,0,1,0.000000,6.823306,6.300760,0.171911,6.291938,6.925310,5.433733,4.376853,6.721231,-0.00025
1.044,0,1,0.000000,6.822186,6.301048,0.168551,6.292260,6.920971,5.434421,4.375009,6.723303,0.00000
1.045,0,1,0.000000,6.821037,6.301332,0.165191,6.292582,6.916633,5.435109,4.373165,6.725376,0.00000
1.046,0,1,0.000000,6.818251,6.301386,0.167647,6.292549,6.912647,5.435905,4.371014,6.723006,-0.00018
1.047,0,1,0.000000,6.815448,6.301443,0.170500,6.292493,6.908686,5.436710,4.368841,6.720332,0.00022
1.048,0,1,0.000000,6.811677,6.301570,0.173354,6.292437,6.904724,5.437514,4.366669,6.717658,0.00028
1.049,0,1,0.000000,6.807914,6.301706,0.176207,6.292380,6.900763,5.438318,4.364496,6.714984,0.00003
1.050,0,1,0.000000,6.804609,6.302272,0.179605,6.292722,6.901186,5.439585,4.361567,6.710356,-0.00013
1.051,0,1,0.000000,6.801346,6.302838,0.183040,6.293091,6.901907,5.440884,4.358586,6.705594,0.00003
1.052,0,1,0.000000,6.800413,6.303378,0.186474,6.293460,6.902630,5.442183,4.355605,6.700831,0.00015
1.053,0,1,0.000000,6.799544,6.303908,0.189909,6.293829,6.903352,5.443481,4.352624,6.696069,0.00010
1.054,0,1,0.000000,6.802139,6.303916,0.186221,6.293984,6.903739,5.444746,4.348940,6.700992,0.00000
1.055,0,1,0.000000,6.804748,6.303922,0.182046,6.294124,6.904103,5.446010,4.345208,6.706577,0.00025
1.056,0,1,0.000000,6.808051,6.303762,0.177872,6.294263,6.904467,5.447273,4.341476,6.712162,0.00018
1.057,0,1,0.000000,6.811315,6.303609,0.173697,6.294403,6.904831,5.448535,4.337744,6.717747,0.00003
1.058,0,1,0.000000,6.812470,6.303752,0.171635,6.294710,6.905767,5.449836,4.333852,6.719303,0.00013
1.059,0,1,0.000000,6.813624,6.303899,0.169718,6.295030,6.906742,5.451139,4.329949,6.720582,0.00015
1.060,0,1,0.000000,6.814722,6.304180,0.167801,6.295349,6.907717,5.452442,4.326046,6.721862,0.00003
1.061,0,1,0.000000,6.815864,6.304459,0.165883,6.295668,6.908691,5.453745,4.322143,6.723142,0.00003
1.062,0,1,0.000000,6.819401,6.304683,0.175521,6.295602,6.908944,5.454708,4.318602,6.730119,0.00038
1.063,0,1,0.000000,6.822946,6.304915,0.185950,6.295510,6.909148,5.455647,4.315085,6.737485,0.00025
1.064,0,1,0.000000,6.826947,6.305575,0.196378,6.295418,6.909351,5.456587,4.311569,6.744852,0.00013
1.065,0,1,0.000000,6.830908,6.306253,0.206806,6.295325,6.909555,5.457526,4.308053,6.752218,0.00003
1.066,0,1,0.000000,6.832749,6.307887,0.240673,6.295514,6.909741,5.458271,4.304526,6.753955,0.00013
1.067,0,1,0.000000,6.834555,6.309535,0.276143,6.295721,6.909927,5.459001,4.300999,6.755307,0.00025
1.068,0,1,0.000000,6.834412,6.312008,0.311613,6.295928,6.910112,5.459732,4.297472,6.756659,0.00000
1.069,0,1,0.000000,6.834254,6.314492,0.347083,6.296135,6.910297,5.460463,4.293945,6.758011,0.00028
1.070,0,1,0.000000,6.833261,6.317561,0.406052,6.296378,6.910411,5.461082,4.290587,6.757191,0.00013
1.071,0,1,0.000000,6.832286,6.320642,0.466627,6.296624,6.910519,5.461694,4.287241,6.756222,0.00015
1.072,0,1,0.000000,6.832330,6.324426,0.527203,6.296869,6.910627,5.462305,4.283895,6.755253,0.00015
1.073,0,1,0.000000,6.832419,6.328225,0.587779,6.297114,6.910736,5.462917,4.280549,6.754284,-0.00007
1.074,0,1,0.000000,6.834950,6.332796,0.658622,6.297949,6.911448,5.463509,4.277651,6.759249,0.00015
1.075,0,1,0.000000,6.837499,6.337370,0.730168,6.298825,6.912201,5.464099,4.274785,6.764619,-0.00007
1.076,0,1,0.000000,6.841015,6.342122,0.801713,6.299701,6.912955,5.464689,4.271918,6.769989,0.00003
1.077,0,1,0.000000,6.844513,6.346865,0.873258,6.300577,6.913709,5.465280,4.269052,6.775359,0.00005
1.078,0,1,0.000000,6.847092,6.351160,0.933483,6.301521,6.914613,5.466194,4.267024,6.778672,0.00005
1.079,0,1,0.000000,6.849652,6.355447,0.992934,6.302469,6.915527,5.467131,4.265053,6.781843,0.00003
1.080,0,1,0.000000,6.851240,6.359380,1.052384,6.303417,6.916441,5.468068,4.263083,6.785015,0.00028
1.081,0,1,0.000000,6.852817,6.363309,1.111835,6.304365,6.917355,5.469004,4.261112,6.788186,0.00000
1.082,0,1,0.000000,6.853804,6.367047,1.148558,6.305846,6.918141,5.469090,4.260541,6.788893,0.00025
1.083,0,1,0.000000,6.854779,6.370772,1.183728,6.307364,6.918918,5.469118,4.260066,6.789432,0.00005
1.084,0,1,0.000000,6.855158,6.373854,1.218897,6.308882,6.919694,5.469145,4.259591,6.789970,0.00015
1.085,0,1,0.000000,6.855527,6.376915,1.254066,6.310400,6.920472,5.469172,4.259116,6.790509,-0.00003
1.086,0,1,0.000000,6.855315,6.378875,1.259676,6.311741,6.921209,5.467782,4.258833,6.789486,0.00000
1.087,0,1,0.000000,6.855103,6.380820,1.263265,6.313069,6.921945,5.466293,4.258564,6.788358,0.00000
1.088,0,1,0.000000,6.854918,6.381964,1.266853,6.314398,6.922680,5.464805,4.258296,6.787229,0.00005
1.089,0,1,0.000000,6.854745,6.383101,1.270442,6.315727,6.923415,5.463317,4.258027,6.786100,0.00013
1.090,0,1,0.000000,6.855221,6.383841,1.255337,6.317062,6.924448,5.462436,4.257966,6.786540,0.00000
1.091,0,1,0.000000,6.855708,6.384572,1.238953,6.318397,6.925501,5.461597,4.257920,6.787086,0.00010
1.092,0,1,0.000000,6.856783,6.384808,1.222569,6.319733,6.926555,5.460758,4.257874,6.787633,0.00003
1.093,0,1,0.000000,6.857864,6.385032,1.206185,6.321068,6.927608,5.459919,4.257827,6.788180,0.00018
1.094,0,1,0.000000,6.859261,6.384602,1.173982,6.322177,6.928279,5.457603,4.257758,6.790184,0.00005
1.095,0,1,0.000000,6.860656,6.384165,1.140698,6.323270,6.928924,5.455187,4.257687,6.792289,0.00000
1.096,0,1,0.000000,6.862013,6.383288,1.107414,6.324363,6.929568,5.452771,4.257616,6.794393,0.00015
1.097,0,1,0.000000,6.863364,6.382408,1.074130,6.325456,6.930213,5.450355,4.257545,6.796497,0.00015
1.098,0,1,0.000000,6.864386,6.381309,1.029164,6.326542,6.930604,5.446427,4.257718,6.797976,0.00013
1.099,0,1,0.000000,6.865403,6.380203,0.983400,6.327628,6.930978,5.442396,4.257907,6.799413,-0.00015
1.100,0,1,0.000000,6.866209,6.378658,0.937636,6.328713,6.931352,5.438365,4.258097,6.800849,0.00015
1.101,0,1,0.000000,6.867015,6.377101,0.891873,6.329799,6.931726,5.434334,4.258287,6.802285,0.00015
1.102,0,1,0.000000,6.867875,6.374857,0.829783,6.330645,6.932480,5.430063,4.258827,6.803749,-0.00007
1.103,0,1,0.000000,6.868743,6.372603,0.766577,6.331474,6.933261,5.425776,4.259391,6.805215,0.00000
1.104,0,1,0.000000,6.870090,6.369847,0.703372,6.332304,6.934042,5.421488,4.259955,6.806681,-0.00003
1.105,0,1,0.000000,6.871449,6.367086,0.640166,6.333133,6.934822,5.417200,4.260520,6.808146,-0.00007
1.106,0,1,0.000000,6.873532,6.364046,0.566262,6.333813,6.936007,5.414521,4.260993,6.810961,0.00010
1.107,0,1,0.000000,6.875614,6.360996,0.491627,6.334482,6.937220,5.411952,4.261459,6.813868,0.00022
1.108,0,1,0.000000,6.877656,6.357502,0.416992,6.335152,6.938433,5.409382,4.261926,6.816774,0.00018
1.109,0,1,0.000000,6.879680,6.353997,0.342357,6.335821,6.939646,5.406813,4.262393,6.819681,0.00015
1.110,0,1,0.000000,6.880778,6.349874,0.260454,6.335922,6.940850,5.404391,4.262821,6.819690,-0.00010
1.111,0,1,0.000000,6.881856,6.345745,0.178053,6.335983,6.942053,5.401979,4.263246,6.819501,-0.00015
1.112,0,1,0.000000,6.881862,6.341283,0.095652,6.336045,6.943256,5.399568,4.263672,6.819313,0.00031
1.113,0,1,0.000000,6.881854,6.336822,0.013251,6.336107,6.944459,5.397157,4.264097,6.819123,0.00013
1.114,0,1,0.000000,6.881057,6.332405,-0.063260,6.335876,6.945970,5.394632,4.264111,6.816695,0.00003
1.115,0,1,0.000000,6.880270,6.327992,-0.139367,6.335625,6.947501,5.392100,4.264097,6.814113,0.00015
1.116,0,1,0.000000,6.879972,6.323819,-0.215475,6.335374,6.949032,5.389569,4.264083,6.811531,0.00003
1.117,0,1,0.000000,6.879703,6.319653,-0.291583,6.335124,6.950563,5.387037,4.264069,6.808949,0.00003
1.118,0,1,0.000000,6.881012,6.315850,-0.353108,6.334747,6.951868,5.383928,4.264534,6.810577,0.00013
1.119,0,1,0.000000,6.882330,6.312053,-0.413637,6.334362,6.953156,5.380781,4.265032,6.812494,0.00025
1.120,0,1,0.000000,6.884185,6.308638,-0.474165,6.333976,6.954445,5.377633,4.265531,6.814411,0.00003
1.121,0,1,0.000000,6.886025,6.305230,-0.534694,6.333591,6.955733,5.374485,4.266028,6.816328,-0.00020
1.122,0,1,0.000000,6.887084,6.302198,-0.575245,6.332879,6.956911,5.370219,4.266713,6.816689,0.00013
1.123,0,1,0.000000,6.888131,6.299173,-0.614430,6.332144,6.958081,5.365877,4.267410,6.816943,0.00015
1.124,0,1,0.000000,6.888548,6.296548,-0.653615,6.331409,6.959251,5.361534,4.268108,6.817197,0.00018
1.125,0,1,0.000000,6.888964,6.293931,-0.692800,6.330675,6.960422,5.357191,4.268805,6.817451,0.00013
1.126,0,1,0.000000,6.889256,6.291766,-0.710604,6.329717,6.961250,5.351811,4.269303,6.817363,0.00003
1.127,0,1,0.000000,6.889549,6.289612,-0.726945,6.328744,6.962056,5.346360,4.269787,6.817251,-0.00007
1.128,0,1,0.000000,6.889942,6.288050,-0.743287,6.327772,6.962862,5.340909,4.270271,6.817139,0.00015
1.129,0,1,0.000000,6.890339,6.286500,-0.759629,6.326799,6.963667,5.335458,4.270755,6.817027,-0.00010
1.130,0,1,0.000000,6.890948,6.285660,-0.757071,6.326065,6.964458,5.329932,4.271027,6.817613,0.00015
1.131,0,1,0.000000,6.891561,6.284830,-0.753222,6.325347,6.965249,5.324400,4.271284,6.818246,0.00013
1.132,0,1,0.000000,6.892360,6.284595,-0.749372,6.324630,6.966040,5.318869,4.271542,6.818880,0.00025
1.133,0,1,0.000000,6.893164,6.284368,-0.745523,6.323912,6.966830,5.313338,4.271799,6.819513,-0.00003
1.134,0,1,0.000000,6.894162,6.284597,-0.722663,6.323150,6.967607,5.306473,4.272350,6.821235,0.00015
1.135,0,1,0.000000,6.895169,6.284837,-0.698503,6.322385,6.968381,5.299517,4.272921,6.823031,0.00028
1.136,0,1,0.000000,6.896698,6.285594,-0.674344,6.321620,6.969157,5.292560,4.273491,6.824827,0.00040
1.137,0,1,0.000000,6.898237,6.286364,-0.650184,6.320856,6.969932,5.285604,4.274062,6.826623,0.00015
1.138,0,1,0.000000,6.900340,6.287762,-0.604998,6.320177,6.970772,5.279583,4.274473,6.828758,0.00013
1.139,0,1,0.000000,6.902424,6.289174,-0.558375,6.319504,6.971616,5.273626,4.274872,6.830917,0.00015
1.140,0,1,0.000000,6.903418,6.291312,-0.511752,6.318832,6.972460,5.267669,4.275271,6.833076,-0.00013
1.141,0,1,0.000000,6.904366,6.293464,-0.465129,6.318159,6.973305,5.261712,4.275670,6.835234,0.00003
1.142,0,1,0.000000,6.902808,6.296393,-0.395882,6.317676,6.973726,5.256812,4.276280,6.831388,0.00018
1.143,0,1,0.000000,6.901238,6.299334,-0.325090,6.317206,6.974119,5.251985,4.276904,6.827131,0.00000
1.144,0,1,0.000000,6.898984,6.302916,-0.254297,6.316735,6.974512,5.247158,4.277528,6.822875,-0.00003
1.145,0,1,0.000000,6.896759,6.306505,-0.183504,6.316265,6.974905,5.242330,4.278152,6.818618,0.00031
1.146,0,1,0.000000,6.896052,6.310503,-0.106360,6.316120,6.975544,5.237623,4.278541,6.817744,0.00015
1.147,0,1,0.000000,6.895370,6.314500,-0.028782,6.315998,6.976201,5.232924,4.278914,6.817100,0.00003
1.148,0,1,0.000000,6.895983,6.318483,0.048796,6.315875,6.976857,5.228224,4.279287,6.816456,0.00000
1.149,0,1,0.000000,6.896604,6.322458,0.126374,6.315753,6.977514,5.223525,4.279661,6.815813,0.00000
1.150,0,1,0.000000,6.897699,6.325989,0.180697,6.316096,6.978511,5.217193,4.280200,6.816927,0.00003
1.151,0,1,0.000000,6.898796,6.329508,0.233429,6.316472,6.979531,5.210750,4.280750,6.818162,0.00003
1.152,0,1,0.000000,6.899951,6.332373,0.286162,6.316847,6.980551,5.204307,4.281301,6.819397,0.00013
1.153,0,1,0.000000,6.901103,6.335221,0.338895,6.317223,6.981572,5.197864,4.281851,6.820632,0.00022
1.154,0,1,0.000000,6.902043,6.337193,0.345513,6.318173,6.982100,5.190525,4.282460,6.821661,0.00013
1.155,0,1,0.000000,6.902978,6.339138,0.348977,6.319163,6.982596,5.183124,4.283074,6.822676,0.00013
1.156,0,1,0.000000,6.903575,6.339635,0.352442,6.320153,6.983091,5.175724,4.283688,6.823691,0.00000
1.157,0,1,0.000000,6.904168,6.340097,0.355906,6.321143,6.983586,5.168323,4.284301,6.824706,-0.00013
1.158,0,1,0.000000,6.904491,6.338593,0.303878,6.321628,6.983906,5.160626,4.284746,6.825590,0.00028
1.159,0,1,0.000000,6.904824,6.337055,0.248056,6.322079,6.984214,5.152908,4.285180,6.826466,0.00013
1.160,0,1,0.000000,6.905642,6.333694,0.192234,6.322529,6.984522,5.145190,4.285614,6.827341,0.00010
1.161,0,1,0.000000,6.906480,6.330307,0.136412,6.322980,6.984830,5.137473,4.286047,6.828216,0.00015
1.162,0,1,0.000000,6.908451,6.325448,0.040070,6.322845,6.984914,5.129637,4.286189,6.832309,0.00015
1.163,0,1,0.000000,6.910429,6.320569,-0.059043,6.322670,6.984982,5.121793,4.286311,6.836622,0.00000
1.164,0,1,0.000000,6.912808,6.314658,-0.158156,6.322496,6.985051,5.113949,4.286432,6.840936,0.00000
1.165,0,1,0.000000,6.915174,6.308736,-0.257268,6.322321,6.985120,5.106105,4.286554,6.845249,0.00013
1.166,0,1,0.000000,6.916766,6.302182,-0.378639,6.322004,6.984950,5.099162,4.286799,6.846413,0.00003
1.167,0,1,0.000000,6.918319,6.295619,-0.501531,6.321677,6.984764,5.092279,4.287053,6.847361,0.00005
1.168,0,1,0.000000,6.917675,6.288535,-0.624423,6.321350,6.984578,5.085397,4.287306,6.848310,0.00028
1.169,0,1,0.000000,6.916976,6.281442,-0.747316,6.321023,6.984392,5.078516,4.287560,6.849258,0.00000
1.170,0,1,0.000000,6.913350,6.273860,-0.876752,6.320127,6.984134,5.072975,4.288223,6.842560,0.00015
1.171,0,1,0.000000,6.909719,6.266269,-1.006635,6.319192,6.983872,5.067526,4.288915,6.835339,-0.00003
1.172,0,1,0.000000,6.905874,6.258248,-1.136519,6.318257,6.983609,5.062078,4.289607,6.828118,0.00005
1.173,0,1,0.000000,6.902075,6.250221,-1.266402,6.317322,6.983347,5.056629,4.290298,6.820898,-0.00003
1.174,0,1,0.000000,6.900741,6.241827,-1.396211,6.315690,6.983353,5.051541,4.291256,6.818513,0.00000
1.175,0,1,0.000000,6.899417,6.233429,-1.526015,6.314011,6.983377,5.046477,4.292232,6.816459,0.00018
1.176,0,1,0.000000,6.898677,6.224728,-1.655819,6.312331,6.983401,5.041414,4.293208,6.814404,0.00003
1.177,0,1,0.000000,6.835870,6.216023,-1.785623,6.310651,6.983425,5.036350,4.294183,6.812350,0.00028
1.178,0,1,0.000000,3.386894,6.207111,-1.915469,6.308655,6.983587,5.031621,4.294335,6.809543,0.00028
1.179,0,0,0.000000,0.000000,6.198198,-2.045318,6.306636,6.983759,5.026916,4.294430,6.806685,-0.00003
1.180,0,0,0.000000,0.000000,6.189307,-2.175167,6.304618,6.983932,5.022210,4.294526,6.803827,0.00025
1.181,0,0,0.000000,0.000000,6.180420,-2.305016,6.302599,6.984104,5.017505,4.294621,6.800969,0.00013
1.182,0,0,0.000000,0.000000,6.171784,-2.417153,6.300048,6.984276,5.012304,4.294548,6.809161,0.00015
1.183,0,0,0.000000,0.000000,6.163153,-2.528080,6.297461,6.984448,5.007071,4.294463,6.818109,-0.00013
1.184,0,0,0.000000,0.000000,6.154830,-2.639007,6.294874,6.984621,5.001837,4.294378,6.827056,0.00003
1.185,0,0,0.000000,0.000000,6.146513,-2.749933,6.292286,6.984794,4.996603,4.294293,6.836004,0.00018
1.186,0,0,0.000000,0.000000,6.138534,-2.839365,6.289255,6.984620,4.990880,4.294134,6.835873,0.00003
1.187,0,0,0.000000,0.000000,6.130564,-2.927326,6.286194,6.984423,4.985125,4.293970,6.835122,0.00018
1.188,0,0,0.000000,0.000000,6.123056,-3.015288,6.283133,6.984225,4.979369,4.293806,6.834371,0.00013
1.189,0,0,0.000000,0.000000,6.115561,-3.103249,6.280071,6.984028,4.973614,4.293642,6.833619,0.00005
1.190,0,0,0.000000,0.000000,6.108724,-3.157249,6.276576,6.983662,4.966744,4.293467,6.839477,0.00013
1.191,0,0,0.000000,0.000000,6.101906,-3.208926,6.273050,6.983284,4.959799,4.293292,6.845786,0.00003
