"Time","57 rm dwn st","56 rm dwn sw","55 rmp up st","54 rmp up sw","53 Ramp down","52 Ramp up","51 right DS","50 left DS","49 lHL swoff","48 lHL swon","47 rHL swoff","46 rHL swon","45 lFL swoff","44 lFL swon","43 rFL swoff","42 rFL swon","41 MTP (deg)","40 Ankle (de","39 Knee (deg","38 Hip (deg)","37a CoMy (cm)","36 CoMx (cm)","37 CoMy (cm)","34 FRx (cm)","33 FLy (cm)","32 FLx (cm)","31 Keyboard","35 FRy (cm)","30 HRy (cm)","29 HRx (cm)","28 HLy (cm)","27 HLx (cm)","26 FLty (cm)","25 FLtx (cm)","24 toey (cm)","23 toex (cm)","22 MTPy (cm)","21 MTPx (cm)","20 anky (cm)","19 ankx (cm)","18 Knee y","17 Knee x","16 Hipy (cm)","15 Hipx (cm)","14 Cry (cm)","13 Crx (cm)","12 Synch","11 Gr","10 Gs","9 TA","8 St","7 VL","6 BF","5 Ip","4 GM","3 Platform","2 Trdml","1 Synch"
0.000,0,0,0,0,0,0,0,0,0,0,0,0,0,0,0,0,179.236389,37.891277,91.208611,67.153778,-0.570647,15.101437,4.928293,15.881797,6.036435,17.795708,0,3.831217,3.631525,13.882448,6.440523,12.210507,7.706275,16.226252,8.017616,14.135851,8.136421,13.525915,8.272284,12.817981,9.065001,14.388824,10.517982,13.707107,10.600924,14.824975,0,0.00132,0.00055,0.00194,0.00053,0.00091,0.00069,0.00465,0.00180,0.00015,0.10073,3.27675
0.001,0,0,0,0,0,0,0,0,0,0,0,0,0,0,0,0,178.887115,38.356503,91.159027,66.234245,-0.563109,15.107013,4.928005,15.869051,6.039605,17.806997,0,3.831602,3.628125,13.906196,6.440597,12.195603,7.703710,16.218224,8.028665,14.172016,8.135018,13.559615,8.261267,12.854993,9.076663,14.417812,10.518361,13.713675,10.600432,14.825489,0,0.00131,0.00055,0.00177,0.00052,0.00090,0.00068,0.00431,0.00170,0.00000,0.10031,3.27744
0.002,0,0,0,0,0,0,0,0,0,0,0,0,0,0,0,0,178.378250,38.948002,91.077522,65.284286,-0.559130,15.113289,4.927810,15.855169,6.043406,17.818989,0,3.831937,3.624369,13.926652,6.440686,12.178370,7.700378,16.211580,8.038607,14.206484,8.134987,13.593287,8.252929,12.893841,9.089304,14.448353,10.518450,13.719894,10.599704,14.825836,0,0.00131,0.00055,0.00117,0.00054,0.00091,0.00068,0.00413,0.00152,0.00003,0.10033,3.27820
0.003,0,0,0,0,0,0,0,0,0,0,0,0,0,0,0,0,177.869400,39.539505,90.996025,64.334335,-0.555152,15.119566,4.927615,15.841287,6.047208,17.830978,0,3.832272,3.620614,13.947108,6.440775,12.161135,7.697047,16.204935,8.048549,14.240952,8.134955,13.626958,8.244591,12.932688,9.101944,14.478893,10.518538,13.726112,10.598975,14.826184,0,0.00131,0.00055,0.00078,0.00056,0.00091,0.00068,0.00424,0.00138,0.00002,0.10045,3.27737
0.004,0,0,0,0,0,0,0,0,0,0,0,0,0,0,0,0,177.360535,40.131004,90.914520,63.384380,-0.551173,15.125842,4.927420,15.827405,6.051009,17.842968,0,3.832607,3.616858,13.967566,6.440865,12.143901,7.693716,16.198292,8.058491,14.275419,8.134924,13.660629,8.236254,12.971536,9.114584,14.509434,10.518626,13.732331,10.598248,14.826531,0,0.00130,0.00054,0.00078,0.00067,0.00091,0.00070,0.00375,0.00147,-0.00003,0.10027,3.27615
0.005,0,0,0,0,0,0,0,0,0,0,0,0,0,0,0,0,177.306046,40.835373,91.036087,62.574932,-0.566513,15.133575,4.926950,15.818715,6.053865,17.853725,0,3.832720,3.611377,13.998218,6.443269,12.134748,7.692400,16.186897,8.057680,14.323864,8.127216,13.699764,8.226366,13.017730,9.128915,14.537636,10.518846,13.737987,10.598867,14.830014,0,0.00127,0.00053,0.00078,0.00072,0.00092,0.00070,0.00353,0.00135,-0.00002,0.10000,3.27615
0.006,0,0,0,0,0,0,0,0,0,0,0,0,0,0,0,0,177.359528,41.566563,91.205917,61.798874,-0.586443,15.141654,4.926415,15.811259,6.056497,17.864191,0,3.832780,3.605486,14.031293,6.446224,12.127518,7.691564,16.174376,8.054313,14.375629,8.117684,13.740198,8.216109,13.065669,9.143647,14.565282,10.519096,13.743507,10.599808,14.834243,0,0.00127,0.00053,0.00077,0.00078,0.00092,0.00069,0.00328,0.00120,0.00043,0.10015,3.27646
0.007,0,0,0,0,0,0,0,0,0,0,0,0,0,0,0,0,177.413025,42.297756,91.375740,61.022816,-0.606373,15.149734,4.925881,15.803803,6.059128,17.874657,0,3.832839,3.599594,14.064368,6.449179,12.120286,7.690728,16.161852,8.050946,14.427396,8.108153,13.780631,8.205853,13.113608,9.158380,14.592927,10.519347,13.749029,10.600748,14.838470,0,0.00132,0.00053,0.00074,0.00082,0.00091,0.00071,0.00293,0.00110,-0.00002,0.10016,3.27695
0.008,0,0,0,0,0,0,0,0,0,0,0,0,0,0,0,0,177.466507,43.028946,91.545563,60.246754,-0.626304,15.157812,4.925346,15.796348,6.061759,17.885122,0,3.832899,3.593703,14.097444,6.452133,12.113055,7.689892,16.149330,8.047580,14.479161,8.098621,13.821065,8.195598,13.161548,9.173112,14.620573,10.519598,13.754550,10.601689,14.842699,0,0.00148,0.00056,0.00066,0.00088,0.00088,0.00072,0.00274,0.00103,0.00014,0.09989,3.27748
0.009,0,0,0,0,0,0,0,0,0,0,0,0,0,0,0,0,177.779816,43.616718,91.711189,59.636681,-0.638388,15.168632,4.924422,15.786933,6.061674,17.897518,0,3.833125,3.587976,14.142062,6.459857,12.103252,7.687415,16.135122,8.041946,14.529420,8.093203,13.874068,8.186226,13.203403,9.186414,14.642686,10.521284,13.758836,10.604598,14.846834,0,0.00156,0.00057,0.00065,0.00090,0.00086,0.00071,0.00259,0.00101,0.00017,0.09979,3.27716
0.010,0,0,0,0,0,0,0,0,0,0,0,0,0,0,0,0,178.154877,44.170410,91.875809,59.066048,-0.648608,15.180102,4.923407,15.777052,6.060943,17.910372,0,3.833391,3.582288,14.189424,6.468714,12.092838,7.684548,16.120516,8.035775,14.579320,8.088762,13.930058,8.177064,13.243814,9.199376,14.663485,10.523313,13.762827,10.607974,14.850948,0,0.00167,0.00057,0.00065,0.00097,0.00086,0.00067,0.00249,0.00102,-0.00003,0.09990,3.27663
0.011,0,0,0,0,0,0,0,0,0,0,0,0,0,0,0,0,178.529922,44.724102,92.040436,58.495415,-0.658827,15.191572,4.922390,15.767171,6.060212,17.923227,0,3.833656,3.576599,14.236786,6.477571,12.082424,7.681681,16.105909,8.029603,14.629220,8.084321,13.986049,8.167902,13.284224,9.212338,14.684283,10.525340,13.766818,10.611351,14.855062,0,0.00199,0.00057,0.00067,0.00103,0.00086,0.00066,0.00238,0.00102,0.00002,0.09990,3.27707
0.012,0,0,0,0,0,0,0,0,0,0,0,0,0,0,0,0,178.904984,45.277798,92.205055,57.924782,-0.669047,15.203043,4.921374,15.757290,6.059480,17.936083,0,3.833922,3.570911,14.284147,6.486428,12.072010,7.678814,16.091301,8.023432,14.679120,8.079880,14.042040,8.158740,13.324634,9.225300,14.705082,10.527369,13.770809,10.614727,14.859176,0,0.00204,0.00061,0.00075,0.00111,0.00082,0.00065,0.00233,0.00104,0.00043,0.09961,3.27776
0.013,0,0,0,0,0,0,0,0,0,0,0,0,0,0,0,0,178.754318,46.161964,92.386002,57.594925,-0.674290,15.211439,4.920804,15.747138,6.061657,17.948158,0,3.834280,3.565067,14.320337,6.486844,12.065915,7.678141,16.076746,8.016144,14.729596,8.073548,14.096087,8.154230,13.357387,9.235159,14.723220,10.529210,13.775515,10.617294,14.865128,0,0.00213,0.00059,0.00074,0.00114,0.00076,0.00064,0.00232,0.00103,0.00015,0.09947,3.27765
0.014,0,0,0,0,0,0,0,0,0,0,0,0,1,0,0,0,178.478745,47.124664,92.570831,57.322281,-0.678351,15.219106,4.920339,15.736922,6.064524,17.960049,0,3.834661,3.559187,14.353873,6.485254,12.060846,7.677988,16.062202,8.008592,14.780210,8.066769,14.149674,8.150826,13.388321,9.244279,14.740726,10.531008,13.780389,10.619670,14.871517,0,0.00222,0.00061,0.00077,0.00118,0.00077,0.00064,0.00220,0.00104,0.00031,0.09958,3.27734
0.015,0,0,0,0,0,0,0,1,0,0,0,0,0,0,0,0,178.203171,48.087360,92.755661,57.049637,-0.682411,15.226772,4.919874,15.726706,6.067391,17.971937,0,3.835041,3.553306,14.387409,6.483664,12.055779,7.677835,16.047661,8.001039,14.830823,8.059988,14.203261,8.147421,13.419254,9.253400,14.758233,10.532805,13.785263,10.622045,14.877907,0,0.00246,0.00062,0.00077,0.00122,0.00085,0.00064,0.00190,0.00104,0.00015,0.09962,3.27734
0.016,0,0,0,0,0,0,0,1,0,0,0,0,0,0,0,0,177.927597,49.050060,92.940491,56.776993,-0.686472,15.234439,4.919409,15.716490,6.070259,17.983828,0,3.835421,3.547426,14.420945,6.482074,12.050710,7.677683,16.033117,7.993486,14.881436,8.053207,14.256848,8.144016,13.450188,9.262521,14.775740,10.534603,13.790137,10.624420,14.884296,0,0.00296,0.00061,0.00077,0.00123,0.00090,0.00066,0.00150,0.00098,0.00015,0.09931,3.27742
0.017,0,0,0,0,0,0,0,1,0,0,0,0,0,0,0,0,177.345718,50.122547,93.223770,56.820686,-0.673311,15.239104,4.918582,15.708928,6.063856,17.980392,0,3.835314,3.540669,14.440930,6.479772,12.043774,7.678432,16.024258,7.975611,14.918523,8.037647,14.292761,8.139029,13.478086,9.264972,14.789935,10.535012,13.797507,10.626715,14.891467,0,0.00321,0.00064,0.00079,0.00128,0.00090,0.00066,0.00136,0.00090,0.00027,0.09929,3.27756
0.018,0,0,0,0,0,0,0,1,0,0,0,0,0,0,0,0,176.691055,51.221127,93.530441,56.939548,-0.656058,15.243058,4.917671,15.701998,6.055250,17.973316,0,3.835091,3.533704,14.457695,6.477301,12.036392,7.679394,16.016747,7.955284,14.952395,8.020000,14.324475,8.133664,13.505263,9.265838,14.803345,10.535091,13.805471,10.628991,14.898824,0,0.00363,0.00064,0.00079,0.00129,0.00085,0.00067,0.00136,0.00087,-0.00011,0.09955,3.27771
0.019,0,0,0,0,0,0,0,1,0,0,0,0,0,0,0,0,176.036392,52.319702,93.837120,57.058411,-0.638805,15.247011,4.916759,15.695067,6.046645,17.966240,0,3.834867,3.526740,14.474460,6.474829,12.029012,7.680357,16.009235,7.934956,14.986267,8.002355,14.356189,8.128299,13.532441,9.266704,14.816754,10.535170,13.813435,10.631268,14.906180,0,0.00424,0.00063,0.00080,0.00129,0.00080,0.00069,0.00142,0.00086,0.00002,0.09949,3.27762
0.020,0,0,0,0,0,0,0,1,0,0,0,0,0,0,0,0,175.381744,53.418282,94.143791,57.177273,-0.621552,15.250964,4.915846,15.688136,6.038039,17.959162,0,3.834644,3.519775,14.491224,6.472358,12.021631,7.681319,16.001726,7.914628,15.020140,7.984708,14.387902,8.122934,13.559618,9.267570,14.830164,10.535249,13.821399,10.633544,14.913537,0,0.00440,0.00063,0.00080,0.00129,0.00082,0.00070,0.00141,0.00085,0.00002,0.09919,3.27747
0.021,0,0,0,0,0,0,0,1,0,0,0,0,0,0,0,0,175.552002,54.098999,94.315506,57.518017,-0.592495,15.259274,4.915251,15.680932,6.040635,17.937654,0,3.836838,3.512600,14.503983,6.470755,12.011682,7.682627,15.991875,7.894195,15.037407,7.968021,14.390965,8.117291,13.573968,9.260914,14.838390,10.532989,13.833487,10.631547,14.924194,0,0.00463,0.00065,0.00081,0.00133,0.00093,0.00075,0.00149,0.00085,0.00012,0.09939,3.27731
0.022,0,0,0,0,0,0,0,1,0,0,0,0,0,0,0,0,175.918289,54.680420,94.455154,57.911484,-0.560634,15.268620,4.914730,15.673663,6.045892,17.912716,0,3.839605,3.505375,14.515789,6.469357,12.001122,7.684017,15.981468,7.873737,15.050729,7.951563,14.387218,8.111582,13.585268,9.252472,14.845384,10.530173,13.846556,10.628534,14.935636,0,0.00549,0.00067,0.00082,0.00141,0.00107,0.00079,0.00155,0.00097,0.00002,0.09962,3.27716
0.023,0,0,0,0,0,0,0,1,0,0,0,0,0,0,0,0,176.284576,55.261845,94.594795,58.304951,-0.528773,15.277966,4.914209,15.666393,6.051149,17.887777,0,3.842373,3.498150,14.527596,6.467960,11.990562,7.685406,15.971061,7.853280,15.064051,7.935105,14.383471,8.105873,13.596569,9.244030,14.852378,10.527357,13.859624,10.625522,14.947077,0,0.00596,0.00073,0.00089,0.00141,0.00107,0.00082,0.00125,0.00149,0.00012,0.09939,3.27744
0.024,0,0,0,0,0,0,0,1,0,0,0,0,0,0,0,0,176.650864,55.843266,94.734444,58.698418,-0.496912,15.287312,4.913689,15.659124,6.056406,17.862839,0,3.845141,3.490925,14.539403,6.466564,11.980002,7.686796,15.960653,7.832822,15.077373,7.918646,14.379725,8.100163,13.607870,9.235588,14.859372,10.524542,13.872693,10.622509,14.958518,0,0.00614,0.00076,0.00090,0.00139,0.00108,0.00085,0.00117,0.00151,0.00003,0.09938,3.27782
0.025,0,0,0,0,0,0,0,1,0,0,1,0,0,0,0,0,177.208420,55.925179,94.783707,59.267693,-0.472604,15.293421,4.913178,15.653325,6.056852,17.841248,0,3.848773,3.483580,14.530596,6.466753,11.971699,7.690532,15.955928,7.802670,15.048063,7.909136,14.362362,8.097813,13.605097,9.222907,14.864740,10.521511,13.887603,10.618927,14.970515,0,0.00620,0.00080,0.00090,0.00137,0.00122,0.00096,0.00119,0.00144,-0.00002,0.09968,3.27747
0.026,0,0,0,0,0,0,0,1,0,0,0,0,0,0,0,0,177.811417,55.888397,94.811485,59.878746,-0.450091,15.298760,4.912670,15.647876,6.056155,17.820450,0,3.852611,3.476207,14.516891,6.467320,11.963930,7.694826,15.952552,7.770214,15.008623,7.901276,14.341762,8.096258,13.598980,9.209218,14.869722,10.518429,13.902951,10.615210,14.982645,0,0.00633,0.00084,0.00092,0.00134,0.00153,0.00108,0.00122,0.00141,0.00015,0.09971,3.27693
0.027,0,0,0,0,0,0,0,1,0,0,0,0,0,0,0,0,178.414413,55.851616,94.839272,60.489799,-0.427578,15.304099,4.912162,15.642426,6.055458,17.799652,0,3.856449,3.468834,14.503185,6.467887,11.956162,7.699120,15.949176,7.737758,14.969184,7.893416,14.321161,8.094705,13.592862,9.195530,14.874704,10.515347,13.918299,10.611492,14.994775,0,0.00631,0.00086,0.00093,0.00134,0.00162,0.00111,0.00122,0.00145,0.00014,0.09946,3.27689
0.028,0,0,0,0,0,0,0,1,0,0,0,0,0,0,0,0,179.017410,55.814831,94.867058,61.100853,-0.405064,15.309439,4.911654,15.636976,6.054761,17.778856,0,3.860287,3.461461,14.489480,6.468455,11.948395,7.703414,15.945800,7.705302,14.929744,7.885557,14.300561,8.093151,13.586745,9.181842,14.879686,10.512265,13.933646,10.607775,15.006905,0,0.00617,0.00087,0.00093,0.00136,0.00170,0.00111,0.00122,0.00147,0.00015,0.09966,3.27696
0.029,0,0,0,0,0,0,0,1,0,0,0,0,0,0,0,1,178.491287,55.746189,94.819794,61.628735,-0.391162,15.312469,4.911428,15.632634,6.053283,17.765469,0,3.864374,3.454457,14.478823,6.466965,11.942446,7.710018,15.944116,7.699209,14.910350,7.883198,14.285355,8.095039,13.578699,9.168403,14.883314,10.508599,13.955564,10.602504,15.019636,0,0.00599,0.00085,0.00092,0.00134,0.00178,0.00112,0.00121,0.00151,0.00041,0.09986,3.27728
0.030,0,0,0,0,0,0,0,1,0,0,0,0,0,0,0,0,177.696854,55.669971,94.754707,62.136852,-0.379306,15.314950,4.911270,15.628555,6.051619,17.753845,0,3.868519,3.447540,14.468888,6.464985,11.936930,7.717171,15.942834,7.699380,14.895720,7.882148,14.271429,8.097746,13.570196,9.155023,14.886621,10.504795,13.979045,10.596864,15.032511,0,0.00577,0.00085,0.00093,0.00132,0.00221,0.00116,0.00123,0.00156,0.00002,0.09982,3.27766
0.031,0,0,0,0,0,0,0,1,0,0,0,0,0,0,0,0,176.902435,55.593758,94.689613,62.644970,-0.367449,15.317430,4.911111,15.624476,6.049955,17.742220,0,3.872664,3.440624,14.458955,6.463006,11.931414,7.724324,15.941552,7.699552,14.881089,7.881097,14.257504,8.100452,13.561692,9.141643,14.889927,10.500990,14.002524,10.591224,15.045385,0,0.00568,0.00086,0.00093,0.00131,0.00275,0.00120,0.00125,0.00156,0.00015,0.09988,3.27737
0.032,0,0,0,0,0,0,0,1,0,0,0,0,0,0,0,0,176.108002,55.517540,94.624519,63.153091,-0.355593,15.319912,4.910952,15.620398,6.048292,17.730595,0,3.876809,3.433707,14.449021,6.461028,11.925898,7.731477,15.940270,7.699724,14.866459,7.880046,14.243579,8.103159,13.553189,9.128263,14.893233,10.497185,14.026005,10.585584,15.058260,0,0.00573,0.00086,0.00085,0.00129,0.00316,0.00120,0.00129,0.00198,0.00000,0.10011,3.27692
0.033,0,0,0,0,0,0,0,1,0,0,0,0,0,0,0,0,174.948792,55.674557,94.531883,63.674072,-0.360494,15.330330,4.910762,15.625355,6.048449,17.719418,0,3.882131,3.427300,14.428784,6.457014,11.918891,7.741782,15.939013,7.696568,14.855164,7.874441,14.229511,8.105402,13.543730,9.115015,14.895662,10.492566,14.039539,10.579049,15.075762,0,0.00562,0.00087,0.00085,0.00129,0.00404,0.00121,0.00133,0.00225,0.00015,0.10021,3.27682
0.034,0,0,0,0,0,0,0,1,0,0,0,0,0,0,0,0,173.702896,55.886993,94.432693,64.198112,-0.369378,15.342633,4.910565,15.632460,6.049039,17.708347,0,3.887733,3.421015,14.406100,6.452516,11.911531,7.752836,15.937762,7.692620,14.844662,7.867753,14.215410,8.107535,13.534043,9.101798,14.897882,10.487755,14.050710,10.572301,15.094363,0,0.00556,0.00089,0.00084,0.00133,0.00484,0.00130,0.00135,0.00227,-0.00012,0.10005,3.27682
0.035,0,0,0,0,0,0,0,1,0,0,0,0,0,0,0,0,172.457016,56.099430,94.333511,64.722145,-0.378262,15.354938,4.910368,15.639564,6.049629,17.697277,0,3.893336,3.414730,14.383415,6.448019,11.904172,7.763890,15.936512,7.688673,14.834160,7.861065,14.201309,8.109668,13.524357,9.088581,14.900103,10.482944,14.061881,10.565553,15.112964,0,0.00533,0.00087,0.00085,0.00134,0.00480,0.00134,0.00134,0.00226,0.00014,0.10019,3.27664
0.036,0,0,0,0,0,0,0,1,0,0,0,0,0,0,0,0,171.211121,56.311871,94.234322,65.246185,-0.387145,15.367242,4.910172,15.646668,6.050219,17.686205,0,3.898938,3.408444,14.360730,6.443521,11.896812,7.774944,15.935261,7.684726,14.823657,7.854378,14.187208,8.111801,13.514670,9.075364,14.902323,10.478132,14.073051,10.558805,15.131565,0,0.00485,0.00086,0.00086,0.00135,0.00478,0.00132,0.00132,0.00226,0.00027,0.10039,3.27641
0.037,0,0,0,0,0,0,0,1,0,0,0,0,0,0,0,0,170.081772,56.360909,94.182289,65.962448,-0.393235,15.377475,4.909761,15.658492,6.049458,17.676874,0,3.906337,3.402309,14.355824,6.441281,11.889758,7.790362,15.951436,7.681119,14.813477,7.847510,14.172591,8.116052,13.505094,9.061219,14.902402,10.472237,14.090872,10.552814,15.152044,0,0.00460,0.00084,0.00085,0.00131,0.00478,0.00131,0.00145,0.00228,0.00003,0.10026,3.27661
0.038,0,0,0,0,0,0,0,1,0,0,0,0,0,0,0,0,168.980118,56.371124,94.141457,66.724380,-0.398662,15.387216,4.909300,15.671436,6.048375,17.667955,0,3.914164,3.396209,14.355145,6.439579,11.882777,7.806817,15.971752,7.677592,14.803371,7.840600,14.157852,8.120806,13.495543,9.046855,14.901973,10.466083,14.110272,10.547005,15.172969,0,0.00430,0.00083,0.00084,0.00131,0.00544,0.00133,0.00153,0.00229,0.00000,0.10013,3.27692
0.039,0,0,0,0,0,0,0,1,0,0,0,0,0,0,0,0,167.878479,56.381336,94.100632,67.486313,-0.404088,15.396956,4.908838,15.684381,6.047293,17.659037,0,3.921990,3.390110,14.354464,6.437876,11.875796,7.823272,15.992068,7.674066,14.793267,7.833689,14.143113,8.125560,13.485992,9.032490,14.901544,10.459929,14.129673,10.541195,15.193894,0,0.00399,0.00083,0.00086,0.00130,0.00637,0.00135,0.00150,0.00229,-0.00012,0.10033,3.27722
0.040,0,0,0,0,0,0,0,1,0,0,0,0,0,0,0,0,166.776825,56.391552,94.059799,68.248245,-0.409515,15.406697,4.908377,15.697327,6.046210,17.650120,0,3.929816,3.384011,14.353783,6.436173,11.868815,7.839727,16.012384,7.670539,14.783162,7.826778,14.128373,8.130314,13.476442,9.018125,14.901114,10.453776,14.149074,10.535385,15.214819,0,0.00393,0.00084,0.00087,0.00130,0.00655,0.00137,0.00150,0.00230,0.00002,0.10048,3.27753
0.041,0,0,0,0,0,0,0,1,0,0,0,0,0,0,0,0,165.969681,56.205322,93.904472,68.984238,-0.405984,15.421470,4.907712,15.719007,6.043169,17.638655,0,3.939500,3.379286,14.337377,6.432039,11.863221,7.868110,16.051319,7.670424,14.771725,7.821611,14.116653,8.132730,13.463364,9.004728,14.899599,10.448063,14.161943,10.532856,15.224751,0,0.00376,0.00083,0.00087,0.00129,0.00648,0.00133,0.00146,0.00230,0.00015,0.10020,3.27704
0.042,0,0,0,0,0,0,0,1,0,0,0,0,0,0,0,0,165.232498,55.972412,93.721939,69.714058,-0.400324,15.437437,4.906999,15.742764,6.039663,17.626585,0,3.949626,3.374888,14.317234,6.427328,11.857956,7.899327,16.094679,7.671121,14.759971,7.816858,14.105652,8.134590,13.449448,8.991561,14.897827,10.442454,14.173261,10.531108,15.232070,0,0.00319,0.00080,0.00085,0.00121,0.00642,0.00129,0.00137,0.00224,0.00014,0.10026,3.27635
0.043,0,0,0,0,0,0,0,1,0,0,0,0,0,0,0,0,164.495331,55.739502,93.539398,70.443886,-0.394664,15.453405,4.906285,15.766521,6.036157,17.614515,0,3.959753,3.370490,14.297091,6.422616,11.852691,7.930544,16.138039,7.671817,14.748217,7.812105,14.094649,8.136450,13.435532,8.978395,14.896054,10.436846,14.184578,10.529359,15.239389,0,0.00269,0.00079,0.00078,0.00123,0.00670,0.00129,0.00127,0.00166,0.00070,0.10051,3.27676
0.044,0,0,0,0,0,0,0,1,0,0,0,0,0,0,0,0,163.758163,55.506596,93.356865,71.173706,-0.389004,15.469373,4.905572,15.790277,6.032651,17.602446,0,3.969878,3.366092,14.276949,6.417904,11.847425,7.961761,16.181398,7.672513,14.736463,7.807353,14.083647,8.138310,13.421616,8.965228,14.894282,10.431237,14.195895,10.527610,15.246708,0,0.00252,0.00080,0.00071,0.00118,0.00671,0.00126,0.00123,0.00152,0.00029,0.10037,3.27745
0.045,0,0,0,0,0,0,0,1,0,0,0,0,0,0,0,0,163.288788,55.277729,93.166245,71.900223,-0.364876,15.480170,4.905080,15.860912,6.032268,17.588179,0,3.981683,3.363467,14.263472,6.413222,11.846859,7.972853,16.249302,7.671952,14.721478,7.803923,14.075838,8.144937,13.410689,8.951777,14.894334,10.424945,14.209916,10.523961,15.257763,0,0.00264,0.00075,0.00069,0.00116,0.00661,0.00119,0.00119,0.00150,0.00014,0.10015,3.27795
0.046,0,0,0,0,0,0,0,1,0,0,0,0,0,0,0,0,162.883041,55.049828,92.973701,72.625954,-0.336360,15.489738,4.904641,15.942687,6.032627,17.573391,0,3.993886,3.361263,14.251577,6.408546,11.847408,7.979164,16.323038,7.671093,14.705727,7.800809,14.068789,8.152697,13.400475,8.938259,14.894818,10.418490,14.224580,10.519861,15.269705,0,0.00255,0.00074,0.00069,0.00116,0.00675,0.00104,0.00114,0.00147,0.00027,0.10031,3.27841
0.047,0,0,0,0,0,0,0,1,0,1,0,0,0,0,0,0,162.477295,54.821922,92.781158,73.351685,-0.307844,15.499307,4.904202,16.024462,6.032986,17.558601,0,4.006089,3.359058,14.239683,6.403870,11.847958,7.985475,16.396772,7.670234,14.689975,7.797694,14.061740,8.160457,13.390260,8.924741,14.895304,10.412035,14.239244,10.515761,15.281647,0,0.00280,0.00075,0.00068,0.00119,0.00715,0.00101,0.00115,0.00144,0.00000,0.10040,3.27765
0.048,0,0,0,0,0,0,0,0,0,0,0,0,0,0,0,0,162.071548,54.594021,92.588615,74.077408,-0.279329,15.508876,4.903763,16.106236,6.033345,17.543814,0,4.018292,3.356854,14.227790,6.399195,11.848507,7.991785,16.470509,7.669375,14.674222,7.794580,14.054690,8.168217,13.380045,8.911223,14.895788,10.405581,14.253908,10.511661,15.293589,0,0.00303,0.00072,0.00069,0.00111,0.00714,0.00100,0.00117,0.00142,0.00017,0.09995,3.27658
0.049,0,0,0,0,0,0,0,0,0,0,0,0,0,0,0,0,161.545227,54.525810,92.653893,74.812820,-0.244558,15.514487,4.903701,16.193007,6.032041,17.529972,0,4.032396,3.356052,14.217898,6.392442,11.848741,7.980743,16.546555,7.668015,14.658484,7.793634,14.044320,8.172272,13.371513,8.898649,14.895870,10.397033,14.267009,10.507740,15.304898,0,0.00306,0.00074,0.00069,0.00111,0.00708,0.00101,0.00116,0.00138,0.00005,0.09983,3.27686
0.050,0,0,0,0,0,0,0,0,0,0,0,0,0,0,0,0,160.990234,54.495548,92.780426,75.550537,-0.208301,15.519158,4.903730,16.280964,6.030342,17.516357,0,4.046953,3.355585,14.208484,6.385197,11.848899,7.965577,16.623150,7.666537,14.642748,7.793204,14.033161,8.175446,13.363383,8.886300,14.895856,10.387988,14.279737,10.503861,15.316057,0,0.00315,0.00074,0.00070,0.00110,0.00730,0.00102,0.00112,0.00131,0.00027,0.10000,3.27747
0.051,0,0,0,0,0,0,0,0,0,0,0,0,0,0,0,0,160.435257,54.465286,92.906960,76.288246,-0.172044,15.523829,4.903758,16.368921,6.028644,17.502743,0,4.061509,3.355117,14.199069,6.377951,11.849057,7.950412,16.699745,7.665059,14.627011,7.792773,14.022002,8.178620,13.355252,8.873951,14.895842,10.378943,14.292466,10.499984,15.327217,0,0.00280,0.00073,0.00070,0.00106,0.00677,0.00103,0.00109,0.00130,0.00000,0.09985,3.27734
0.052,0,0,0,0,0,0,0,0,0,0,0,0,0,0,0,0,159.880264,54.435024,93.033501,77.025963,-0.135787,15.528502,4.903787,16.456879,6.026945,17.489128,0,4.076065,3.354649,14.189654,6.370706,11.849216,7.935246,16.776340,7.663581,14.611276,7.792343,14.010843,8.181795,13.347122,8.861601,14.895827,10.369899,14.305195,10.496105,15.338376,0,0.00275,0.00071,0.00069,0.00100,0.00661,0.00103,0.00103,0.00094,0.00027,0.09948,3.27704
0.053,0,0,0,0,0,0,0,0,0,0,0,0,0,0,0,0,159.401428,54.329128,93.203697,77.608658,-0.104986,15.533616,4.903683,16.535040,6.021535,17.474695,0,4.091191,3.354061,14.181332,6.366180,11.855603,7.921566,16.880653,7.663524,14.600016,7.789292,14.000061,8.184239,13.341054,8.851498,14.892540,10.364985,14.321492,10.491341,15.353803,0,0.00280,0.00071,0.00070,0.00097,0.00594,0.00104,0.00100,0.00062,0.00029,0.09945,3.27686
0.054,0,0,0,0,0,0,0,0,0,0,0,0,0,0,0,0,158.940689,54.205261,93.384277,78.154526,-0.075482,15.538836,4.903549,16.610874,6.015245,17.460068,0,4.106452,3.353445,14.173268,6.362302,11.863471,7.908238,16.991552,7.663805,14.589820,7.785619,13.989367,8.186510,13.335475,8.841928,14.888474,10.361051,14.338636,10.486366,15.370242,0,0.00280,0.00068,0.00069,0.00091,0.00491,0.00095,0.00099,0.00058,0.00000,0.09949,3.27670
0.055,0,0,0,0,0,0,0,0,0,0,0,0,0,0,0,0,158.479935,54.081394,93.564850,78.700386,-0.045977,15.544057,4.903414,16.686708,6.008954,17.445442,0,4.121713,3.352829,14.165205,6.358423,11.871339,7.894911,17.102451,7.664085,14.579623,7.781945,13.978675,8.188782,13.329897,8.832357,14.884409,10.357118,14.355781,10.481392,15.386682,0,0.00287,0.00068,0.00069,0.00085,0.00493,0.00091,0.00100,0.00058,0.00015,0.09938,3.27698
0.056,0,0,0,0,0,0,0,0,0,0,0,0,0,0,0,0,158.019196,53.957523,93.745430,79.246254,-0.016473,15.549277,4.903279,16.762543,6.002663,17.430815,0,4.136974,3.352212,14.157142,6.354544,11.879207,7.881583,17.213350,7.664366,14.569427,7.778272,13.967982,8.191052,13.324318,8.822788,14.880343,10.353185,14.372925,10.476418,15.403121,0,0.00295,0.00068,0.00067,0.00082,0.00492,0.00089,0.00105,0.00059,-0.00015,0.09910,3.27736
0.057,0,0,0,0,0,0,0,0,0,0,0,0,0,0,0,0,157.943771,53.769138,93.683266,79.642921,0.012740,15.558706,4.903337,16.825062,6.005419,17.419094,0,4.153182,3.351481,14.147883,6.351257,11.890044,7.879564,17.285561,7.664346,14.560366,7.779071,13.957408,8.196161,13.312171,8.814545,14.876167,10.349888,14.384224,10.470807,15.416735,0,0.00333,0.00068,0.00067,0.00084,0.00581,0.00091,0.00111,0.00058,-0.00012,0.09911,3.27719
0.058,0,0,0,0,0,0,0,0,0,0,0,0,0,0,0,0,157.959900,53.565422,93.563423,80.004135,0.041884,15.569136,4.903440,16.884415,6.010324,17.408062,0,4.169615,3.350722,14.138342,6.348110,11.901587,7.880232,17.348577,7.664255,14.551575,7.780933,13.946861,8.201945,13.298464,8.806618,14.871965,10.346743,14.394133,10.465044,15.429676,0,0.00353,0.00071,0.00066,0.00084,0.00598,0.00091,0.00104,0.00057,0.00027,0.09928,3.27689
0.059,0,0,0,0,0,0,0,0,0,0,0,0,0,0,0,0,157.976044,53.361706,93.443588,80.365349,0.071029,15.579565,4.903544,16.943768,6.015230,17.397030,0,4.186048,3.349962,14.128799,6.344963,11.913130,7.880900,17.411596,7.664163,14.542783,7.782795,13.936315,8.207729,13.284757,8.798690,14.867763,10.343597,14.404042,10.459282,15.442617,0,0.00324,0.00071,0.00064,0.00086,0.00513,0.00091,0.00102,0.00055,-0.00002,0.09919,3.27701
0.060,0,0,0,0,0,0,0,0,0,0,0,0,0,0,0,0,157.992188,53.157986,93.323746,80.726570,0.100173,15.589993,4.903647,17.003120,6.020135,17.385998,0,4.202480,3.349203,14.119257,6.341816,11.924673,7.881568,17.474613,7.664072,14.533991,7.784657,13.925768,8.213513,13.271049,8.790762,14.863560,10.340452,14.413952,10.453519,15.455559,0,0.00315,0.00072,0.00064,0.00085,0.00492,0.00088,0.00103,0.00055,0.00000,0.09884,3.27724
0.061,0,0,0,0,0,0,0,0,0,0,0,0,0,0,0,0,158.233215,52.986927,93.201416,81.131126,0.143855,15.598077,4.903794,17.059643,6.022269,17.377209,0,4.219744,3.349244,14.106041,6.329969,11.941529,7.880477,17.531839,7.661901,14.524923,7.787659,13.914320,8.220250,13.264159,8.783973,14.860628,10.335055,14.419255,10.449675,15.464523,0,0.00319,0.00073,0.00063,0.00084,0.00495,0.00088,0.00104,0.00055,0.00014,0.09877,3.27716
0.062,0,0,0,0,0,0,0,0,0,0,0,0,0,0,0,0,158.527679,52.823624,93.078491,81.545982,0.190993,15.605603,4.903952,17.115494,6.023745,17.368952,0,4.237204,3.349474,14.091952,6.316055,11.959647,7.878968,17.587690,7.659236,14.515790,7.790931,13.902658,8.227215,13.258888,8.777453,14.857999,10.329123,14.423463,10.446287,15.472544,0,0.00306,0.00073,0.00064,0.00087,0.00512,0.00088,0.00104,0.00055,0.00031,0.09887,3.27701
0.063,0,0,0,0,0,0,0,0,0,0,0,0,0,0,0,0,158.822144,52.660324,92.955574,81.960838,0.238130,15.613129,4.904110,17.171343,6.025220,17.360693,0,4.254664,3.349704,14.077863,6.302140,11.977766,7.877459,17.643539,7.656571,14.506657,7.794203,13.890996,8.234179,13.253618,8.770934,14.855370,10.323192,14.427671,10.442899,15.480564,0,0.00298,0.00072,0.00063,0.00084,0.00494,0.00087,0.00104,0.00054,0.00002,0.09874,3.27734
0.064,0,0,0,0,0,0,0,0,0,0,0,0,0,0,0,0,159.116623,52.497021,92.832649,82.375694,0.285267,15.620655,4.904267,17.227194,6.026696,17.352436,0,4.272125,3.349934,14.063774,6.288226,11.995884,7.875950,17.699390,7.653906,14.497524,7.797475,13.879334,8.241143,13.248347,8.764415,14.852740,10.317259,14.431880,10.439510,15.488585,0,0.00295,0.00070,0.00062,0.00085,0.00493,0.00087,0.00103,0.00054,0.00029,0.09826,3.27780
0.065,0,0,0,0,0,0,0,0,0,0,0,0,0,0,0,0,159.523926,52.205399,92.827576,82.929276,0.363657,15.625287,4.904323,17.274006,6.025704,17.342745,0,4.287968,3.350413,14.054653,6.277091,12.030092,7.877393,17.737036,7.653280,14.484776,7.802330,13.869658,8.245395,13.240993,8.758648,14.847466,10.312984,14.434450,10.438643,15.493217,0,0.00286,0.00070,0.00064,0.00083,0.00494,0.00084,0.00104,0.00054,0.00014,0.09813,3.27789
0.066,0,0,0,0,0,0,0,0,0,0,0,0,0,0,0,0,159.958054,51.883282,92.850502,83.515823,0.449473,15.629232,4.904354,17.318672,6.024127,17.332710,0,4.303428,3.350952,14.046713,6.266616,12.068124,7.879537,17.770353,7.653140,14.471170,7.807559,13.860452,8.249002,13.233142,8.753059,14.841562,10.309102,14.436632,10.438375,15.497043,0,0.00284,0.00071,0.00066,0.00081,0.00472,0.00084,0.00105,0.00053,0.00014,0.09829,3.27789
0.067,0,0,0,0,0,0,0,0,0,0,0,0,0,0,0,0,160.392166,51.561165,92.873428,84.102379,0.535289,15.633177,4.904385,17.363337,6.022549,17.322678,0,4.318887,3.351491,14.038773,6.256142,12.106155,7.881682,17.803673,7.652999,14.457564,7.812788,13.851246,8.252610,13.225291,8.747470,14.835659,10.305220,14.438813,10.438107,15.500869,0,0.00268,0.00070,0.00067,0.00084,0.00415,0.00081,0.00108,0.00053,0.00024,0.09819,3.27777
0.068,0,0,0,0,0,0,0,0,0,0,0,0,0,0,0,0,160.826294,51.239052,92.896355,84.688927,0.621104,15.637122,4.904416,17.408003,6.020971,17.312645,0,4.334347,3.352030,14.030832,6.245667,12.144186,7.883826,17.836990,7.652858,14.443958,7.818018,13.842040,8.256218,13.217441,8.741881,14.829756,10.301338,14.440995,10.437840,15.504695,0,0.00243,0.00070,0.00070,0.00088,0.00416,0.00081,0.00111,0.00053,-0.00015,0.09790,3.27762
0.069,0,0,0,0,0,0,0,0,0,0,0,0,0,0,0,0,160.596680,51.359299,92.917137,85.251328,0.746247,15.645193,4.904959,17.438347,6.021016,17.300522,0,4.349927,3.352122,14.020435,6.235442,12.199059,7.906134,17.882740,7.654035,14.430710,7.822894,13.831426,8.261665,13.207678,8.737157,14.824093,10.298983,14.446961,10.439899,15.510897,0,0.00243,0.00071,0.00069,0.00086,0.00424,0.00082,0.00110,0.00053,-0.00003,0.09785,3.27777
0.070,0,0,0,0,0,0,0,0,0,0,0,0,0,0,0,0,160.209366,51.584663,92.937401,85.807999,0.880735,15.654245,4.905624,17.465288,6.021447,17.287903,0,4.365536,3.352108,14.009456,6.225276,12.257932,7.933233,17.931444,7.655524,14.417546,7.827685,13.820477,8.267550,13.197460,8.732638,14.818486,10.296991,14.453828,10.442513,15.517662,0,0.00232,0.00072,0.00068,0.00082,0.00367,0.00078,0.00113,0.00053,-0.00012,0.09796,3.27800
0.071,0,0,0,0,0,0,0,0,0,0,0,0,0,0,0,0,159.822037,51.810028,92.957672,86.364662,1.015223,15.663297,4.906289,17.492228,6.021878,17.275284,0,4.381145,3.352094,13.998476,6.215109,12.316806,7.960331,17.980148,7.657014,14.404383,7.832477,13.809527,8.273436,13.187243,8.728120,14.812880,10.294999,14.460694,10.445127,15.524428,0,0.00223,0.00073,0.00066,0.00081,0.00365,0.00073,0.00119,0.00053,0.00017,0.09799,3.27756
0.072,0,0,0,0,0,0,0,0,0,0,0,0,0,0,0,0,159.434723,52.035393,92.977943,86.921326,1.149711,15.672349,4.906953,17.519169,6.022309,17.262665,0,4.396754,3.352080,13.987496,6.204943,12.375679,7.987430,18.028851,7.658504,14.391219,7.837269,13.798577,8.279321,13.177025,8.723601,14.807273,10.293008,14.467561,10.447740,15.531195,0,0.00215,0.00073,0.00067,0.00082,0.00363,0.00074,0.00131,0.00053,0.00017,0.09780,3.27695
0.073,0,0,0,0,0,0,0,0,0,0,0,0,0,0,0,0,158.781616,52.625435,92.994484,87.370392,1.313673,15.680016,4.908345,17.553469,6.021251,17.249857,0,4.412623,3.353008,13.972254,6.194844,12.432987,7.988305,18.041485,7.658101,14.375380,7.838717,13.779943,8.287105,13.169134,8.722553,14.804161,10.291286,14.473721,10.448757,15.536611,0,0.00218,0.00074,0.00066,0.00084,0.00398,0.00076,0.00135,0.00054,0.00014,0.09774,3.27695
0.074,0,0,0,0,0,0,0,0,0,0,0,0,0,0,0,0,158.065353,53.302128,93.010147,87.793892,1.484639,15.687354,4.909909,17.589518,6.019838,17.237003,0,4.428554,3.354159,13.955998,6.184762,12.489923,7.982948,18.045546,7.657249,14.358904,7.839370,13.759480,8.295341,13.161797,8.722330,14.801643,10.289627,14.479713,10.449396,15.541707,0,0.00226,0.00074,0.00068,0.00086,0.00419,0.00077,0.00133,0.00056,0.00015,0.09798,3.27710
0.075,0,0,0,0,0,0,0,0,0,0,0,0,0,0,0,0,157.349091,53.978825,93.025803,88.217392,1.655605,15.694693,4.911473,17.625566,6.018425,17.224150,0,4.444484,3.355310,13.939742,6.174680,12.546859,7.977591,18.049608,7.656396,14.342427,7.840024,13.739018,8.303576,13.154459,8.722107,14.799125,10.287970,14.485705,10.450035,15.546803,0,0.00227,0.00076,0.00068,0.00087,0.00415,0.00077,0.00131,0.00056,0.00002,0.09808,3.27725
0.076,0,0,0,0,0,0,0,0,0,0,0,0,0,0,0,0,156.632843,54.655521,93.041466,88.640892,1.826571,15.702031,4.913036,17.661615,6.017013,17.211296,0,4.460415,3.356462,13.923487,6.164598,12.603794,7.972234,18.053669,7.655544,14.325952,7.840677,13.718557,8.311811,13.147121,8.721884,14.796606,10.286311,14.491698,10.450673,15.551898,0,0.00220,0.00079,0.00067,0.00087,0.00410,0.00077,0.00128,0.00054,-0.00011,0.09783,3.27740
0.077,0,0,0,0,0,0,0,0,0,0,0,0,0,0,0,0,156.145477,55.174500,93.194534,89.111000,2.013127,15.712800,4.914967,17.698475,6.017607,17.203049,0,4.476223,3.357272,13.912202,6.153828,12.666310,7.988593,18.075191,7.654327,14.309731,7.844208,13.705402,8.324536,13.143136,8.722976,14.792183,10.289866,14.498740,10.454219,15.558138,0,0.00187,0.00079,0.00067,0.00084,0.00344,0.00077,0.00114,0.00055,-0.00012,0.09772,3.27707
0.078,0,0,0,0,0,0,0,0,0,0,0,0,0,0,0,0,155.712509,55.656006,93.380249,89.592178,2.203388,15.724385,4.916983,17.735525,6.018678,17.195896,0,4.492004,3.358001,13.902098,6.142894,12.730151,8.010111,18.100864,7.653023,14.293570,7.848423,13.693985,8.338327,13.139948,8.724380,14.787307,10.294661,14.506033,10.458454,15.564650,0,0.00179,0.00078,0.00070,0.00084,0.00270,0.00074,0.00108,0.00055,0.00018,0.09795,3.27661
0.079,0,0,0,0,0,0,0,0,0,0,0,0,0,0,0,0,155.279556,56.137508,93.565964,90.073357,2.393648,15.735970,4.919000,17.772577,6.019748,17.188744,0,4.507784,3.358730,13.891994,6.131960,12.793993,8.031629,18.126537,7.651720,14.277409,7.852639,13.682567,8.352119,13.136759,8.725784,14.782431,10.299455,14.513325,10.462689,15.571162,0,0.00210,0.00079,0.00071,0.00081,0.00258,0.00072,0.00113,0.00056,0.00003,0.09805,3.27695
0.080,0,0,0,0,0,0,0,0,0,0,0,0,0,0,0,0,154.846588,56.619011,93.751678,90.554535,2.583909,15.747556,4.921017,17.809628,6.020819,17.181591,0,4.523564,3.359459,13.881890,6.121027,12.857834,8.053147,18.152210,7.650415,14.261249,7.856854,13.671149,8.365911,13.133571,8.727189,14.777555,10.304249,14.520617,10.466925,15.577674,0,0.00234,0.00078,0.00073,0.00081,0.00274,0.00072,0.00126,0.00057,0.00043,0.09775,3.27748
0.081,0,0,0,0,0,0,0,0,0,0,0,0,0,0,0,0,154.535355,57.166023,94.027863,90.994125,2.775143,15.750399,4.923963,17.839067,6.020329,17.170490,0,4.538490,3.360121,13.869991,6.108077,12.900743,8.066503,18.192574,7.652624,14.249168,7.863544,13.651788,8.374038,13.124517,8.729114,14.770426,10.306740,14.527123,10.469626,15.582244,0,0.00232,0.00077,0.00073,0.00081,0.00270,0.00073,0.00129,0.00057,-0.00014,0.09782,3.27759
0.082,0,0,0,0,0,0,0,0,0,0,0,0,0,0,0,0,154.253067,57.728603,94.325546,91.423843,2.966608,15.751164,4.927130,17.866697,6.019469,17.158449,0,4.553213,3.360767,13.857666,6.094648,12.938678,8.077918,18.236427,7.655666,14.238058,7.870821,13.630539,8.380817,13.114070,8.731160,14.762760,10.308684,14.533443,10.471963,15.586352,0,0.00232,0.00077,0.00072,0.00077,0.00252,0.00071,0.00129,0.00057,0.00015,0.09822,3.27759
0.083,0,0,0,0,0,0,0,0,0,0,0,0,0,0,0,0,153.970764,58.291183,94.623222,91.853554,3.158072,15.751931,4.930296,17.894327,6.018608,17.146408,0,4.567936,3.361413,13.845341,6.081219,12.976613,8.089334,18.280281,7.658709,14.226949,7.878099,13.609289,8.387598,13.103623,8.733208,14.755095,10.310629,14.539762,10.474299,15.590462,0,0.00235,0.00074,0.00073,0.00075,0.00234,0.00072,0.00136,0.00058,0.00014,0.09825,3.27722
0.084,0,0,0,0,0,0,0,0,0,0,0,0,0,0,0,0,153.688461,58.853764,94.920906,92.283272,3.349538,15.752697,4.933463,17.921959,6.017747,17.134369,0,4.582659,3.362060,13.833014,6.067790,13.014548,8.100749,18.324135,7.661751,14.215838,7.885377,13.588040,8.394379,13.093176,8.735255,14.747430,10.312573,14.546082,10.476636,15.594570,0,0.00238,0.00074,0.00074,0.00073,0.00236,0.00073,0.00148,0.00058,0.00014,0.09806,3.27676
0.085,0,0,0,0,0,0,0,0,0,0,0,0,0,0,0,0,153.741608,59.364647,95.261375,92.777443,3.536740,15.757841,4.937203,17.949034,6.015207,17.125309,0,4.595796,3.362341,13.819905,6.061967,13.042697,8.108502,18.348722,7.661754,14.198603,7.896347,13.563285,8.400684,13.085776,8.738217,14.741175,10.317548,14.550829,10.480644,15.597737,0,0.00237,0.00074,0.00071,0.00074,0.00241,0.00076,0.00156,0.00059,0.00017,0.09840,3.27698
0.086,0,0,0,0,0,0,0,0,0,0,0,0,0,0,0,0,153.874451,59.863243,95.612022,93.286926,3.722930,15.764026,4.941080,17.975977,6.012268,17.116957,0,4.608557,3.362537,13.806608,6.057951,13.068521,8.115385,18.368731,7.661035,14.179912,7.908195,13.537696,8.406878,13.079101,8.741398,14.735254,10.323243,14.555202,10.485051,15.600681,0,0.00240,0.00073,0.00071,0.00074,0.00235,0.00077,0.00154,0.00059,-0.00014,0.09861,3.27736
0.087,0,0,0,0,0,0,0,0,0,0,0,0,0,0,0,0,154.007294,60.361839,95.962662,93.796417,3.909120,15.770211,4.944956,18.002920,6.009328,17.108604,0,4.621318,3.362732,13.793312,6.053936,13.094344,8.122268,18.388741,7.660315,14.161221,7.920043,13.512107,8.413071,13.072425,8.744577,14.729334,10.328938,14.559574,10.489457,15.603625,0,0.00244,0.00071,0.00071,0.00067,0.00233,0.00079,0.00149,0.00057,0.00002,0.09853,3.27762
0.088,0,0,0,0,0,0,0,0,0,0,0,0,0,0,0,0,154.140137,60.860435,96.313309,94.305901,4.095310,15.776396,4.948832,18.029863,6.006389,17.100254,0,4.634079,3.362927,13.780016,6.049920,13.120168,8.129150,18.408749,7.659596,14.142529,7.931890,13.486518,8.419264,13.065749,8.747758,14.723413,10.334633,14.563948,10.493864,15.606568,0,0.00244,0.00070,0.00067,0.00062,0.00226,0.00079,0.00144,0.00057,0.00026,0.09850,3.27785
0.089,0,0,0,0,0,0,0,0,0,0,0,0,0,0,0,0,154.451019,60.900745,96.505600,94.853409,4.274902,15.780027,4.953091,18.050838,6.008389,17.088058,0,4.646014,3.363130,13.772070,6.050825,13.140631,8.133650,18.441090,7.657145,14.127621,7.938635,13.472831,8.424376,13.059561,8.750176,14.718169,10.338403,14.572401,10.500295,15.616351,0,0.00239,0.00069,0.00068,0.00061,0.00216,0.00078,0.00143,0.00057,0.00015,0.09870,3.27734
0.090,0,0,0,0,0,0,0,0,0,0,0,0,0,0,0,0,154.804214,60.832157,96.660263,95.409943,4.452927,15.783052,4.957440,18.070396,6.011562,17.074951,0,4.657753,3.363335,13.765394,6.052899,13.159820,8.137582,18.476360,7.654282,14.113611,7.944167,13.461973,8.429232,13.053488,8.752414,14.713085,10.341715,14.581824,10.507206,15.627759,0,0.00241,0.00067,0.00067,0.00062,0.00214,0.00078,0.00141,0.00057,0.00002,0.09893,3.27666
0.091,0,0,0,0,0,0,0,0,0,0,0,0,0,0,0,0,155.157394,60.763565,96.814926,95.966476,4.630950,15.786077,4.961789,18.089954,6.014736,17.061844,0,4.669492,3.363539,13.758719,6.054974,13.179008,8.141515,18.511631,7.651420,14.099602,7.949698,13.451115,8.434087,13.047415,8.754651,14.708002,10.345026,14.591249,10.514117,15.639167,0,0.00261,0.00066,0.00068,0.00060,0.00213,0.00079,0.00138,0.00057,0.00015,0.09885,3.27658
0.092,0,0,0,0,0,0,0,0,0,0,0,0,0,0,0,0,155.510590,60.694977,96.969597,96.523010,4.808975,15.789103,4.966138,18.109512,6.017909,17.048737,0,4.681231,3.363744,13.752045,6.057048,13.198197,8.145447,18.546902,7.648557,14.085592,7.955230,13.440256,8.438942,13.041343,8.756889,14.702918,10.348338,14.600672,10.521029,15.650575,0,0.00276,0.00067,0.00066,0.00063,0.00206,0.00081,0.00129,0.00056,0.00015,0.09889,3.27666
0.093,0,0,0,0,0,0,0,0,0,0,0,0,0,0,0,0,155.481247,60.652973,96.825287,96.928345,4.981180,15.792446,4.971183,18.134171,6.018700,17.036089,0,4.692001,3.364248,13.743154,6.052829,13.215466,8.144966,18.585428,7.652619,14.073350,7.962653,13.436386,8.454423,13.034207,8.758909,14.698710,10.351468,14.608995,10.524323,15.657832,0,0.00280,0.00064,0.00067,0.00063,0.00178,0.00080,0.00121,0.00056,0.00014,0.09917,3.27667
0.094,0,0,0,0,0,0,0,0,0,0,0,0,0,0,0,0,155.361023,60.617283,96.609932,97.297752,5.152001,15.795866,4.976394,18.160038,6.018924,17.023550,0,4.702541,3.364823,13.733736,6.047115,13.232277,8.143436,18.624729,7.658328,14.061528,7.970524,13.434177,8.472428,13.026819,8.760879,14.694711,10.354554,14.617058,10.526758,15.664103,0,0.00273,0.00067,0.00068,0.00063,0.00152,0.00079,0.00128,0.00055,0.00015,0.09934,3.27667
0.095,0,0,0,0,0,0,0,0,0,0,0,0,0,0,0,0,155.240784,60.581593,96.394585,97.667160,5.322824,15.799285,4.981604,18.185905,6.019148,17.011011,0,4.713081,3.365398,13.724319,6.041400,13.249088,8.141907,18.664028,7.664036,14.049706,7.978396,13.431969,8.490434,13.019431,8.762848,14.690711,10.357640,14.625120,10.529194,15.670373,0,0.00269,0.00066,0.00067,0.00065,0.00153,0.00079,0.00131,0.00055,-0.00011,0.09913,3.27704
0.096,0,0,0,0,0,0,0,0,0,0,0,0,0,0,0,0,155.120560,60.545902,96.179230,98.036568,5.493646,15.802705,4.986814,18.211775,6.019372,16.998470,0,4.723621,3.365973,13.714902,6.035686,13.265900,8.140377,18.703329,7.669744,14.037883,7.986268,13.429760,8.508439,13.012043,8.764817,14.686711,10.360727,14.633183,10.531629,15.676643,0,0.00267,0.00062,0.00067,0.00065,0.00165,0.00080,0.00139,0.00056,-0.00014,0.09926,3.27750
0.097,0,0,0,0,0,0,0,0,0,0,0,0,0,0,0,0,154.364410,60.994949,96.032616,98.309982,5.654438,15.807293,4.992764,18.238880,6.021148,16.986891,0,4.734004,3.366523,13.704191,6.027779,13.286983,8.142707,18.740370,7.670989,14.031711,7.993349,13.421466,8.526320,13.006303,8.766152,14.685678,10.362714,14.640532,10.533975,15.681664,0,0.00264,0.00062,0.00067,0.00067,0.00166,0.00082,0.00136,0.00057,0.00027,0.09951,3.27765
0.098,0,0,0,0,0,0,0,0,0,0,0,0,0,0,0,0,153.457169,61.559177,95.902336,98.560600,5.812848,15.812160,4.998889,18.266279,6.023293,16.975540,0,4.744349,3.367067,13.693172,6.019351,13.309081,8.145955,18.776873,7.671173,14.026880,8.000241,13.411725,8.544172,13.000954,8.767337,14.685349,10.364439,14.647715,10.536300,15.686387,0,0.00247,0.00063,0.00069,0.00072,0.00162,0.00082,0.00134,0.00056,0.00015,0.09941,3.27773
0.099,0,0,0,0,0,0,0,0,0,0,0,0,0,0,0,0,152.549911,62.123405,95.772057,98.811211,5.971257,15.817026,5.005014,18.293678,6.025438,16.964190,0,4.754694,3.367610,13.682155,6.010922,13.331179,8.149202,18.813375,7.671357,14.022051,8.007134,13.401985,8.562024,12.995605,8.768522,14.685019,10.366164,14.654896,10.538626,15.691112,0,0.00223,0.00062,0.00070,0.00074,0.00174,0.00085,0.00131,0.00057,0.00012,0.09927,3.27762
0.100,0,0,0,0,0,0,0,0,0,0,0,0,0,0,0,0,151.642670,62.687634,95.641777,99.061821,6.129666,15.821893,5.011139,18.321077,6.027582,16.952839,0,4.765040,3.368154,13.671136,6.002494,13.353276,8.152450,18.849878,7.671541,14.017220,8.014028,13.392245,8.579876,12.990255,8.769707,14.684690,10.367890,14.662077,10.540951,15.695835,0,0.00213,0.00063,0.00069,0.00076,0.00200,0.00091,0.00119,0.00056,0.00002,0.09956,3.27747
0.101,0,0,0,0,0,0,0,0,0,0,0,0,0,0,0,0,150.895630,63.154644,95.642738,99.342140,6.271271,15.826862,5.017381,18.336493,6.030523,16.935617,0,4.774811,3.368953,13.656713,5.995065,13.372814,8.158754,18.862303,7.672643,14.005560,8.009058,13.387716,8.588276,12.990990,8.771492,14.684489,10.368897,14.667377,10.542490,15.703378,0,0.00214,0.00064,0.00068,0.00083,0.00228,0.00092,0.00117,0.00057,0.00015,0.09968,3.27713
0.102,0,0,0,0,0,0,0,0,0,0,0,0,0,0,0,0,150.186661,63.598553,95.674881,99.629517,6.408883,15.831857,5.023650,18.349060,6.033653,16.917002,0,4.784444,3.369812,13.641480,5.987873,13.391745,8.165786,18.869005,7.673963,13.992276,8.001269,13.384425,8.594430,12.993171,8.773419,14.684318,10.369734,14.672230,10.543843,15.711591,0,0.00230,0.00062,0.00069,0.00091,0.00232,0.00093,0.00117,0.00057,0.00002,0.09933,3.27675
0.103,0,0,0,0,0,0,0,0,0,0,0,0,0,0,0,0,149.477707,64.042465,95.707031,99.916901,6.546495,15.836851,5.029920,18.361629,6.036783,16.898386,0,4.794078,3.370671,13.626248,5.980681,13.410674,8.172817,18.875708,7.675282,13.978992,7.993480,13.381134,8.600583,12.995351,8.775346,14.684146,10.370570,14.677083,10.545196,15.719804,0,0.00232,0.00064,0.00068,0.00095,0.00233,0.00093,0.00111,0.00058,0.00044,0.09950,3.27704
0.104,0,0,0,0,0,0,0,0,0,0,0,0,0,0,0,0,148.768738,64.486374,95.739174,100.204277,6.684108,15.841846,5.036190,18.374197,6.039913,16.879770,0,4.803712,3.371530,13.611016,5.973489,13.429605,8.179849,18.882410,7.676602,13.965708,7.985691,13.377844,8.606737,12.997532,8.777273,14.683975,10.371408,14.681935,10.546549,15.728017,0,0.00243,0.00064,0.00069,0.00096,0.00233,0.00093,0.00100,0.00057,0.00000,0.09981,3.27750
0.105,0,0,0,0,0,0,0,0,0,0,0,0,0,0,0,0,148.043945,64.975769,95.777077,100.420280,6.796608,15.846912,5.043209,18.396261,6.040846,16.864803,0,4.813340,3.372470,13.594909,5.973989,13.453387,8.185712,18.897018,7.675816,13.960725,7.984559,13.375328,8.617058,12.994867,8.780469,14.683058,10.374002,14.688481,10.550444,15.732673,0,0.00258,0.00065,0.00070,0.00098,0.00255,0.00091,0.00095,0.00056,0.00015,0.09963,3.27765
0.106,0,0,0,0,0,0,0,0,0,0,0,0,0,0,0,0,147.315399,65.475967,95.816353,100.619331,6.903141,15.851997,5.050406,18.420580,6.041257,16.850706,0,4.822966,3.373428,13.578593,5.976316,13.478323,8.191298,18.913504,7.674530,13.957715,7.985008,13.372997,8.628368,12.991051,8.783965,14.681965,10.377013,14.695430,10.554943,15.736485,0,0.00266,0.00065,0.00070,0.00097,0.00281,0.00093,0.00094,0.00057,0.00002,0.09941,3.27773
0.107,0,0,0,0,0,0,0,0,0,0,0,0,0,0,0,0,146.586853,65.976173,95.855621,100.818375,7.009675,15.857082,5.057603,18.444901,6.041668,16.836607,0,4.832592,3.374387,13.562278,5.978644,13.503259,8.196882,18.929991,7.673243,13.954704,7.985458,13.370667,8.639679,12.987235,8.787462,14.680871,10.380025,14.702377,10.559442,15.740296,0,0.00258,0.00067,0.00069,0.00099,0.00297,0.00096,0.00094,0.00058,0.00015,0.09954,3.27805
0.108,0,0,0,0,0,0,0,0,0,0,0,0,0,0,0,0,145.858292,66.476379,95.894897,101.017426,7.116209,15.862166,5.064800,18.469221,6.042079,16.822508,0,4.842218,3.375346,13.545963,5.980971,13.528194,8.202468,18.946476,7.671956,13.951694,7.985907,13.368336,8.650990,12.983418,8.790959,14.679777,10.383038,14.709326,10.563941,15.744108,0,0.00267,0.00066,0.00070,0.00097,0.00303,0.00095,0.00093,0.00057,0.00015,0.09957,3.27843
0.109,0,0,0,0,0,0,0,0,0,0,0,0,0,0,0,0,144.652802,67.198067,95.816498,101.143349,7.188496,15.862070,5.072300,18.480925,6.039834,16.815174,0,4.851526,3.376366,13.533381,5.981654,13.549036,8.204430,18.955074,7.671933,13.942680,7.982527,13.360168,8.656584,12.983437,8.794207,14.679493,10.386690,14.712654,10.566353,15.745992,0,0.00271,0.00068,0.00070,0.00102,0.00305,0.00094,0.00092,0.00057,0.00027,0.09940,3.27808
0.110,0,0,0,0,0,0,0,0,0,0,0,0,0,0,0,0,143.333969,67.972389,95.710136,101.251892,7.252645,15.860743,5.079874,18.489632,6.036959,16.809446,0,4.860757,3.377402,13.521688,5.981946,13.568905,8.205531,18.961796,7.672211,13.932240,7.978237,13.350614,8.660819,12.984366,8.797395,14.679400,10.390494,14.715122,10.568270,15.747416,0,0.00268,0.00072,0.00071,0.00106,0.00316,0.00096,0.00093,0.00057,0.00002,0.09927,3.27754
0.111,0,0,0,0,0,0,0,0,0,0,0,0,0,0,0,0,142.015137,68.746704,95.603775,101.360435,7.316795,15.859415,5.087446,18.498337,6.034084,16.803720,0,4.869989,3.378437,13.509994,5.982238,13.588774,8.206633,18.968517,7.672488,13.921802,7.973947,13.341059,8.665054,12.985295,8.800582,14.679308,10.394300,14.717590,10.570186,15.748842,0,0.00259,0.00073,0.00073,0.00109,0.00317,0.00098,0.00094,0.00057,0.00000,0.09939,3.27750
0.112,0,0,0,0,0,0,0,0,0,0,0,0,0,0,0,0,140.696320,69.521027,95.497414,101.468979,7.380944,15.858087,5.095019,18.507044,6.031209,16.797993,0,4.879220,3.379472,13.498299,5.982530,13.608643,8.207733,18.975239,7.672765,13.911362,7.969656,13.331504,8.669290,12.986225,8.803770,14.679216,10.398104,14.720058,10.572102,15.750267,0,0.00242,0.00073,0.00075,0.00108,0.00320,0.00100,0.00092,0.00058,0.00017,0.09946,3.27757
0.113,0,0,0,0,0,0,0,0,0,0,0,0,0,0,0,0,139.333755,70.173119,95.312645,101.523163,7.406110,15.860592,5.102550,18.515289,6.032617,16.785173,0,4.887762,3.381427,13.487691,5.986701,13.617534,8.208932,18.972996,7.673254,13.903298,7.966535,13.322001,8.681090,12.984857,8.806138,14.680400,10.400746,14.724450,10.575686,15.753561,0,0.00233,0.00074,0.00074,0.00105,0.00306,0.00101,0.00093,0.00059,0.00002,0.09924,3.27716
0.114,0,0,0,0,0,0,0,0,0,0,0,0,0,0,0,0,137.960785,70.796173,95.109245,101.564430,7.422012,15.864008,5.110070,18.523426,6.035043,16.770670,0,4.896138,3.383599,13.477342,5.991794,13.623817,8.210154,18.968624,7.673792,13.895800,7.963692,13.312512,8.694688,12.982943,8.808311,14.681887,10.403113,14.729299,10.579667,15.757298,0,0.00241,0.00073,0.00072,0.00106,0.00343,0.00105,0.00090,0.00059,0.00029,0.09909,3.27663
0.115,0,0,0,0,0,0,0,0,0,0,0,0,0,0,0,0,136.587830,71.419228,94.905846,101.605690,7.437914,15.867424,5.117589,18.531563,6.037469,16.756165,0,4.904515,3.385772,13.466991,5.996887,13.630100,8.211376,18.964251,7.674331,13.888301,7.960848,13.303023,8.708286,12.981029,8.810484,14.683373,10.405480,14.734147,10.583648,15.761037,0,0.00258,0.00074,0.00073,0.00107,0.00362,0.00105,0.00087,0.00060,0.00027,0.09936,3.27664
0.116,0,0,0,0,0,0,0,0,0,0,0,0,0,0,0,0,135.214874,72.042274,94.702454,101.646957,7.453816,15.870840,5.125110,18.539700,6.039896,16.741659,0,4.912892,3.387944,13.456642,6.001979,13.636383,8.212598,18.959877,7.674870,13.880802,7.958004,13.293534,8.721884,12.979114,8.812657,14.684861,10.407847,14.738996,10.587629,15.764774,0,0.00269,0.00078,0.00073,0.00106,0.00352,0.00107,0.00079,0.00059,0.00002,0.09947,3.27679
0.117,0,0,0,0,0,0,0,0,0,0,0,0,0,0,0,0,134.027405,72.622566,94.611061,101.601936,7.426923,15.869686,5.132715,18.545691,6.038213,16.730492,0,4.921748,3.390009,13.448447,6.007040,13.641717,8.214883,18.963188,7.674632,13.879333,7.950861,13.289661,8.728407,12.982072,8.815615,14.687696,10.409827,14.740592,10.589556,15.768662,0,0.00270,0.00079,0.00073,0.00107,0.00341,0.00107,0.00077,0.00058,-0.00014,0.09920,3.27701
0.118,0,0,0,0,0,0,0,0,0,0,0,0,0,0,0,0,132.884033,73.192688,94.546280,101.536407,7.389862,15.867445,5.140341,18.551170,6.035554,16.720116,0,4.930717,3.392049,13.440764,6.012093,13.646826,8.217421,18.968325,7.674210,13.879297,7.942695,13.287123,8.733250,12.986188,8.818760,14.690852,10.411716,14.741417,10.590994,15.772586,0,0.00269,0.00080,0.00071,0.00104,0.00335,0.00110,0.00079,0.00057,-0.00014,0.09930,3.27724
0.119,0,0,0,0,0,0,0,0,0,0,0,0,0,0,0,0,131.740646,73.762817,94.481506,101.470886,7.352800,15.865205,5.147966,18.556650,6.032896,16.709740,0,4.939685,3.394089,13.433082,6.017145,13.651934,8.219957,18.973463,7.673789,13.879262,7.934529,13.284584,8.738091,12.990304,8.821904,14.694008,10.413606,14.742241,10.592433,15.776508,0,0.00259,0.00086,0.00069,0.00103,0.00322,0.00113,0.00078,0.00056,0.00031,0.09952,3.27765
0.120,0,0,0,0,0,0,0,0,0,0,0,0,0,0,0,0,130.597260,74.332939,94.416725,101.405365,7.315738,15.862964,5.155592,18.562130,6.030237,16.699364,0,4.948655,3.396129,13.425399,6.022198,13.657043,8.222495,18.978600,7.673367,13.879226,7.926363,13.282045,8.742933,12.994419,8.825049,14.697165,10.415495,14.743065,10.593871,15.780432,0,0.00241,0.00087,0.00068,0.00108,0.00326,0.00110,0.00076,0.00056,0.00014,0.09945,3.27811
0.121,0,0,0,0,0,0,0,0,0,0,0,0,0,0,0,0,129.638855,74.891159,94.419495,101.360153,7.246425,15.864785,5.163136,18.579258,6.032766,16.690832,0,4.957304,3.398313,13.418842,6.032923,13.670216,8.223206,18.985432,7.674279,13.869638,7.919714,13.279373,8.748698,12.996823,8.828886,14.699544,10.419446,14.746696,10.596586,15.784162,0,0.00232,0.00086,0.00070,0.00105,0.00315,0.00110,0.00075,0.00055,-0.00015,0.09910,3.27789
0.122,0,0,0,0,0,0,0,0,0,0,0,0,0,0,0,0,128.724396,75.446548,94.438316,101.319771,7.169448,15.867571,5.170662,18.599152,6.036527,16.682735,0,4.965877,3.400532,13.412554,6.044995,13.685305,8.223481,18.992668,7.675509,13.857781,7.913426,13.276669,8.754682,12.998820,8.832887,14.701739,10.423887,14.750996,10.599604,15.787845,0,0.00217,0.00087,0.00070,0.00099,0.00314,0.00109,0.00072,0.00056,-0.00014,0.09920,3.27751
0.123,0,0,0,0,0,0,0,0,0,0,0,0,0,0,0,0,127.809944,76.001938,94.457138,101.279388,7.092471,15.870358,5.178187,18.619045,6.040288,16.674641,0,4.974449,3.402750,13.406264,6.057067,13.700395,8.223757,18.999903,7.676739,13.845924,7.907137,13.273964,8.760666,13.000818,8.836887,14.703934,10.428329,14.755295,10.602622,15.791529,0,0.00214,0.00085,0.00071,0.00096,0.00317,0.00111,0.00073,0.00055,0.00003,0.09939,3.27737
0.124,0,0,0,0,0,0,0,0,0,0,0,0,0,0,0,0,126.895485,76.557327,94.475952,101.238998,7.015494,15.873143,5.185712,18.638939,6.044050,16.666546,0,4.983022,3.404968,13.399976,6.069140,13.715484,8.224032,19.007139,7.677969,13.834067,7.900848,13.271259,8.766649,13.002815,8.840888,14.706129,10.432770,14.759594,10.605639,15.795212,0,0.00204,0.00084,0.00071,0.00094,0.00355,0.00117,0.00071,0.00055,0.00015,0.09915,3.27730
0.125,0,0,0,0,0,0,0,0,0,0,0,0,0,0,0,0,126.682518,77.130768,94.640564,101.192963,6.925443,15.873587,5.192532,18.647987,6.046481,16.658142,0,4.991405,3.407618,13.386875,6.072798,13.734065,8.221493,19.007626,7.678493,13.823273,7.895984,13.265692,8.772132,13.005027,8.845145,14.706322,10.436462,14.761535,10.607452,15.800620,0,0.00183,0.00081,0.00070,0.00093,0.00341,0.00119,0.00065,0.00055,0.00003,0.09899,3.27728
0.126,0,0,0,0,0,0,0,0,0,0,0,0,0,0,0,0,126.636238,77.708496,94.839806,101.145576,6.832286,15.873474,5.199184,18.654457,6.048595,16.649664,0,4.999741,3.410370,13.372155,6.074457,13.753476,8.218284,19.006508,7.678849,13.812730,7.891458,13.259445,8.777495,13.007289,8.849463,14.706038,10.439978,14.762916,10.608978,15.806437,0,0.00171,0.00083,0.00071,0.00094,0.00316,0.00119,0.00066,0.00054,0.00003,0.09918,3.27728
0.127,0,0,0,0,0,0,0,0,0,0,0,0,0,0,0,0,126.589958,78.286232,95.039055,101.098190,6.739129,15.873361,5.205836,18.660927,6.050710,16.641186,0,5.008078,3.413122,13.357436,6.076117,13.772888,8.215075,19.005392,7.679205,13.802187,7.886931,13.253198,8.782858,13.009551,8.853782,14.705755,10.443493,14.764297,10.610505,15.812255,0,0.00175,0.00085,0.00071,0.00091,0.00295,0.00114,0.00068,0.00053,0.00027,0.09925,3.27722
0.128,0,0,0,0,0,0,0,0,0,0,0,0,0,0,0,0,126.543686,78.863960,95.238304,101.050804,6.645972,15.873248,5.212488,18.667398,6.052825,16.632708,0,5.016415,3.415875,13.342716,6.077775,13.792299,8.211865,19.004274,7.679562,13.791644,7.882405,13.246951,8.788221,13.011814,8.858101,14.705472,10.447007,14.765677,10.612031,15.818072,0,0.00162,0.00084,0.00071,0.00093,0.00290,0.00117,0.00068,0.00052,0.00003,0.09903,3.27715
0.129,0,0,0,0,0,0,0,0,0,0,0,0,0,0,0,0,126.627319,79.393188,95.391441,101.124573,6.553540,15.878568,5.218883,18.671396,6.056039,16.622257,0,5.024060,3.418441,13.332546,6.079761,13.801602,8.208681,19.009361,7.677315,13.778190,7.887784,13.237920,8.786815,13.010170,8.862758,14.705397,10.451665,14.768435,10.614588,15.822776,0,0.00159,0.00084,0.00072,0.00094,0.00287,0.00117,0.00071,0.00053,0.00002,0.09922,3.27695
0.130,0,0,0,0,0,0,0,0,0,0,0,0,0,0,0,0,126.741821,79.910896,95.533630,101.227119,6.461279,15.885178,5.225217,18.674805,6.059515,16.611340,0,5.031541,3.420964,13.323457,6.081823,13.808504,8.205503,19.015919,7.674450,13.764043,7.895516,13.228228,8.783799,13.007598,8.867495,14.705371,10.456593,14.771519,10.617391,15.827215,0,0.00161,0.00081,0.00071,0.00090,0.00276,0.00116,0.00074,0.00053,0.00017,0.09946,3.27672
0.131,0,0,0,0,0,0,0,0,0,0,0,0,0,0,0,0,126.856323,80.428604,95.675812,101.329674,6.369019,15.891788,5.231551,18.678215,6.062990,16.600420,0,5.039022,3.423487,13.314368,6.083886,13.815406,8.202325,19.022478,7.671585,13.749897,7.903249,13.218535,8.780784,13.005026,8.872231,14.705344,10.461521,14.774603,10.620193,15.831655,0,0.00153,0.00082,0.00069,0.00087,0.00271,0.00112,0.00073,0.00052,0.00043,0.09943,3.27692
0.132,0,0,0,0,0,0,0,0,0,0,0,0,0,0,0,0,126.970825,80.946312,95.818001,101.432220,6.276758,15.898398,5.237885,18.681625,6.066466,16.589500,0,5.046504,3.426009,13.305279,6.085949,13.822308,8.199147,19.029037,7.668720,13.735751,7.910982,13.208842,8.777768,13.002454,8.876968,14.705318,10.466450,14.777687,10.622995,15.836093,0,0.00151,0.00082,0.00069,0.00088,0.00265,0.00112,0.00072,0.00053,0.00027,0.09940,3.27722
0.133,0,0,0,0,0,0,0,0,0,0,0,0,0,0,0,0,126.827209,81.452415,95.814934,101.539322,6.194320,15.902471,5.243979,18.688101,6.062776,16.578735,0,5.052992,3.428139,13.292466,6.091941,13.848395,8.196612,19.033224,7.671709,13.722418,7.914329,13.201452,8.785670,13.004070,8.881408,14.707256,10.470728,14.782957,10.628163,15.840644,0,0.00152,0.00083,0.00071,0.00087,0.00276,0.00110,0.00071,0.00052,0.00014,0.09959,3.27747
0.134,0,0,0,0,0,0,0,0,0,0,0,0,0,0,0,0,126.622253,81.955772,95.777359,101.647507,6.114217,15.905940,5.250017,18.695305,6.057384,16.568007,0,5.059246,3.430176,13.278769,6.098866,13.879043,8.194231,19.036850,7.676088,13.709277,7.916634,13.194608,8.796166,13.006681,8.885777,14.709661,10.474851,14.788746,10.633895,15.845222,0,0.00141,0.00084,0.00072,0.00084,0.00271,0.00110,0.00069,0.00053,0.00014,0.09978,3.27769
0.135,0,0,0,0,0,0,0,0,0,0,0,0,0,0,0,0,126.417297,82.459122,95.739777,101.755692,6.034113,15.909409,5.256055,18.702509,6.051992,16.557278,0,5.065498,3.432213,13.265073,6.105791,13.909689,8.191850,19.040474,7.680467,13.696136,7.918940,13.187764,8.806664,13.009294,8.890144,14.712065,10.478974,14.794536,10.639626,15.849799,0,0.00123,0.00085,0.00075,0.00081,0.00317,0.00115,0.00069,0.00053,0.00012,0.09969,3.27737
0.136,0,0,0,0,0,0,0,0,0,0,0,0,0,0,0,0,126.212341,82.962479,95.702202,101.863869,5.954009,15.912878,5.262093,18.709713,6.046600,16.546549,0,5.071752,3.434249,13.251376,6.112717,13.940335,8.189467,19.044098,7.684846,13.682996,7.921245,13.180921,8.817160,13.011905,8.894513,14.714469,10.483098,14.800324,10.645356,15.854377,0,0.00120,0.00080,0.00076,0.00084,0.00350,0.00115,0.00070,0.00056,0.00017,0.09975,3.27692
0.137,0,0,0,0,0,0,0,0,0,0,0,0,0,0,0,0,125.720856,83.637962,95.469742,101.794731,5.883557,15.913960,5.267961,18.717472,6.043385,16.530678,0,5.076624,3.436224,13.244179,6.116968,13.968785,8.189626,19.056583,7.683627,13.673780,7.925297,13.174185,8.821966,13.013996,8.898262,14.719992,10.487266,14.806737,10.649278,15.857987,0,0.00119,0.00080,0.00078,0.00082,0.00353,0.00113,0.00072,0.00055,-0.00014,0.10003,3.27725
0.138,0,0,0,0,0,0,0,0,0,0,0,0,0,0,0,0,125.161285,84.354355,95.190971,101.683456,5.815400,15.914477,5.273788,18.725365,6.040687,16.513584,0,5.081169,3.438183,13.238526,6.120584,13.996714,8.190386,19.071177,7.681076,13.665498,7.929765,13.167476,8.825421,13.015965,8.901864,14.726254,10.491444,14.813297,10.652768,15.861368,0,0.00127,0.00079,0.00081,0.00080,0.00352,0.00110,0.00071,0.00056,-0.00011,0.10004,3.27779
0.139,0,0,0,0,0,0,0,0,0,0,0,0,0,0,0,0,124.601707,85.070747,94.912201,101.572182,5.747242,15.914993,5.279616,18.733257,6.037989,16.496490,0,5.085713,3.440142,13.232875,6.124200,14.024642,8.191147,19.085768,7.678526,13.657216,7.934234,13.160766,8.828876,13.017932,8.905466,14.732518,10.495623,14.819858,10.656260,15.864749,0,0.00131,0.00073,0.00085,0.00080,0.00352,0.00106,0.00072,0.00057,0.00017,0.09992,3.27765
0.140,0,0,0,0,0,0,0,0,0,0,0,0,0,0,0,0,124.042137,85.787132,94.633430,101.460907,5.679084,15.915509,5.285443,18.741150,6.035290,16.479397,0,5.090258,3.442101,13.227222,6.127816,14.052570,8.191908,19.100359,7.675976,13.648933,7.938702,13.154057,8.832332,13.019900,8.909068,14.738782,10.499801,14.826418,10.659750,15.868129,0,0.00127,0.00073,0.00084,0.00075,0.00301,0.00101,0.00072,0.00058,0.00002,0.10020,3.27734
0.141,0,0,0,0,0,0,0,0,0,0,0,0,0,0,0,0,123.264366,86.444771,94.218491,101.316673,5.608293,15.919275,5.291014,18.750250,6.035682,16.470289,0,5.093902,3.444164,13.222035,6.131914,14.076861,8.194499,19.112015,7.676233,13.637433,7.939320,13.145228,8.845508,13.028488,8.911782,14.746243,10.503146,14.830901,10.661666,15.871901,0,0.00127,0.00071,0.00084,0.00067,0.00278,0.00099,0.00070,0.00057,0.00032,0.10043,3.27704
0.142,0,0,0,0,0,0,0,0,0,0,0,0,0,0,0,0,122.434746,87.088448,93.771187,101.164604,5.536877,15.923814,5.296523,18.759638,6.036807,16.463079,0,5.097331,3.446251,13.216958,6.136126,14.100288,8.197526,19.122972,7.677157,13.625168,7.939023,13.135897,8.860992,13.038651,8.914286,14.753987,10.506293,14.834891,10.663206,15.875765,0,0.00126,0.00072,0.00085,0.00064,0.00270,0.00099,0.00071,0.00057,0.00000,0.10023,3.27673
0.143,0,0,0,0,0,0,0,0,0,0,0,0,0,0,0,0,121.605118,87.732124,93.323883,101.012543,5.465461,15.928352,5.302032,18.769028,6.037933,16.455870,0,5.100761,3.448339,13.211882,6.140338,14.123714,8.200552,19.133930,7.678082,13.612903,7.938726,13.126565,8.876477,13.048812,8.916790,14.761732,10.509440,14.838881,10.664747,15.879629,0,0.00122,0.00082,0.00088,0.00063,0.00268,0.00098,0.00073,0.00058,0.00015,0.10030,3.27649
0.144,0,0,0,0,0,0,0,0,0,0,0,0,0,0,0,0,120.775497,88.375801,92.876579,100.860474,5.394044,15.932891,5.307540,18.778416,6.039058,16.448660,0,5.104190,3.450426,13.206804,6.144550,14.147141,8.203579,19.144888,7.679007,13.600637,7.938430,13.117234,8.891962,13.058973,8.919293,14.769478,10.512588,14.842872,10.666288,15.883493,0,0.00129,0.00088,0.00090,0.00063,0.00230,0.00095,0.00078,0.00059,-0.00012,0.10054,3.27626
0.145,0,0,0,0,0,0,0,0,0,0,0,0,0,0,0,0,120.142632,89.267792,92.654747,100.771080,5.312318,15.938143,5.312904,18.783192,6.040870,16.441904,0,5.107125,3.452782,13.198545,6.147169,14.166741,8.202022,19.151196,7.680603,13.591197,7.941059,13.110211,8.900784,13.064994,8.920060,14.776372,10.515024,14.846962,10.668750,15.888540,0,0.00145,0.00094,0.00094,0.00065,0.00212,0.00095,0.00081,0.00060,-0.00012,0.10049,3.27652
0.146,0,0,0,0,0,0,0,0,0,0,0,0,0,0,0,0,119.556519,90.218788,92.486488,100.696579,5.228141,15.943564,5.318234,18.786871,6.042845,16.435257,0,5.109942,3.455202,13.189530,6.149409,14.185432,8.199375,19.156401,7.682358,13.582427,7.944384,13.103738,8.908024,13.070029,8.920414,14.783063,10.517291,14.851077,10.671432,15.893867,0,0.00151,0.00098,0.00094,0.00066,0.00210,0.00094,0.00084,0.00060,0.00002,0.10033,3.27690
0.147,0,0,0,0,0,0,0,0,0,0,0,0,0,0,0,0,118.970406,91.169785,92.318230,100.622086,5.143964,15.948985,5.323563,18.790550,6.044819,16.428608,0,5.112760,3.457622,13.180516,6.151649,14.204123,8.196730,19.161604,7.684114,13.573657,7.947708,13.097264,8.915263,13.075066,8.920768,14.789755,10.519558,14.855192,10.674112,15.899195,0,0.00154,0.00096,0.00096,0.00067,0.00209,0.00102,0.00084,0.00061,0.00015,0.10056,3.27704
0.148,0,0,0,0,0,0,0,0,0,0,0,0,0,0,0,0,118.384293,92.120773,92.149971,100.547585,5.059788,15.954407,5.328893,18.794231,6.046794,16.421961,0,5.115577,3.460042,13.171501,6.153889,14.222814,8.194083,19.166807,7.685869,13.564887,7.951033,13.090790,8.922503,13.080101,8.921122,14.796447,10.521826,14.859307,10.676793,15.904522,0,0.00155,0.00095,0.00099,0.00066,0.00207,0.00104,0.00085,0.00064,0.00029,0.10070,3.27711
0.149,0,0,0,0,0,0,0,0,0,0,0,0,0,0,0,0,117.749199,93.216263,91.886284,100.472420,4.963402,15.956923,5.333886,18.792776,6.051909,16.412779,0,5.117772,3.462721,13.166475,6.163496,14.243276,8.183391,19.165579,7.686509,13.553312,7.956702,13.079330,8.919684,13.087807,8.921498,14.804574,10.521241,14.862423,10.678192,15.907368,0,0.00168,0.00094,0.00099,0.00063,0.00207,0.00106,0.00084,0.00066,0.00014,0.10034,3.27731
0.150,0,0,0,0,0,0,0,0,0,0,0,0,0,0,0,0,117.102470,94.346092,91.599915,100.397102,4.864116,15.958748,5.338800,18.790102,6.057770,16.402994,0,5.119820,3.465462,13.162396,6.174853,14.264158,8.170786,19.162823,7.686883,13.541071,7.962928,13.066685,8.914476,13.096148,8.921880,14.813044,10.519980,14.865301,10.679286,15.909623,0,0.00177,0.00094,0.00103,0.00064,0.00206,0.00107,0.00085,0.00067,0.00002,0.10049,3.27754
0.151,0,0,0,0,0,0,0,0,0,0,0,0,0,0,0,0,116.455734,95.475914,91.313545,100.321785,4.764830,15.960573,5.343714,18.787426,6.063631,16.393211,0,5.121868,3.468203,13.158319,6.186210,14.285041,8.158181,19.160067,7.687257,13.528830,7.969153,13.054040,8.909268,13.104487,8.922262,14.821512,10.518719,14.868179,10.680380,15.911880,0,0.00176,0.00093,0.00103,0.00066,0.00206,0.00107,0.00099,0.00067,0.00012,0.10074,3.27747
0.152,0,0,0,0,0,0,0,0,0,0,0,0,0,0,1,0,115.809006,96.605736,91.027176,100.246468,4.665543,15.962399,5.348628,18.784752,6.069491,16.383427,0,5.123916,3.470944,13.154240,6.197567,14.305924,8.145576,19.157309,7.687631,13.516588,7.975379,13.041395,8.904060,13.112828,8.922644,14.829982,10.517458,14.871058,10.681474,15.914135,0,0.00176,0.00092,0.00101,0.00064,0.00206,0.00103,0.00097,0.00066,0.00014,0.10056,3.27731
0.153,0,0,0,0,0,0,1,0,0,0,0,0,0,0,0,0,115.359901,97.425537,90.637726,100.160072,4.561208,15.962071,5.353230,18.787960,6.070199,16.374811,0,5.125513,3.473758,13.148299,6.204758,14.325708,8.132855,19.152498,7.687870,13.505792,7.983876,13.029681,8.915419,13.121384,8.924722,14.838307,10.519133,14.875320,10.684208,15.917397,0,0.00173,0.00093,0.00099,0.00067,0.00194,0.00101,0.00099,0.00065,0.00002,0.10042,3.27704
0.154,0,0,0,0,0,0,1,0,0,0,0,0,0,0,0,0,114.957764,98.171669,90.223785,100.071037,4.455673,15.961234,5.357758,18.792564,6.069682,16.366472,0,5.127003,3.476589,13.141916,6.210960,14.345231,8.120108,19.147200,7.688076,13.495337,7.992913,13.018189,8.930714,13.129991,8.927203,14.846600,10.521505,14.879912,10.687331,15.920897,0,0.00176,0.00094,0.00099,0.00071,0.00167,0.00098,0.00107,0.00065,0.00003,0.10057,3.27673
0.155,0,0,0,0,0,0,1,0,0,0,0,0,0,0,0,0,114.555618,98.917809,89.809837,99.982002,4.350138,15.960396,5.362286,18.797171,6.069165,16.358135,0,5.128493,3.479420,13.135533,6.217162,14.364754,8.107359,19.141901,7.688282,13.484883,8.001949,13.006697,8.946009,13.138597,8.929685,14.854891,10.523878,14.884504,10.690455,15.924398,0,0.00176,0.00093,0.00097,0.00073,0.00133,0.00096,0.00122,0.00065,0.00029,0.10056,3.27716
0.156,0,0,0,0,0,0,1,0,0,0,0,0,0,0,0,0,114.153481,99.663940,89.395897,99.892975,4.244603,15.959558,5.366814,18.801775,6.068648,16.349796,0,5.129982,3.482252,13.129150,6.223363,14.384276,8.094611,19.136602,7.688489,13.474429,8.010985,12.995205,8.961304,13.147204,8.932165,14.863183,10.526251,14.889096,10.693579,15.927899,0,0.00169,0.00095,0.00097,0.00073,0.00120,0.00098,0.00125,0.00064,0.00017,0.10027,3.27777
0.157,0,0,0,0,0,0,1,0,0,0,0,0,0,0,0,0,113.816238,100.639809,89.159256,99.814659,4.150727,15.962532,5.370828,18.799858,6.067520,16.345896,0,5.130932,3.484679,13.119971,6.225072,14.398112,8.060616,19.144669,7.691242,13.464316,8.020064,12.986909,8.969514,13.155525,8.933821,14.870411,10.528960,14.893446,10.696719,15.933632,0,0.00168,0.00094,0.00096,0.00074,0.00116,0.00097,0.00124,0.00064,0.00000,0.10024,3.27753
0.158,0,0,0,0,0,0,1,0,0,0,0,0,0,0,0,0,113.494408,101.670258,88.964745,99.738899,4.059621,15.966412,5.374720,18.796389,6.066246,16.343050,0,5.131753,3.487011,13.110128,6.225713,14.410597,8.021572,19.155910,7.694601,13.454285,8.029154,12.979373,8.976040,13.163777,8.935279,14.877387,10.531749,14.897739,10.699864,15.939895,0,0.00165,0.00094,0.00093,0.00073,0.00118,0.00099,0.00125,0.00065,-0.00014,0.10034,3.27707
0.159,0,0,0,0,0,0,1,0,0,0,0,0,0,0,0,0,113.172585,102.700714,88.770241,99.663139,3.968515,15.970291,5.378613,18.792921,6.064972,16.340204,0,5.132574,3.489343,13.100285,6.226354,14.423081,7.982529,19.167152,7.697960,13.444253,8.038244,12.971837,8.982567,13.172029,8.936737,14.884362,10.534538,14.902033,10.703009,15.946157,0,0.00160,0.00094,0.00090,0.00073,0.00119,0.00098,0.00125,0.00065,0.00014,0.10027,3.27734
0.160,0,0,0,0,0,0,1,0,0,0,0,0,0,0,0,0,112.850754,103.731171,88.575729,99.587379,3.877410,15.974171,5.382504,18.789452,6.063698,16.337358,0,5.133395,3.491675,13.090442,6.226995,14.435566,7.943485,19.178394,7.701319,13.434222,8.047334,12.964301,8.989093,13.180283,8.938195,14.891338,10.537327,14.906326,10.706154,15.952420,0,0.00163,0.00093,0.00089,0.00073,0.00119,0.00101,0.00126,0.00065,0.00015,0.10003,3.27780
0.161,0,0,0,0,0,0,1,0,0,0,0,0,0,0,0,0,112.721123,104.573616,88.385162,99.424683,3.812070,15.974006,5.386064,18.776348,6.062071,16.321434,0,5.133244,3.493975,13.078099,6.226570,14.436967,7.925142,19.159325,7.709030,13.413272,8.062056,12.950819,8.993371,13.186653,8.939040,14.896105,10.538050,14.910171,10.706127,15.955223,0,0.00166,0.00096,0.00087,0.00076,0.00120,0.00102,0.00128,0.00066,0.00002,0.10005,3.27753
0.162,0,0,0,0,0,0,1,0,0,0,0,0,0,0,0,0,112.637161,105.371391,88.195534,99.241341,3.752853,15.972880,5.389544,18.760956,6.060361,16.302401,0,5.132860,3.496268,13.065164,6.225892,14.435734,7.911719,19.133049,7.717776,13.389728,8.078116,12.935925,8.997116,13.192576,8.939739,14.900347,10.538280,14.913909,10.705347,15.957203,0,0.00167,0.00095,0.00087,0.00077,0.00125,0.00102,0.00134,0.00066,0.00014,0.10014,3.27707
0.163,0,0,0,0,0,0,1,0,0,0,0,0,0,0,0,0,112.553192,106.169167,88.005898,99.057991,3.693635,15.971755,5.393024,18.745564,6.058651,16.283365,0,5.132477,3.498561,13.052228,6.225214,14.434501,7.898296,19.106775,7.726521,13.366183,8.094177,12.921030,9.000860,13.198501,8.940438,14.904589,10.538512,14.917647,10.704566,15.959183,0,0.00191,0.00088,0.00085,0.00077,0.00125,0.00101,0.00135,0.00067,0.00011,0.10003,3.27728
0.164,0,0,0,0,0,0,1,0,1,0,0,0,0,0,0,0,112.469231,106.966942,87.816269,98.874641,3.634418,15.970630,5.396504,18.730169,6.056942,16.264332,0,5.132093,3.500854,13.039291,6.224536,14.433268,7.884872,19.080502,7.735267,13.342639,8.110238,12.906136,9.004604,13.204424,8.941136,14.908831,10.538743,14.921385,10.703786,15.961163,0,0.00229,0.00083,0.00081,0.00077,0.00124,0.00098,0.00132,0.00066,0.00015,0.09970,3.27766
0.165,0,0,0,0,0,0,1,0,0,0,0,0,0,0,0,0,112.501526,107.362480,87.395195,98.623657,3.604230,15.969068,5.399850,18.716555,6.056614,16.254236,0,5.130702,3.503151,13.030415,6.224103,14.435399,7.877392,19.063507,7.742953,13.326850,8.117026,12.900760,9.008108,13.207809,8.941800,14.916890,10.539736,14.925477,10.702803,15.966768,0,0.00221,0.00079,0.00077,0.00074,0.00124,0.00094,0.00132,0.00066,-0.00014,0.09971,3.27762
0.166,0,0,0,0,0,0,1,0,0,0,0,0,0,0,0,0,112.561447,107.662430,86.919113,98.356598,3.580939,15.967403,5.403165,18.703362,6.056616,16.246265,0,5.129070,3.505448,13.022502,6.223729,14.438330,7.871323,19.048717,7.750388,13.312904,8.121611,12.897647,9.011554,13.210591,8.942454,14.925858,10.540910,14.929652,10.701771,15.973235,0,0.00237,0.00075,0.00073,0.00074,0.00124,0.00094,0.00130,0.00067,-0.00014,0.09978,3.27747
0.167,0,0,0,0,0,0,1,0,0,0,0,0,0,0,0,0,112.621361,107.962387,86.443039,98.089539,3.557649,15.965738,5.406479,18.690168,6.056618,16.238295,0,5.127438,3.507745,13.014589,6.223354,14.441260,7.865254,19.033928,7.757823,13.298958,8.126196,12.894533,9.015000,13.213374,8.943110,14.934824,10.542084,14.933828,10.700739,15.979701,0,0.00231,0.00074,0.00073,0.00072,0.00123,0.00088,0.00133,0.00066,-0.00014,0.09951,3.27713
0.168,0,0,0,0,0,0,1,0,0,0,0,0,0,0,0,0,112.681282,108.262337,85.966965,97.822487,3.534358,15.964073,5.409793,18.676975,6.056619,16.230324,0,5.125806,3.510042,13.006677,6.222980,14.444191,7.859186,19.019140,7.765257,13.285012,8.130781,12.891420,9.018446,13.216156,8.943764,14.943791,10.543258,14.938004,10.699707,15.986168,0,0.00232,0.00077,0.00070,0.00072,0.00124,0.00082,0.00165,0.00064,0.00014,0.09910,3.27675
0.169,0,0,0,0,0,0,1,0,0,0,0,0,0,0,0,0,112.721504,108.693451,85.437912,97.565254,3.537699,15.962353,5.413342,18.665232,6.058731,16.222393,0,5.123346,3.512340,12.996252,6.223759,14.436104,7.856765,19.007635,7.768915,13.273750,8.134772,12.889124,9.030443,13.229603,8.944016,14.955574,10.543644,14.943656,10.699671,15.991755,0,0.00220,0.00077,0.00070,0.00070,0.00124,0.00079,0.00179,0.00063,0.00017,0.09920,3.27649
0.170,0,0,0,0,0,0,1,0,0,0,0,0,0,0,0,0,112.757050,109.155731,84.896271,97.310364,3.547367,15.960620,5.416945,18.653831,6.061343,16.214472,0,5.120689,3.514637,12.985231,6.224813,14.425400,7.855212,18.996910,7.771676,13.263127,8.138622,12.887021,9.044473,13.245584,8.944173,14.968026,10.543842,14.949658,10.699872,15.997133,0,0.00204,0.00077,0.00067,0.00070,0.00123,0.00078,0.00180,0.00067,0.00043,0.09930,3.27626
0.171,0,0,0,0,0,0,1,0,0,0,0,0,0,0,0,0,112.792587,109.618011,84.354630,97.055473,3.557035,15.958886,5.420549,18.642431,6.063955,16.206551,0,5.118033,3.516934,12.974210,6.225866,14.414695,7.853659,18.986185,7.774436,13.252504,8.142472,12.884919,9.058502,13.261565,8.944330,14.980477,10.544042,14.955662,10.700073,16.002512,0,0.00209,0.00077,0.00066,0.00069,0.00123,0.00078,0.00176,0.00076,-0.00002,0.09898,3.27658
0.172,0,0,0,0,0,0,1,0,0,0,0,0,0,0,0,0,112.828133,110.080284,83.812988,96.800583,3.566704,15.957152,5.424153,18.631033,6.066568,16.198627,0,5.115376,3.519231,12.963189,6.226920,14.403990,7.852106,18.975460,7.777196,13.241881,8.146322,12.882816,9.072532,13.277547,8.944487,14.992929,10.544241,14.961664,10.700274,16.007891,0,0.00219,0.00078,0.00066,0.00070,0.00123,0.00079,0.00205,0.00081,0.00029,0.09874,3.27704
0.173,0,0,0,0,0,0,1,0,0,0,0,0,0,0,0,0,113.137215,110.861702,83.471779,96.562012,3.582597,15.954095,5.427732,18.614708,6.067277,16.187170,0,5.113218,3.522223,12.957578,6.232121,14.388409,7.851287,18.960390,7.779059,13.229802,8.152018,12.877835,9.079738,13.288952,8.944723,15.002217,10.544285,14.965158,10.699353,16.013086,0,0.00243,0.00078,0.00067,0.00068,0.00125,0.00080,0.00229,0.00085,0.00014,0.09884,3.27713
0.174,0,0,0,0,0,0,1,0,0,0,0,0,0,0,0,0,113.511299,111.718948,83.178200,96.327316,3.599969,15.950723,5.431305,18.597212,6.067534,16.174871,0,5.111178,3.525379,12.953253,6.238309,14.371669,7.850642,18.944290,7.780708,13.217377,8.158153,12.872170,9.085321,13.299270,8.944977,15.010754,10.544292,14.968053,10.698164,16.018240,0,0.00270,0.00078,0.00066,0.00064,0.00125,0.00079,0.00238,0.00090,0.00012,0.09886,3.27713
0.175,0,0,0,0,0,0,1,0,0,0,0,0,0,0,0,0,113.885384,112.576195,82.884621,96.092621,3.617341,15.947351,5.434879,18.579718,6.067791,16.162573,0,5.109138,3.528535,12.948927,6.244496,14.354929,7.849998,18.928188,7.782358,13.204951,8.164287,12.866506,9.090905,13.309587,8.945231,15.019290,10.544300,14.970949,10.696975,16.023394,0,0.00273,0.00077,0.00069,0.00062,0.00097,0.00076,0.00249,0.00114,-0.00026,0.09863,3.27725
0.176,0,0,0,0,0,0,1,0,0,0,0,0,0,0,0,0,114.259468,113.433441,82.591042,95.857925,3.634713,15.943978,5.438452,18.562222,6.068048,16.150274,0,5.107098,3.531691,12.944602,6.250684,14.338189,7.849353,18.912088,7.784008,13.192526,8.170422,12.860841,9.096489,13.319905,8.945486,15.027826,10.544308,14.973845,10.695786,16.028545,0,0.00273,0.00076,0.00067,0.00061,0.00064,0.00071,0.00262,0.00126,0.00029,0.09856,3.27740
0.177,0,0,0,0,0,0,1,0,0,0,0,0,0,0,0,0,114.417023,114.261169,82.461769,95.766182,3.650209,15.942326,5.442051,18.543961,6.067383,16.141829,0,5.105400,3.535212,12.938642,6.254919,14.326948,7.845372,18.898121,7.792653,13.177887,8.192866,12.855045,9.100404,13.327961,8.944342,15.032564,10.544502,14.976893,10.693599,16.034184,0,0.00273,0.00078,0.00069,0.00059,0.00064,0.00072,0.00277,0.00134,0.00005,0.09879,3.27731
0.178,0,0,0,0,0,0,1,0,0,0,0,0,0,0,0,0,114.523132,115.081886,82.371529,95.708405,3.665260,15.941081,5.445656,18.525517,6.066497,16.134300,0,5.103783,3.538818,12.932292,6.258690,14.317013,7.840600,18.884663,7.802961,13.162723,8.219187,12.849218,9.103923,13.335481,8.942866,15.036399,10.544742,14.979978,10.691175,16.039934,0,0.00269,0.00102,0.00072,0.00062,0.00064,0.00071,0.00290,0.00147,0.00003,0.09901,3.27716
0.179,0,0,0,0,0,0,1,0,0,0,0,0,0,0,0,0,114.629242,115.902611,82.281296,95.650620,3.680310,15.939837,5.449262,18.507072,6.065612,16.126770,0,5.102165,3.542425,12.925943,6.262462,14.307078,7.835826,18.871202,7.813269,13.147557,8.245507,12.843392,9.107442,13.342999,8.941390,15.040235,10.544981,14.983062,10.688751,16.045687,0,0.00269,0.00207,0.00074,0.00067,0.00064,0.00072,0.00300,0.00157,-0.00015,0.09885,3.27701
0.180,0,0,0,0,0,0,1,0,0,0,0,0,0,0,0,0,114.735352,116.723328,82.191063,95.592842,3.695360,15.938593,5.452867,18.488628,6.064726,16.119242,0,5.100548,3.546031,12.919594,6.266233,14.297143,7.831054,18.857744,7.823576,13.132393,8.271828,12.837566,9.110961,13.350518,8.939914,15.044069,10.545220,14.986146,10.686328,16.051437,0,0.00268,0.00240,0.00075,0.00069,0.00063,0.00072,0.00305,0.00173,-0.00015,0.09888,3.27686
0.181,0,0,0,0,0,0,1,0,0,0,0,0,0,0,0,0,114.983643,117.279068,82.094116,95.515717,3.697224,15.940761,5.456769,18.476023,6.063221,16.111149,0,5.099651,3.549786,12.911952,6.265873,14.284410,7.829359,18.845264,7.832585,13.121946,8.281494,12.832497,9.110309,13.352462,8.937878,15.047033,10.542666,14.989758,10.683383,16.052399,0,0.00291,0.00270,0.00096,0.00070,0.00063,0.00071,0.00354,0.00206,0.00015,0.09907,3.27713
0.182,0,0,0,0,0,0,1,0,0,0,0,0,0,0,0,0,115.265732,117.771835,81.995583,95.433990,3.695955,15.943739,5.460741,18.464804,6.061568,16.102922,0,5.098927,3.553575,12.904002,6.264531,14.271010,7.828396,18.833019,7.841286,13.112621,8.287203,12.827606,9.108665,13.353080,8.935709,15.049789,10.539449,14.993496,10.680313,16.052221,0,0.00301,0.00302,0.00129,0.00073,0.00058,0.00069,0.00393,0.00273,0.00000,0.09908,3.27751
0.183,0,0,0,0,0,0,1,0,0,0,0,0,0,0,0,0,115.547813,118.264610,81.897049,95.352264,3.694686,15.946717,5.464713,18.453585,6.059916,16.094694,0,5.098201,3.557365,12.896053,6.263189,14.257611,7.827433,18.820772,7.849987,13.103296,8.292912,12.822717,9.107023,13.353698,8.933539,15.052547,10.536231,14.997234,10.677244,16.052046,0,0.00285,0.00423,0.00176,0.00088,0.00057,0.00072,0.00409,0.00294,-0.00012,0.09883,3.27747
0.184,0,0,0,0,0,0,1,0,0,0,0,0,0,0,0,0,115.829895,118.757378,81.798515,95.270538,3.693417,15.949696,5.468685,18.442366,6.058263,16.086468,0,5.097476,3.561154,12.888103,6.261847,14.244213,7.826469,18.808527,7.858687,13.093970,8.298621,12.817826,9.105380,13.354317,8.931371,15.055303,10.533013,15.000972,10.674175,16.051868,0,0.00240,0.00449,0.00230,0.00102,0.00058,0.00071,0.00433,0.00297,0.00015,0.09898,3.27731
0.185,0,0,0,0,0,0,1,0,0,0,0,0,0,0,0,0,116.405769,119.216522,81.709488,95.043228,3.679600,15.954293,5.472400,18.432020,6.061004,16.080065,0,5.096785,3.563600,12.882195,6.264191,14.236401,7.824027,18.799940,7.862013,13.080981,8.304214,12.815476,9.105187,13.358624,8.930370,15.059094,10.531409,15.000730,10.672231,16.053282,0,0.00225,0.00453,0.00314,0.00110,0.00056,0.00072,0.00439,0.00316,0.00002,0.09924,3.27692
0.186,0,0,0,0,0,0,1,0,0,0,0,0,0,0,0,0,117.051453,119.667686,81.622719,94.781319,3.662802,15.959275,5.476055,18.421881,6.064788,16.074097,0,5.096101,3.565727,12.876771,6.267412,14.229917,7.821232,18.792221,7.864061,13.067122,8.309780,12.813730,9.105341,13.363809,8.929647,15.063133,10.530190,14.999540,10.670554,16.055073,0,0.00208,0.00453,0.00326,0.00111,0.00054,0.00071,0.00442,0.00331,-0.00012,0.09915,3.27646
0.187,0,0,0,0,0,0,1,0,0,0,0,0,0,0,0,0,117.697144,120.118843,81.535950,94.519417,3.646003,15.964258,5.479710,18.411741,6.068573,16.068127,0,5.095417,3.567853,12.871346,6.270632,14.223432,7.818438,18.784504,7.866109,13.053262,8.315346,12.811983,9.105494,13.368993,8.928926,15.067171,10.528970,14.998352,10.668878,16.056864,0,0.00201,0.00486,0.00425,0.00115,0.00054,0.00070,0.00453,0.00340,0.00015,0.09905,3.27686
0.188,0,0,0,0,0,0,1,0,0,0,0,0,0,0,0,0,118.342827,120.570000,81.449181,94.257507,3.629204,15.969240,5.483365,18.401604,6.072359,16.062159,0,5.094733,3.569979,12.865922,6.273853,14.216948,7.815644,18.776787,7.868157,13.039402,8.320911,12.810237,9.105646,13.374177,8.928203,15.071209,10.527750,14.997163,10.667201,16.058657,0,0.00197,0.00531,0.00628,0.00122,0.00053,0.00070,0.00424,0.00358,-0.00003,0.09939,3.27747
0.189,0,0,0,0,0,0,1,0,0,0,0,0,0,0,0,0,118.881973,120.647949,81.374672,93.983345,3.608073,15.970999,5.486965,18.394369,6.075808,16.060522,0,5.094387,3.570687,12.859522,6.274717,14.207134,7.815514,18.766800,7.868308,13.030755,8.322063,12.809430,9.102557,13.377323,8.927866,15.074100,10.527047,14.997406,10.663228,16.060520,0,0.00200,0.00547,0.00689,0.00125,0.00052,0.00071,0.00411,0.00390,0.00000,0.09953,3.27716
0.190,0,0,0,0,0,0,1,0,0,0,0,1,0,0,0,0,119.395805,120.637215,81.303070,93.706276,3.585913,15.971991,5.490552,18.387825,6.079177,16.059916,0,5.094120,3.571058,12.852890,6.275022,14.196529,7.816017,18.756273,7.868007,13.023346,8.322165,12.808847,9.098699,13.379984,8.927621,15.076719,10.526468,14.997990,10.658710,16.062401,0,0.00205,0.00649,0.00764,0.00136,0.00053,0.00072,0.00414,0.00393,0.00000,0.09937,3.27663
0.191,0,0,0,0,0,0,0,0,0,0,0,0,0,0,0,0,119.909645,120.626480,81.231476,93.429207,3.563752,15.972983,5.494139,18.381281,6.082546,16.059307,0,5.093853,3.571429,12.846258,6.275326,14.185925,7.816521,18.745747,7.867707,13.015937,8.322268,12.808265,9.094839,13.382645,8.927376,15.079338,10.525889,14.998573,10.654192,16.064281,0,0.00202,0.00683,0.00780,0.00144,0.00053,0.00073,0.00428,0.00389,0.00031,0.09960,3.27695
0.192,0,0,0,0,0,0,0,0,0,0,0,0,0,0,0,0,120.423477,120.615746,81.159882,93.152138,3.541592,15.973975,5.497726,18.374739,6.085916,16.058701,0,5.093585,3.571800,12.839626,6.275630,14.175322,7.817024,18.735222,7.867406,13.008528,8.322370,12.807681,9.090981,13.385305,8.927130,15.081958,10.525311,14.999157,10.649674,16.066164,0,0.00191,0.00684,0.00829,0.00144,0.00054,0.00073,0.00412,0.00406,0.00043,0.09992,3.27748
0.193,0,0,0,0,0,0,0,0,0,0,0,0,0,1,0,0,120.911385,119.982704,81.074570,92.974586,3.510877,15.977606,5.501226,18.362993,6.090912,16.055094,0,5.092957,3.570762,12.839919,6.278073,14.165771,7.816638,18.724173,7.867775,13.006651,8.321619,12.810184,9.094816,13.388088,8.927550,15.081652,10.525036,14.998326,10.644852,16.066662,0,0.00171,0.00684,0.00940,0.00145,0.00053,0.00072,0.00382,0.00414,0.00014,0.09981,3.27692
0.194,0,0,0,0,0,0,0,0,0,0,0,0,0,0,0,0,121.393127,119.201782,80.985992,92.820686,3.478129,15.981863,5.504705,18.350014,6.096296,16.050774,0,5.092244,3.569389,12.841858,6.281024,14.156473,7.816039,18.712999,7.868304,13.006089,8.320665,12.813418,9.100479,13.390899,8.928128,15.080651,10.524835,14.997159,10.639957,16.066832,0,0.00141,0.00688,0.01151,0.00146,0.00052,0.00072,0.00381,0.00423,0.00000,0.09977,3.27608
0.195,0,0,0,0,0,0,0,0,0,0,0,0,0,0,0,0,121.874870,118.420860,80.897423,92.666779,3.445381,15.986121,5.508185,18.337034,6.101679,16.046453,0,5.091531,3.568016,12.843796,6.283975,14.147174,7.815441,18.701826,7.868833,13.005527,8.319713,12.816653,9.106143,13.393710,8.928706,15.079651,10.524632,14.995992,10.635063,16.067003,0,0.00135,0.00706,0.01292,0.00147,0.00053,0.00075,0.00370,0.00429,0.00015,0.10007,3.27664
0.196,0,0,0,0,0,0,0,0,0,0,0,0,0,0,0,0,122.356613,117.639938,80.808853,92.512878,3.412633,15.990378,5.511665,18.324055,6.107062,16.042133,0,5.090817,3.566643,12.845735,6.286926,14.137875,7.814843,18.690655,7.869361,13.004966,8.318759,12.819889,9.111807,13.396521,8.929285,15.078650,10.524431,14.994824,10.630169,16.067173,0,0.00135,0.00776,0.01465,0.00144,0.00053,0.00074,0.00364,0.00418,0.00002,0.10004,3.27756
0.197,0,0,0,0,0,0,0,0,0,0,0,0,0,0,0,0,125.868980,114.400208,79.788300,92.396278,3.380458,15.991851,5.514981,18.308760,6.112665,16.040924,0,5.090258,3.565898,12.854527,6.288601,14.124475,7.815252,18.677778,7.867494,13.012688,8.314698,12.825437,9.119044,13.394254,8.930004,15.070080,10.525404,14.992359,10.625497,16.066156,0,0.00135,0.00836,0.01648,0.00146,0.00052,0.00071,0.00357,0.00421,-0.00014,0.09972,3.27744
0.198,0,0,0,0,0,0,0,0,0,0,0,0,0,0,0,0,130.101486,110.576210,78.546295,92.288551,3.348418,15.992662,5.518259,18.292915,6.118320,16.040457,0,5.089735,3.565302,12.864949,6.289973,14.110103,7.815900,18.664495,7.865057,13.022378,8.309900,12.831533,9.126656,13.390780,8.930757,15.059710,10.526655,14.989585,10.620877,16.064857,0,0.00137,0.00877,0.01694,0.00146,0.00050,0.00070,0.00347,0.00425,0.00041,0.09978,3.27705
0.199,0,0,0,0,0,0,0,0,0,0,0,0,0,0,0,0,134.333984,106.752205,77.304283,92.180817,3.316378,15.993473,5.521537,18.277071,6.123975,16.039988,0,5.089212,3.564706,12.875372,6.291345,14.095729,7.816549,18.651215,7.862621,13.032067,8.305101,12.837630,9.134267,13.387307,8.931510,15.049340,10.527907,14.986812,10.616257,16.063559,0,0.00136,0.00785,0.01819,0.00145,0.00049,0.00069,0.00354,0.00439,0.00015,0.09996,3.27686
0.200,0,0,0,0,0,0,0,0,0,0,0,0,0,0,0,0,138.566498,102.928207,76.062271,92.073082,3.284338,15.994285,5.524815,18.261227,6.129631,16.039518,0,5.088689,3.564110,12.885794,6.292717,14.081356,7.817197,18.637934,7.860184,13.041758,8.300303,12.843727,9.141879,13.383834,8.932262,15.038970,10.529160,14.984037,10.611637,16.062260,0,0.00134,0.00747,0.01871,0.00143,0.00052,0.00069,0.00373,0.00432,0.00002,0.09984,3.27670
0.201,0,0,0,0,0,0,0,0,0,0,0,0,0,0,0,0,145.081024,99.303802,75.480614,91.731293,3.236704,15.993213,5.528200,18.247932,6.139403,16.047430,0,5.088175,3.565358,12.907619,6.291131,14.069593,7.817223,18.629005,7.866403,13.056182,8.311264,12.884013,9.203373,13.380042,8.934236,15.037655,10.530197,14.981853,10.610579,16.061100,0,0.00106,0.00714,0.01945,0.00140,0.00052,0.00068,0.00344,0.00411,0.00015,0.09963,3.27655
0.202,0,0,0,0,0,0,0,0,0,0,0,0,0,0,0,0,152.137817,95.726830,75.055878,91.333885,3.185364,15.991693,5.531611,18.235243,6.150154,16.057333,0,5.087664,3.567045,12.932154,6.288842,14.058452,7.817101,18.621113,7.874679,13.071732,8.325971,12.932423,9.277672,13.376175,8.936499,15.038492,10.531183,14.979810,10.610369,16.059975,0,0.00093,0.00732,0.01966,0.00137,0.00054,0.00068,0.00294,0.00344,0.00000,0.09973,3.27640
0.203,0,0,0,0,0,0,0,0,0,0,0,0,0,0,0,0,159.194595,92.149857,74.631134,90.936470,3.134025,15.990175,5.535022,18.222555,6.160904,16.067236,0,5.087153,3.568731,12.956688,6.286552,14.047309,7.816979,18.613218,7.882954,13.087281,8.340676,12.980833,9.351970,13.372307,8.938762,15.039329,10.532169,14.977766,10.610157,16.058849,0,0.00090,0.00660,0.02089,0.00127,0.00052,0.00066,0.00279,0.00315,0.00026,0.09992,3.27661
0.204,0,0,0,0,0,0,0,0,0,0,0,0,0,0,0,0,166.251389,88.572884,74.206398,90.539062,3.082685,15.988656,5.538434,18.209866,6.171655,16.077139,0,5.086642,3.570417,12.981223,6.284264,14.036167,7.816857,18.605326,7.891230,13.102830,8.355383,13.029243,9.426269,13.368440,8.941025,15.040166,10.533155,14.975722,10.609946,16.057722,0,0.00086,0.00689,0.02109,0.00112,0.00052,0.00068,0.00250,0.00318,0.00000,0.09980,3.27692
0.205,0,0,0,0,0,0,0,0,0,0,0,0,0,0,0,0,169.924744,85.599648,73.748451,89.851349,3.015399,15.987943,5.541474,18.195787,6.193269,16.098783,0,5.085997,3.572247,13.009697,6.284861,14.021825,7.815152,18.595566,7.904212,13.151672,8.371142,13.106258,9.394918,13.374593,8.943210,15.044953,10.535980,14.972757,10.607818,16.054138,0,0.00086,0.00689,0.02117,0.00103,0.00053,0.00069,0.00284,0.00304,0.00031,0.09956,3.27698
0.206,0,0,0,0,0,0,0,0,0,0,0,0,0,0,0,0,172.794128,82.769875,73.282623,89.094658,2.944323,15.987420,5.544427,18.181377,6.217463,16.123219,0,5.085319,3.574111,13.039106,6.286144,14.006722,7.813072,18.585365,7.918313,13.208426,8.387151,13.190071,9.338463,13.383128,8.945374,15.050679,10.539241,14.969574,10.605235,16.049969,0,0.00085,0.00686,0.02208,0.00102,0.00055,0.00068,0.00289,0.00294,-0.00012,0.09970,3.27698
0.207,0,0,0,0,0,0,0,0,0,0,0,0,0,0,0,0,175.663498,79.940109,72.816788,88.337959,2.873246,15.986898,5.547381,18.166969,6.241659,16.147654,0,5.084641,3.575975,13.068517,6.287428,13.991620,7.810991,18.575163,7.932413,13.265179,8.403160,13.273885,9.282008,13.391663,8.947540,15.056406,10.542502,14.966390,10.602652,16.045799,0,0.00083,0.00655,0.02252,0.00099,0.00054,0.00070,0.00280,0.00293,0.00015,0.09979,3.27722
0.208,0,0,0,0,0,0,0,0,0,0,0,0,0,0,0,0,178.532883,77.110336,72.350952,87.581268,2.802171,15.986376,5.550334,18.152559,6.265853,16.172087,0,5.083963,3.577838,13.097927,6.288711,13.976518,7.808910,18.564962,7.946514,13.321932,8.419169,13.357697,9.225554,13.400198,8.949705,15.062132,10.545763,14.963206,10.600068,16.041632,0,0.00087,0.00609,0.02068,0.00090,0.00055,0.00071,0.00291,0.00290,0.00011,0.09947,3.27753
0.209,0,0,0,0,0,0,0,0,0,0,0,0,0,0,0,0,179.022171,74.702728,71.559769,86.634338,2.711895,15.989375,5.553179,18.140518,6.266426,16.182911,0,5.083437,3.580199,13.159673,6.294314,13.964658,7.809347,18.551678,7.991659,13.367191,8.462895,13.391900,9.262536,13.403894,8.952510,15.075206,10.546278,14.957532,10.597575,16.037170,0,0.00088,0.00592,0.02060,0.00089,0.00055,0.00069,0.00298,0.00259,0.00027,0.09933,3.27747
0.210,0,0,0,0,0,0,0,0,0,0,0,0,0,0,0,0,178.945877,72.395432,70.691269,85.642212,2.617056,15.993211,5.555998,18.129038,6.261384,16.190500,0,5.082948,3.582677,13.229102,6.300943,13.953568,7.810382,18.537659,8.044181,13.409719,8.513207,13.414314,9.321721,13.406441,8.955466,15.090025,10.546141,14.951266,10.595103,16.032640,0,0.00086,0.00494,0.02021,0.00078,0.00055,0.00069,0.00316,0.00252,0.00002,0.09955,3.27731
0.211,0,0,0,0,0,0,0,0,0,0,0,0,0,0,0,0,178.869598,70.088135,69.822769,84.650085,2.522218,15.997046,5.558817,18.117558,6.256343,16.198092,0,5.082458,3.585155,13.298531,6.307572,13.942480,7.811417,18.523642,8.096703,13.452248,8.563520,13.436728,9.380907,13.408987,8.958424,15.104845,10.546003,14.945000,10.592631,16.028111,0,0.00085,0.00451,0.02027,0.00068,0.00054,0.00068,0.00304,0.00245,0.00014,0.09958,3.27716
0.212,0,0,0,0,0,0,0,0,0,0,0,0,0,0,0,0,178.793320,67.780838,68.954269,83.657959,2.427379,16.000883,5.561637,18.106079,6.251302,16.205681,0,5.081969,3.587633,13.367960,6.314201,13.931391,7.812452,18.509623,8.149224,13.494776,8.613832,13.459143,9.440092,13.411533,8.961380,15.119664,10.545866,14.938734,10.590160,16.023581,0,0.00084,0.00450,0.02003,0.00066,0.00053,0.00068,0.00299,0.00228,0.00027,0.09919,3.27701
0.213,0,0,0,0,0,0,0,0,0,0,0,0,0,0,0,0,178.109756,65.407059,68.927017,82.945038,2.309211,16.001453,5.563881,18.093666,6.259881,16.232363,0,5.081825,3.589973,13.442079,6.310748,13.919801,7.812559,18.498125,8.149754,13.570879,8.618112,13.518275,9.413828,13.435188,8.966352,15.138986,10.547678,14.934709,10.588002,16.018440,0,0.00083,0.00448,0.01920,0.00065,0.00053,0.00068,0.00301,0.00215,-0.00026,0.09922,3.27716
0.214,0,0,0,0,0,0,0,0,0,0,0,0,0,0,0,0,177.281891,63.017483,69.099655,82.298470,2.185499,16.001247,5.565989,18.081030,6.271695,16.263580,0,5.081764,3.592280,13.517311,6.304900,13.908092,7.812446,18.487228,8.137929,13.654960,8.611453,13.586132,9.367258,13.463860,8.971805,15.159376,10.549953,14.931216,10.585918,16.013155,0,0.00081,0.00444,0.01757,0.00065,0.00053,0.00070,0.00296,0.00203,0.00002,0.09941,3.27739
0.215,0,0,0,0,0,0,0,0,0,0,0,0,0,0,0,0,176.454010,60.627907,69.272293,81.651894,2.061787,16.001041,5.568096,18.068396,6.283509,16.294798,0,5.081702,3.594587,13.592544,6.299051,13.896382,7.812332,18.476330,8.126103,13.739041,8.604795,13.653989,9.320688,13.492530,8.977257,15.179768,10.552230,14.927724,10.583835,16.007870,0,0.00079,0.00424,0.01663,0.00065,0.00052,0.00070,0.00276,0.00184,0.00031,0.09931,3.27750
0.216,0,0,0,0,0,0,0,0,0,0,0,0,0,0,0,0,175.626144,58.238331,69.444931,81.005325,1.938075,16.000837,5.570203,18.055761,6.295324,16.326015,0,5.081641,3.596895,13.667776,6.293202,13.884673,7.812218,18.465433,8.114279,13.823122,8.598136,13.721847,9.274118,13.521201,8.982708,15.200158,10.554505,14.924232,10.581751,16.002584,0,0.00077,0.00361,0.01535,0.00065,0.00052,0.00069,0.00313,0.00186,0.00014,0.09901,3.27757
0.217,0,0,0,0,0,0,0,0,0,0,0,0,0,0,0,0,175.436890,55.898537,69.335190,80.781700,1.816779,15.999390,5.572087,18.044739,6.314414,16.372160,0,5.080911,3.599103,13.722736,6.293354,13.875808,7.811179,18.450769,8.133814,13.879815,8.618049,13.756718,9.275316,13.528818,8.984402,15.201632,10.556058,14.920714,10.579637,15.998427,0,0.00076,0.00301,0.01351,0.00064,0.00052,0.00069,0.00317,0.00203,0.00014,0.09912,3.27747
0.218,0,0,0,0,0,0,0,0,0,0,0,0,0,0,0,0,175.399384,53.570572,69.158340,80.658577,1.696057,15.997647,5.573917,18.034098,6.335233,16.421850,0,5.080021,3.601288,13.772880,6.294932,13.867618,7.809919,18.435213,8.160801,13.929999,8.644276,13.783751,9.287866,13.531433,8.985203,15.198610,10.557439,14.917192,10.577515,15.994539,0,0.00074,0.00232,0.01315,0.00062,0.00053,0.00071,0.00326,0.00191,0.00015,0.09923,3.27731
0.219,0,0,0,0,0,0,0,0,0,0,0,0,0,0,0,0,175.361893,51.242607,68.981499,80.535461,1.575336,15.995905,5.575747,18.023458,6.356052,16.471539,0,5.079133,3.603472,13.823023,6.296510,13.859428,7.808660,18.419655,8.187788,13.980185,8.670503,13.810785,9.300415,13.534047,8.986003,15.195589,10.558819,14.913670,10.575393,15.990650,0,0.00075,0.00219,0.01219,0.00061,0.00053,0.00071,0.00341,0.00184,0.00000,0.09903,3.27722
0.220,0,0,0,0,0,0,0,0,0,0,0,0,0,0,0,0,175.324387,48.914639,68.804649,80.412338,1.454614,15.994163,5.577577,18.012817,6.376871,16.521229,0,5.078244,3.605657,13.873166,6.298088,13.851238,7.807400,18.404097,8.214775,14.030369,8.696730,13.837818,9.312964,13.536662,8.986804,15.192568,10.560200,14.910147,10.573271,15.986762,0,0.00074,0.00217,0.01201,0.00060,0.00051,0.00072,0.00343,0.00179,0.00002,0.09881,3.27715
0.221,0,0,0,0,0,0,0,0,0,0,0,0,0,0,0,0,174.507874,47.139057,69.123604,80.268898,1.348051,15.987837,5.578859,18.009556,6.392745,16.567842,0,5.077688,3.608446,13.893773,6.300642,13.840619,7.807661,18.391785,8.229033,14.065119,8.713497,13.852368,9.314444,13.531668,8.987377,15.189880,10.560656,14.907502,10.572268,15.982031,0,0.00075,0.00220,0.01175,0.00063,0.00050,0.00071,0.00377,0.00175,0.00000,0.09888,3.27719
0.222,0,0,0,0,0,0,0,0,0,0,0,0,0,0,0,0,173.506256,45.494732,69.560364,80.120628,1.244853,15.980423,5.580011,18.008047,6.407444,16.613728,0,5.077210,3.611378,13.907362,6.303428,13.829424,7.808283,18.380243,8.240268,14.096201,8.728016,13.863952,9.313293,13.524866,8.987897,15.187272,10.560891,14.905066,10.571531,15.977100,0,0.00077,0.00194,0.01171,0.00066,0.00050,0.00074,0.00408,0.00179,0.00014,0.09907,3.27727
0.223,0,0,0,0,0,0,0,0,0,0,0,0,0,0,0,0,172.504639,43.850407,69.997131,79.972359,1.141655,15.973009,5.581164,18.006540,6.422142,16.659611,0,5.076734,3.614311,13.920951,6.306213,13.818228,7.808906,18.368702,8.251502,14.127283,8.742536,13.875536,9.312141,13.518064,8.988417,15.184664,10.561127,14.902629,10.570795,15.972169,0,0.00084,0.00141,0.01068,0.00063,0.00050,0.00074,0.00420,0.00184,0.00015,0.09897,3.27704
0.224,0,0,0,0,0,0,0,0,0,0,0,0,0,0,0,0,171.503021,42.206081,70.433891,79.824081,1.038457,15.965595,5.582316,18.005032,6.436841,16.705494,0,5.076256,3.617243,13.934540,6.309000,13.807032,7.809528,18.357162,8.262735,14.158365,8.757055,13.887119,9.310990,13.511263,8.988935,15.182055,10.561363,14.900192,10.570058,15.967238,0,0.00083,0.00067,0.00998,0.00060,0.00050,0.00072,0.00435,0.00196,0.00014,0.09884,3.27673
0.225,0,0,0,0,0,0,0,0,0,0,0,0,0,0,0,0,170.462784,40.928127,71.175568,79.567169,0.974061,15.964607,5.582750,17.992491,6.445320,16.755037,0,5.075698,3.620992,13.954084,6.311224,13.795739,7.809371,18.347084,8.267459,14.177041,8.761642,13.895953,9.289725,13.507177,8.990821,15.183803,10.562138,14.897925,10.569662,15.962475,0,0.00084,0.00059,0.00939,0.00059,0.00051,0.00071,0.00401,0.00202,0.00029,0.09907,3.27661
0.226,0,0,0,0,0,0,0,0,0,0,0,0,0,0,0,0,169.413361,39.737232,71.989700,79.284431,0.918884,15.965146,5.583013,17.977327,6.452321,16.805450,0,5.075121,3.624935,13.975044,6.313315,13.784425,7.809029,18.337353,8.270636,14.192767,8.763867,13.904133,9.263680,13.503736,8.993031,15.186585,10.563042,14.895699,10.569347,15.957750,0,0.00082,0.00060,0.00877,0.00059,0.00050,0.00072,0.00423,0.00211,-0.00012,0.09927,3.27654
0.227,0,0,0,0,0,0,0,0,0,0,0,0,0,0,0,0,168.363937,38.546337,72.803833,79.001694,0.863708,15.965686,5.583276,17.962164,6.459323,16.855864,0,5.074544,3.628879,13.996004,6.315407,13.773109,7.808686,18.327621,8.273811,14.208494,8.766094,13.912313,9.237636,13.500296,8.995240,15.189367,10.563945,14.893472,10.569033,15.953027,0,0.00081,0.00059,0.00783,0.00058,0.00049,0.00069,0.00444,0.00225,0.00002,0.09903,3.27689
0.228,0,0,0,0,0,0,0,0,0,0,0,0,0,0,0,0,167.314514,37.355442,73.617966,78.718956,0.808531,15.966225,5.583539,17.947001,6.466324,16.906277,0,5.073967,3.632822,14.016964,6.317498,13.761795,7.808343,18.317890,8.276988,14.224221,8.768320,13.920493,9.211591,13.496855,8.997450,15.192150,10.564848,14.891245,10.568718,15.948302,0,0.00078,0.00059,0.00758,0.00058,0.00049,0.00068,0.00433,0.00220,0.00015,0.09906,3.27734
0.229,0,0,0,0,0,0,0,0,0,0,0,0,0,0,0,0,167.389343,36.946106,74.126190,78.416779,0.793003,15.968692,5.584131,17.933565,6.474140,16.948683,0,5.073105,3.638777,14.042748,6.318702,13.750169,7.807734,18.304998,8.277825,14.247666,8.756252,13.935419,9.183242,13.497488,8.999717,15.195827,10.566412,14.889403,10.568376,15.945917,0,0.00075,0.00059,0.00719,0.00056,0.00049,0.00068,0.00423,0.00219,0.00029,0.09938,3.27725
0.230,0,0,0,0,0,0,0,0,0,0,0,0,0,0,0,0,167.731323,36.722488,74.561722,78.109978,0.786896,15.971616,5.584801,17.920538,6.482148,16.989183,0,5.072174,3.645212,14.069678,6.319695,13.738469,7.807062,18.291359,8.278107,14.272945,8.740788,13.951948,9.154346,13.499090,9.001996,15.199718,10.568133,14.887652,10.568026,15.944089,0,0.00074,0.00060,0.00689,0.00057,0.00048,0.00067,0.00395,0.00229,0.00002,0.09938,3.27702
0.231,0,0,0,0,0,0,0,0,0,0,0,0,0,0,0,0,168.073318,36.498875,74.997253,77.803177,0.780789,15.974540,5.585471,17.907513,6.490157,17.029686,0,5.071243,3.651646,14.096608,6.320688,13.726769,7.806390,18.277718,8.278388,14.298224,8.725325,13.968477,9.125450,13.500692,9.004276,15.203609,10.569854,14.885901,10.567677,15.942260,0,0.00074,0.00062,0.00676,0.00062,0.00048,0.00065,0.00432,0.00235,0.00000,0.09910,3.27722
0.232,0,0,0,0,0,0,0,0,0,0,0,0,0,0,0,0,168.415298,36.275257,75.432785,77.496376,0.774682,15.977464,5.586141,17.894485,6.498166,17.070189,0,5.070312,3.658080,14.123538,6.321681,13.715070,7.805718,18.264076,8.278669,14.323503,8.709861,13.985005,9.096555,13.502294,9.006557,15.207500,10.571575,14.884151,10.567327,15.940431,0,0.00076,0.00063,0.00673,0.00064,0.00050,0.00064,0.00450,0.00233,0.00014,0.09930,3.27753
0.233,0,0,0,0,0,0,0,0,0,0,0,0,0,0,0,0,169.037552,36.363983,75.885353,77.140747,0.798326,15.978197,5.586973,17.886322,6.501496,17.097528,0,5.068930,3.665701,14.147491,6.318155,13.700789,7.805846,18.255548,8.263039,14.350228,8.693451,14.000136,9.085199,13.505459,9.008759,15.212193,10.572142,14.881369,10.567389,15.936518,0,0.00078,0.00063,0.00652,0.00063,0.00050,0.00064,0.00481,0.00237,0.00014,0.09958,3.27747
0.234,0,0,0,0,0,0,0,0,0,0,0,0,0,0,0,0,169.726395,36.526928,76.341972,76.773506,0.829040,15.978409,5.587843,17.879314,6.503714,17.121742,0,5.067441,3.673603,14.170736,6.313555,13.685898,7.806165,18.248236,8.243626,14.377298,8.676816,14.014935,9.078013,13.508995,9.010942,15.217076,10.572434,14.878341,10.567551,15.932110,0,0.00078,0.00063,0.00624,0.00062,0.00050,0.00063,0.00493,0.00247,0.00029,0.09934,3.27731
0.235,0,0,0,0,0,0,0,0,0,0,0,0,0,0,0,0,170.415237,36.689873,76.798584,76.406273,0.859754,15.978621,5.588713,17.872307,6.505932,17.145956,0,5.065953,3.681505,14.193982,6.308955,13.671005,7.806483,18.240921,8.224213,14.404367,8.660180,14.029733,9.070827,13.512531,9.013126,15.221960,10.572727,14.875313,10.567712,15.927701,0,0.00078,0.00063,0.00578,0.00067,0.00052,0.00061,0.00494,0.00239,0.00003,0.09936,3.27753
0.236,0,0,0,0,0,0,0,0,0,0,0,0,0,0,0,0,171.104080,36.852821,77.255203,76.039040,0.890467,15.978832,5.589583,17.865299,6.508150,17.170170,0,5.064464,3.689408,14.217227,6.304354,13.656113,7.806801,18.233608,8.204800,14.431437,8.643545,14.044532,9.063641,13.516068,9.015309,15.226844,10.573020,14.872286,10.567873,15.923293,0,0.00079,0.00066,0.00569,0.00069,0.00052,0.00062,0.00447,0.00256,0.00015,0.09968,3.27783
0.237,0,0,0,0,0,0,0,0,0,0,0,0,0,0,0,0,171.387054,36.770329,77.966331,75.497299,0.942201,15.978142,5.590478,17.856213,6.507764,17.197569,0,5.063750,3.699076,14.245510,6.303694,13.644042,7.805317,18.221004,8.186595,14.468565,8.618174,14.064342,9.033362,13.521279,9.018474,15.235826,10.573828,14.870527,10.568412,15.920632,0,0.00081,0.00065,0.00606,0.00068,0.00052,0.00063,0.00435,0.00244,0.00014,0.09971,3.27753
0.238,0,0,0,0,0,0,0,0,0,0,0,0,0,0,0,0,171.573578,36.629517,78.737930,74.914093,0.998930,15.977237,5.591380,17.846632,6.506760,17.225727,0,5.063220,3.709164,14.274990,6.303970,13.632642,7.803405,18.207142,8.168677,14.508084,8.590725,14.085345,8.997598,13.526889,9.021871,15.245783,10.574758,14.869071,10.569041,15.918387,0,0.00084,0.00063,0.00609,0.00068,0.00053,0.00064,0.00478,0.00245,0.00002,0.09956,3.27707
0.239,0,0,0,0,0,0,0,0,0,0,0,0,0,0,0,0,171.760086,36.488705,79.509537,74.330887,1.055659,15.976332,5.592280,17.837049,6.505756,17.253885,0,5.062689,3.719252,14.304471,6.304245,13.621241,7.801492,18.193281,8.150760,14.547603,8.563277,14.106347,8.961833,13.532498,9.025267,15.255739,10.575688,14.867614,10.569671,15.916142,0,0.00084,0.00064,0.00592,0.00067,0.00053,0.00065,0.00502,0.00242,0.00027,0.09986,3.27692
0.240,0,0,0,0,0,0,0,0,0,0,0,0,0,0,0,0,171.946609,36.347893,80.281143,73.747681,1.112387,15.975427,5.593182,17.827469,6.504751,17.282043,0,5.062159,3.729340,14.333951,6.304522,13.609840,7.799580,18.179419,8.132841,14.587122,8.535830,14.127350,8.926068,13.538108,9.028664,15.265696,10.576618,14.866158,10.570300,15.913897,0,0.00088,0.00064,0.00573,0.00067,0.00053,0.00065,0.00518,0.00257,0.00002,0.10007,3.27684
0.241,0,0,0,0,0,0,0,0,0,0,0,0,0,0,0,0,172.500412,36.359501,80.816422,73.147842,1.170902,15.976953,5.594309,17.820425,6.510491,17.306513,0,5.061924,3.739556,14.360080,6.307301,13.602950,7.800501,18.170040,8.123425,14.628049,8.513229,14.159017,8.889934,13.554639,9.032774,15.280151,10.576703,14.863564,10.569523,15.911262,0,0.00088,0.00061,0.00526,0.00065,0.00053,0.00065,0.00490,0.00264,0.00029,0.09995,3.27682
0.242,0,0,0,0,0,0,0,0,0,0,0,0,0,0,0,0,173.141479,36.407326,81.295540,72.544060,1.229841,15.979055,5.595490,17.813988,6.517834,17.330105,0,5.061760,3.749801,14.385411,6.310676,13.597132,7.802097,18.161724,8.116030,14.669311,8.491782,14.193218,8.853710,13.573766,9.037054,15.295676,10.576587,14.860702,10.568411,15.908535,0,0.00089,0.00061,0.00515,0.00061,0.00053,0.00063,0.00460,0.00265,0.00014,0.09997,3.27682
0.243,0,0,0,0,0,0,0,0,0,0,0,0,0,0,0,0,173.782547,36.455154,81.774658,71.940269,1.288780,15.981158,5.596671,17.807549,6.525176,17.353699,0,5.061596,3.760047,14.410744,6.314050,13.591313,7.803692,18.153410,8.108633,14.710572,8.470334,14.227420,8.817487,13.592893,9.041334,15.311200,10.576470,14.857839,10.567300,15.905807,0,0.00080,0.00063,0.00481,0.00063,0.00054,0.00064,0.00491,0.00265,-0.00011,0.10007,3.27719
0.244,0,0,0,0,0,0,0,0,0,0,0,0,0,0,0,0,174.423615,36.502979,82.253777,71.336487,1.347719,15.983261,5.597852,17.801109,6.532519,17.377291,0,5.061431,3.770293,14.436076,6.317425,13.585494,7.805288,18.145096,8.101237,14.751834,8.448886,14.261621,8.781263,13.612019,9.045613,15.326725,10.576354,14.854976,10.566188,15.903080,0,0.00081,0.00061,0.00497,0.00064,0.00054,0.00063,0.00498,0.00253,0.00018,0.10012,3.27765
0.245,0,0,0,0,0,0,0,0,0,0,0,0,0,0,0,0,175.236542,36.839699,82.760109,70.932381,1.416164,15.978674,5.599272,17.790010,6.544599,17.404188,0,5.061444,3.778863,14.464718,6.320908,13.576068,7.805515,18.132639,8.099926,14.789698,8.431659,14.289284,8.757549,13.633141,9.048568,15.338993,10.574821,14.852328,10.565247,15.897680,0,0.00080,0.00061,0.00497,0.00064,0.00054,0.00063,0.00504,0.00239,0.00029,0.09987,3.27750
0.246,0,0,0,0,0,0,0,0,0,0,0,0,0,0,0,0,176.090302,37.245068,83.272911,70.575722,1.486868,15.972498,5.600750,17.777805,6.557804,17.431870,0,5.061498,3.787035,14.494145,6.324417,13.565784,7.805417,18.119198,8.100060,14.826755,8.415435,14.315392,8.736809,13.654736,9.051208,15.350489,10.572948,14.849732,10.564345,15.891645,0,0.00080,0.00059,0.00478,0.00064,0.00055,0.00062,0.00483,0.00228,0.00029,0.09993,3.27719
0.247,0,0,0,0,0,0,0,0,0,0,0,0,0,0,0,0,176.944077,37.650436,83.785713,70.219063,1.557571,15.966322,5.602227,17.765598,6.571009,17.459553,0,5.061552,3.795207,14.523573,6.327926,13.555501,7.805318,18.105757,8.100196,14.863811,8.399211,14.341500,8.716067,13.676331,9.053846,15.361984,10.571077,14.847136,10.563445,15.885611,0,0.00086,0.00058,0.00444,0.00066,0.00055,0.00063,0.00496,0.00207,0.00014,0.10005,3.27762
0.248,0,0,0,0,0,0,0,0,0,0,0,0,0,0,0,0,177.797836,38.055805,84.298515,69.862404,1.628275,15.960145,5.603705,17.753393,6.584215,17.487234,0,5.061606,3.803379,14.553000,6.331435,13.545217,7.805221,18.092316,8.100330,14.900868,8.382987,14.367608,8.695327,13.697926,9.056486,15.373480,10.569206,14.844541,10.562544,15.879576,0,0.00093,0.00059,0.00417,0.00066,0.00055,0.00062,0.00559,0.00205,0.00002,0.10002,3.27823
0.249,0,0,0,0,0,0,0,0,0,0,0,0,0,0,0,0,177.113953,38.107189,84.790756,69.696953,1.700377,15.959270,5.605498,17.734581,6.593920,17.513632,0,5.061544,3.811073,14.577489,6.329070,13.529759,7.804534,18.078390,8.105617,14.928880,8.363777,14.380273,8.667274,13.713245,9.056301,15.379719,10.566874,14.841626,10.561144,15.875413,0,0.00097,0.00059,0.00408,0.00067,0.00056,0.00061,0.00594,0.00211,0.00017,0.09984,3.27798
0.250,0,0,0,0,0,0,0,0,0,0,0,0,0,0,0,0,176.064697,38.074459,85.278107,69.576935,1.772811,15.959656,5.607366,17.714199,6.602794,17.539724,0,5.061455,3.818652,14.600802,6.325308,13.513073,7.803707,18.064348,8.112126,14.954741,8.343858,14.389744,8.637483,13.727073,9.055446,15.384708,10.564432,14.838636,10.559626,15.871695,0,0.00099,0.00059,0.00413,0.00067,0.00058,0.00063,0.00604,0.00218,-0.00002,0.10006,3.27753
0.251,0,0,0,0,0,0,0,0,0,0,0,0,0,0,0,0,175.015427,38.041729,85.765465,69.456924,1.845246,15.960041,5.609233,17.693817,6.611668,17.565815,0,5.061365,3.826232,14.624117,6.321547,13.496386,7.802881,18.050306,8.118637,14.980603,8.323938,14.399215,8.607692,13.740901,9.054590,15.389699,10.561991,14.835647,10.558107,15.867976,0,0.00098,0.00057,0.00419,0.00062,0.00059,0.00065,0.00583,0.00222,0.00026,0.10030,3.27744
0.252,0,0,0,0,0,0,0,0,0,0,0,0,0,0,0,0,173.966171,38.008995,86.252815,69.336906,1.917680,15.960425,5.611101,17.673435,6.620542,17.591908,0,5.061275,3.833812,14.647430,6.317785,13.479699,7.802054,18.036264,8.125147,15.006465,8.304019,14.408685,8.577901,13.754728,9.053734,15.394689,10.559549,14.832657,10.556589,15.864258,0,0.00099,0.00055,0.00406,0.00062,0.00058,0.00066,0.00604,0.00245,0.00014,0.10004,3.27744
0.253,0,0,0,0,0,0,0,0,0,0,0,0,0,0,0,0,173.925369,37.517387,86.587517,69.272629,1.995045,15.960098,5.613015,17.660612,6.630076,17.612719,0,5.061231,3.841123,14.663565,6.316193,13.469082,7.803147,18.025255,8.128433,15.029200,8.296897,14.423460,8.562478,13.763495,9.051378,15.397172,10.555608,14.831496,10.554317,15.861031,0,0.00103,0.00055,0.00399,0.00063,0.00060,0.00067,0.00584,0.00259,0.00029,0.10009,3.27762
0.254,0,0,0,0,0,0,0,0,0,0,0,0,0,0,0,0,174.124191,36.916740,86.885941,69.221588,2.073582,15.959601,5.614940,17.649586,6.639769,17.632275,0,5.061198,3.848371,14.677992,6.315117,13.459908,7.804696,18.014969,8.130953,15.051190,8.292816,14.439495,8.550470,13.771060,9.048666,15.399059,10.551311,14.830771,10.551865,15.857920,0,0.00114,0.00056,0.00391,0.00064,0.00060,0.00067,0.00573,0.00253,0.00015,0.10039,3.27785
0.255,0,0,0,0,0,0,0,0,0,0,0,0,0,0,0,0,174.323029,36.316093,87.184364,69.170555,2.152119,15.959104,5.616865,17.638557,6.649461,17.651831,0,5.061164,3.855619,14.692419,6.314041,13.450732,7.806245,18.004683,8.133472,15.073181,8.288734,14.455530,8.538463,13.778624,9.045954,15.400947,10.547012,14.830046,10.549413,15.854810,0,0.00127,0.00056,0.00382,0.00061,0.00060,0.00067,0.00598,0.00251,-0.00015,0.10034,3.27789
0.256,0,0,0,0,0,0,0,0,0,0,0,0,0,0,0,0,174.521851,35.715446,87.482788,69.119514,2.230655,15.958607,5.618790,17.627531,6.659153,17.671387,0,5.061131,3.862867,14.706846,6.312964,13.441558,7.807794,17.994396,8.135993,15.095172,8.284654,14.471565,8.526455,13.786188,9.043242,15.402834,10.542715,14.829320,10.546961,15.851699,0,0.00135,0.00056,0.00381,0.00058,0.00060,0.00066,0.00612,0.00243,0.00000,0.10007,3.27789
0.257,0,0,0,0,0,0,0,0,0,0,0,0,0,0,0,0,174.649124,35.187050,87.657967,68.898415,2.302287,15.958741,5.621222,17.620951,6.662410,17.691187,0,5.060740,3.868912,14.720186,6.308300,13.427859,7.808480,17.976955,8.142674,15.109787,8.282277,14.485147,8.513034,13.789924,9.040688,15.403553,10.539441,14.828781,10.543162,15.849346,0,0.00141,0.00056,0.00331,0.00056,0.00059,0.00065,0.00669,0.00268,-0.00011,0.10027,3.27777
0.258,0,0,0,0,0,0,0,0,0,0,0,0,0,0,0,0,174.759384,34.675827,87.803864,68.636909,2.372277,15.959026,5.623776,17.615427,6.664138,17.711044,0,5.060265,3.874669,14.733268,6.302783,13.413085,7.808962,17.957815,8.150344,15.122649,8.280306,14.498144,8.499277,13.792749,9.038171,15.403994,10.536410,14.828287,10.539045,15.847173,0,0.00139,0.00056,0.00319,0.00056,0.00059,0.00063,0.00659,0.00280,0.00017,0.10042,3.27762
0.259,0,0,0,0,0,0,0,0,0,0,0,0,0,0,0,0,174.869644,34.164600,87.949760,68.375397,2.442268,15.959311,5.626329,17.609901,6.665865,17.730902,0,5.059790,3.880427,14.746349,6.297265,13.398311,7.809444,17.938675,8.158014,15.135511,8.278336,14.511143,8.485519,13.795575,9.035654,15.404435,10.533380,14.827793,10.534927,15.844999,0,0.00139,0.00056,0.00315,0.00056,0.00059,0.00062,0.00613,0.00275,0.00002,0.10007,3.27747
0.260,0,0,0,0,0,0,0,0,0,0,0,0,0,0,0,0,174.979919,33.653378,88.095650,68.113884,2.512259,15.959597,5.628882,17.604378,6.667593,17.750759,0,5.059315,3.886185,14.759431,6.291748,13.383536,7.809926,17.919537,8.165685,15.148374,8.276364,14.524140,8.471763,13.798401,9.033137,15.404876,10.530349,14.827299,10.530810,15.842826,0,0.00142,0.00056,0.00296,0.00054,0.00058,0.00060,0.00626,0.00266,0.00000,0.10015,3.27731
0.261,0,0,0,0,0,0,0,0,0,0,0,0,0,0,0,0,174.897385,33.535969,88.090454,67.724098,2.559877,15.958388,5.631440,17.593573,6.668975,17.776840,0,5.059362,3.890174,14.769886,6.290547,13.372513,7.809505,17.913216,8.169971,15.167241,8.274751,14.535458,8.463141,13.801939,9.032855,15.407954,10.526590,14.824308,10.525014,15.841461,0,0.00147,0.00056,0.00277,0.00055,0.00059,0.00060,0.00627,0.00261,0.00029,0.10044,3.27679
0.262,0,0,0,0,0,0,0,0,0,0,0,0,0,0,0,0,174.769043,33.512146,88.049355,67.303833,2.602179,15.956825,5.633998,17.581514,6.670274,17.804401,0,5.059534,3.893742,14.779716,6.290371,13.362380,7.808870,17.909943,8.173455,15.187536,8.273221,14.546375,8.455741,13.805646,9.033104,15.411659,10.522658,14.820724,10.518819,15.840288,0,0.00147,0.00056,0.00243,0.00061,0.00059,0.00060,0.00632,0.00260,0.00014,0.10033,3.27618
0.263,0,0,0,0,0,0,0,0,0,0,0,0,0,0,0,0,174.640717,33.488319,88.008255,66.883568,2.644481,15.955262,5.636556,17.569454,6.671572,17.831963,0,5.059706,3.897310,14.789548,6.290196,13.352246,7.808235,17.906670,8.176939,15.207830,8.271692,14.557293,8.448340,13.809353,9.033354,15.415364,10.518726,14.817141,10.512624,15.839116,0,0.00148,0.00056,0.00220,0.00064,0.00058,0.00058,0.00589,0.00260,0.00003,0.10014,3.27625
0.264,0,0,0,0,0,0,0,0,0,0,0,0,0,0,0,0,174.512375,33.464493,87.967155,66.463295,2.686783,15.953700,5.639114,17.557396,6.672871,17.859524,0,5.059878,3.900878,14.799378,6.290020,13.342113,7.807600,17.903397,8.180423,15.228125,8.270164,14.568211,8.440940,13.813061,9.033603,15.419069,10.514794,14.813557,10.506428,15.837943,0,0.00148,0.00058,0.00201,0.00071,0.00057,0.00059,0.00591,0.00262,0.00002,0.10042,3.27647
0.265,0,0,0,0,0,0,0,0,0,0,0,0,0,0,0,0,174.516846,33.575512,88.007309,66.055176,2.695964,15.951942,5.642179,17.549215,6.669745,17.892281,0,5.059795,3.901967,14.815024,6.294117,13.335876,7.803789,17.897045,8.178312,15.242849,8.263095,14.581967,8.431761,13.822056,9.035026,15.424012,10.511958,14.807819,10.503461,15.834228,0,0.00152,0.00060,0.00183,0.00087,0.00057,0.00059,0.00590,0.00268,0.00002,0.10034,3.27695
0.266,0,0,0,0,0,0,0,0,0,0,0,0,0,0,0,0,174.552887,33.718571,88.066765,65.649948,2.697276,15.950140,5.645363,17.541958,6.665568,17.926273,0,5.059652,3.902468,14.832052,6.299228,13.330566,7.799225,17.889961,8.174873,15.256251,8.254709,14.596399,8.422160,13.832309,9.036729,15.429250,10.509383,14.801570,10.501260,15.829908,0,0.00152,0.00061,0.00172,0.00090,0.00056,0.00058,0.00588,0.00273,-0.00012,0.10012,3.27748
0.267,0,0,0,0,0,0,0,0,0,0,0,0,0,0,0,0,174.588928,33.861629,88.126221,65.244713,2.698587,15.948337,5.648548,17.534698,6.661390,17.960264,0,5.059509,3.902968,14.849080,6.304340,13.325255,7.794660,17.882875,8.171434,15.269652,8.246325,14.610831,8.412559,13.842561,9.038431,15.434486,10.506808,14.795321,10.499060,15.825589,0,0.00151,0.00062,0.00172,0.00093,0.00057,0.00060,0.00553,0.00271,0.00015,0.10022,3.27747
0.268,0,0,0,0,0,0,0,0,0,0,0,0,0,0,0,0,174.624969,34.004692,88.185677,64.839485,2.699898,15.946534,5.651732,17.527441,6.657213,17.994257,0,5.059366,3.903469,14.866108,6.309452,13.319944,7.790096,17.875792,8.167994,15.283054,8.237939,14.625263,8.402957,13.852814,9.040133,15.439724,10.504233,14.789072,10.496860,15.821270,0,0.00142,0.00062,0.00170,0.00095,0.00056,0.00061,0.00488,0.00265,0.00015,0.10034,3.27731
0.269,0,0,0,0,0,0,0,0,0,0,0,0,0,0,0,0,174.515793,34.108616,88.360512,64.516495,2.651239,15.942786,5.654676,17.513834,6.673111,18.020107,0,5.059216,3.902156,14.877412,6.313550,13.309777,7.789223,17.869682,8.162967,15.298623,8.230487,14.642792,8.391103,13.863282,9.041012,15.443389,10.500680,14.783363,10.492781,15.818843,0,0.00141,0.00062,0.00168,0.00098,0.00055,0.00061,0.00448,0.00256,-0.00002,0.10029,3.27747
0.270,0,0,0,0,0,0,0,0,0,0,0,0,0,0,0,0,174.372086,34.203239,88.562775,64.213051,2.590705,15.938576,5.657564,17.498718,6.693781,18.044022,0,5.059066,3.900412,14.887356,6.317409,13.298455,7.789227,17.863804,8.157560,15.314708,8.223256,14.661057,8.378715,13.873801,9.041695,15.446680,10.496894,14.777783,10.488256,15.816867,0,0.00144,0.00061,0.00158,0.00098,0.00056,0.00060,0.00434,0.00239,0.00014,0.10004,3.27769
0.271,0,0,0,0,0,0,0,0,0,0,0,0,0,0,0,0,174.228394,34.297867,88.765030,63.909611,2.530172,15.934365,5.660451,17.483603,6.714450,18.067936,0,5.058915,3.898668,14.897300,6.321267,13.287134,7.789231,17.857925,8.152155,15.330791,8.216025,14.679322,8.366325,13.884321,9.042377,15.449971,10.493108,14.772203,10.483731,15.814890,0,0.00150,0.00063,0.00141,0.00099,0.00054,0.00060,0.00413,0.00234,0.00015,0.10007,3.27756
0.272,0,0,0,0,0,0,0,0,0,0,0,0,0,0,0,0,174.084686,34.392490,88.967293,63.606167,2.469639,15.930156,5.663338,17.468489,6.735119,18.091852,0,5.058764,3.896924,14.907244,6.325125,13.275812,7.789235,17.852047,8.146749,15.346876,8.208795,14.697588,8.353936,13.894840,9.043060,15.453262,10.489322,14.766623,10.479206,15.812914,0,0.00164,0.00063,0.00142,0.00101,0.00053,0.00059,0.00367,0.00208,0.00017,0.10019,3.27733
0.273,0,0,0,0,0,0,0,0,0,0,0,0,0,0,0,0,174.218246,34.262486,89.228058,63.406101,2.369818,15.928262,5.665754,17.453644,6.745936,18.110439,0,5.059014,3.893617,14.913688,6.322161,13.258502,7.791741,17.838341,8.146718,15.358325,8.200762,14.708419,8.342467,13.902639,9.041947,15.454835,10.487209,14.763536,10.475590,15.810608,0,0.00173,0.00063,0.00145,0.00102,0.00052,0.00058,0.00356,0.00189,-0.00014,0.10003,3.27698
0.274,0,0,0,0,0,0,0,0,0,0,0,0,0,0,0,0,174.417694,34.079105,89.502716,63.230598,2.260662,15.926918,5.668059,17.438866,6.754411,18.127760,0,5.059360,3.889940,14.919299,6.317577,13.239769,7.794841,17.822773,8.147964,15.368673,8.192539,14.717484,8.331217,13.909792,9.040408,15.455998,10.485496,14.761044,10.472189,15.808224,0,0.00162,0.00064,0.00147,0.00103,0.00051,0.00058,0.00348,0.00183,0.00002,0.09992,3.27660
0.275,0,0,0,0,0,0,0,0,0,0,0,0,0,0,0,0,174.617142,33.895721,89.777382,63.055096,2.151506,15.925575,5.670364,17.424088,6.762886,18.145081,0,5.059705,3.886262,14.924911,6.312993,13.221036,7.797941,17.807207,8.149210,15.379021,8.184316,14.726548,8.319966,13.916945,9.038869,15.457162,10.483781,14.758550,10.468788,15.805840,0,0.00162,0.00065,0.00139,0.00104,0.00051,0.00058,0.00318,0.00183,0.00027,0.10009,3.27676
0.276,0,0,0,0,0,0,0,0,0,0,0,0,0,0,0,0,174.816574,33.712341,90.052048,62.879593,2.042350,15.924232,5.672669,17.409309,6.771361,18.162401,0,5.060051,3.882584,14.930523,6.308409,13.202303,7.801041,17.791639,8.150456,15.389369,8.176093,14.735613,8.308716,13.924098,9.037330,15.458325,10.482066,14.756057,10.465388,15.803455,0,0.00169,0.00065,0.00124,0.00104,0.00050,0.00059,0.00300,0.00178,0.00014,0.10018,3.27707
0.277,0,0,0,0,0,0,0,0,0,0,0,0,0,0,0,0,175.725922,33.512985,90.307724,62.847214,1.897170,15.925345,5.674653,17.393919,6.772568,18.168577,0,5.060730,3.877945,14.932743,6.304378,13.190855,7.802064,17.776781,8.148463,15.399093,8.171962,14.742872,8.291648,13.931988,9.034476,15.461505,10.477596,14.753239,10.462100,15.800516,0,0.00170,0.00069,0.00112,0.00107,0.00050,0.00058,0.00253,0.00129,0.00002,0.09989,3.27707
0.278,0,0,0,0,0,0,0,0,0,0,0,0,0,0,0,0,176.803940,33.309830,90.558884,62.848839,1.743430,15.927043,5.676560,17.378386,6.772048,18.172104,0,5.061490,3.873077,14.934156,6.300478,13.181140,7.802595,17.762093,8.145700,15.408668,8.168802,14.749702,8.273198,13.940052,9.031310,15.465164,10.472472,14.750344,10.458838,15.797444,0,0.00170,0.00069,0.00109,0.00108,0.00051,0.00061,0.00208,0.00111,0.00029,0.09976,3.27699
0.279,0,0,0,0,0,0,0,0,0,0,1,0,0,0,0,0,177.881973,33.106678,90.810043,62.850468,1.589689,15.928741,5.678468,17.362852,6.771527,18.175631,0,5.062249,3.868209,14.935571,6.296578,13.171424,7.803126,17.747404,8.142938,15.418243,8.165644,14.756533,8.254748,13.948117,9.028144,15.468823,10.467348,14.747449,10.455577,15.794374,0,0.00172,0.00069,0.00106,0.00109,0.00053,0.00061,0.00206,0.00105,-0.00014,0.09998,3.27710
0.280,0,0,0,0,0,0,0,0,0,0,0,0,0,0,0,0,178.959991,32.903522,91.061203,62.852093,1.435949,15.930437,5.680375,17.347319,6.771007,18.179157,0,5.063007,3.863341,14.936984,6.292678,13.161708,7.803657,17.732716,8.140175,15.427818,8.162485,14.763363,8.236298,13.956182,9.024978,15.472483,10.462224,14.744555,10.452315,15.791302,0,0.00178,0.00069,0.00105,0.00109,0.00053,0.00062,0.00143,0.00092,0.00029,0.09992,3.27725
0.281,0,0,0,0,0,0,0,0,0,0,0,0,0,0,0,0,179.093597,33.474136,91.168755,62.987911,1.267273,15.930810,5.681693,17.335571,6.769133,18.192806,0,5.063817,3.857994,14.934485,6.288457,13.148589,7.807402,17.715448,8.124071,15.435333,8.154851,14.772431,8.223146,13.967334,9.020562,15.476048,10.456238,14.744243,10.450637,15.789484,0,0.00196,0.00068,0.00105,0.00110,0.00052,0.00063,0.00127,0.00092,0.00031,0.09949,3.27716
0.282,0,0,0,0,0,0,0,0,0,0,0,0,0,0,0,0,179.002777,34.228615,91.242188,63.155613,1.095048,15.930868,5.682871,17.324722,6.766937,18.208860,0,5.064637,3.852533,14.931058,6.284159,13.134662,7.811911,17.697569,8.104797,15.442358,8.146153,14.782032,8.211254,13.979219,9.015850,15.479589,10.450047,14.744544,10.449336,15.787964,0,0.00201,0.00067,0.00104,0.00106,0.00052,0.00065,0.00120,0.00089,0.00002,0.09955,3.27701
0.283,0,0,0,0,0,0,0,0,0,0,0,0,0,0,0,0,178.911957,34.983097,91.315613,63.323318,0.922823,15.930926,5.684050,17.313873,6.764741,18.224916,0,5.065458,3.847071,14.927629,6.279862,13.120735,7.816420,17.679691,8.085524,15.449383,8.137457,14.791633,8.199362,13.991104,9.011138,15.483132,10.443856,14.744845,10.448034,15.786444,0,0.00202,0.00066,0.00102,0.00102,0.00052,0.00065,0.00112,0.00081,0.00002,0.09975,3.27704
0.284,0,0,0,0,0,0,0,0,0,0,0,0,0,0,0,0,178.821152,35.737576,91.389038,63.491020,0.750598,15.930984,5.685228,17.303026,6.762545,18.240971,0,5.066279,3.841610,14.924201,6.275564,13.106808,7.820928,17.661812,8.066249,15.456409,8.128759,14.801233,8.187469,14.002990,9.006426,15.486674,10.437665,14.745147,10.446733,15.784924,0,0.00207,0.00065,0.00091,0.00096,0.00053,0.00066,0.00093,0.00082,0.00014,0.09956,3.27711
0.285,0,0,0,0,0,0,0,0,0,0,0,0,0,0,0,0,178.988388,36.968246,91.317390,63.933361,0.587246,15.932534,5.685700,17.297983,6.756137,18.248270,0,5.066426,3.835280,14.921001,6.278301,13.092166,7.821177,17.649487,8.028703,15.444353,8.106129,14.794930,8.181367,14.004607,8.994215,15.483739,10.429790,14.742853,10.440523,15.781405,0,0.00208,0.00063,0.00087,0.00079,0.00053,0.00067,0.00079,0.00076,0.00014,0.09933,3.27762
0.286,0,0,0,0,0,0,0,0,0,0,0,0,0,0,0,0,179.216949,38.312073,91.211258,64.440964,0.426003,15.934440,5.686005,17.294321,6.748729,18.253490,0,5.066413,3.828744,14.917856,6.282709,13.077353,7.820412,17.638483,7.986814,15.427765,8.080186,14.784847,8.176639,14.003784,8.980223,15.479265,10.421515,14.739943,10.433146,15.777413,0,0.00215,0.00064,0.00086,0.00079,0.00061,0.00069,0.00074,0.00077,-0.00014,0.09957,3.27823
0.287,0,0,0,0,0,0,0,0,0,0,0,0,0,0,0,0,179.445496,39.655895,91.105133,64.948563,0.264760,15.936345,5.686310,17.290657,6.741322,18.258711,0,5.066400,3.822207,14.914711,6.287117,13.062542,7.819647,17.627478,7.944925,15.411177,8.054244,14.774764,8.171911,14.002961,8.966231,15.474792,10.413239,14.737031,10.425771,15.773420,0,0.00230,0.00065,0.00079,0.00078,0.00067,0.00069,0.00072,0.00076,0.00003,0.09966,3.27786
0.288,0,0,0,0,0,0,0,0,0,0,0,0,0,0,0,0,179.674057,40.999722,90.999008,65.456169,0.103517,15.938251,5.686615,17.286995,6.733913,18.263931,0,5.066387,3.815671,14.911566,6.291524,13.047729,7.818883,17.616474,7.903037,15.394588,8.028302,14.764682,8.167184,14.002139,8.952239,15.470318,10.404963,14.734120,10.418395,15.769428,0,0.00251,0.00064,0.00078,0.00079,0.00074,0.00069,0.00077,0.00078,-0.00024,0.09943,3.27725
