"Time","1 Synch","2 Trdml","3 Platform","4 GM","5 Ip","6 BF","7 VL","8 St","9 TA","10 Gs","11 Gr","13 Crx (cm)","14 Cry (cm)","15 Hipx (cm)","16 Hipy (cm)","17 Knee x","18 Knee y","19 ankx (cm)","20 anky (cm)","21 MTPx (cm)","22 MTPy (cm)","23 toex (cm)","24 toey (cm)","25 FLtx (cm)","26 FLty (cm)","27 HLx (cm)","28 HLy (cm)","29 HRx (cm)","30 HRy (cm)","31 Keyboard","32 FLx (cm)","33 FLy (cm)","34 FRx (cm)","35 FRy (cm)","36 CoMx (cm)","37 CoMy (cm)","38 Hip (deg)","39 Knee (deg","40 Ankle (de","41 MTP (deg)","42 Rump up","43 Ramp down","44 sw onset","45 sw offset","12 Synch","46 Sw rmp up","47 St rmp up","48 Sw rmp dw","49 St rmp dw","50 Sinus rmp","51 HLl Sw on","52 HLl Sw of","53 HLr Sw on","54 HLr Sw of","55 FLl Sw on","56 FLl Sw of","57 FLr Sw on","58 FLr Sw of","59 Left DS","60 Right DS","61 Ramp up","62 Ramp down","63 rmp up sw","64 rmp up st","65 rm dwn sw","66 rm dwn st"
0.000,3.27718,0.10030,-1.47919,0.00183,0.00234,0.00069,0.00054,0.00055,0.00099,0.00064,0.00128,,,,,,,,,,,,,,,,,,,0,,,,,,,,,,,0,0,0,0,0,0,0,0,0,0,0,0,0,0,0,0,0,0,0,0,0,0,0,0,0,0
0.001,3.27675,0.10015,-1.48071,0.00230,0.00246,0.00068,0.00054,0.00054,0.00100,0.00066,0.00126,,,,,,,,,,,,,,,,,,,0,,,,,,,,,,,0,0,0,0,0,0,0,0,0,0,0,0,0,0,0,0,0,0,0,0,0,0,0,0,0,0
0.002,3.27691,0.10045,-1.48087,0.00252,0.00223,0.00071,0.00058,0.00054,0.00100,0.00069,0.00142,,,,,,,,,,,,,,,,,,,0,,,,,,,,,,,0,0,0,0,0,0,0,0,0,0,0,0,0,0,0,0,0,0,0,0,0,0,0,0,0,0
0.003,3.27724,0.10059,-1.47522,0.00260,0.00222,0.00071,0.00060,0.00057,0.00099,0.00068,0.00167,,,,,,,,,,,,,,,,,,,0,,,,,,,,,,,0,0,0,0,0,0,0,0,0,0,0,0,0,0,0,0,0,0,0,0,0,0,0,0,0,0
0.004,3.27734,0.10043,-1.48003,0.00262,0.00189,0.00072,0.00061,0.00059,0.00103,0.00068,0.00212,,,,,,,,,,,,,,,,,,,0,,,,,,,,,,,0,0,0,0,0,0,0,0,0,0,0,0,0,0,0,0,0,0,0,0,0,0,0,0,0,0
0.005,3.27689,0.10045,-1.47820,0.00260,0.00190,0.00072,0.00063,0.00059,0.00105,0.00070,0.00238,,,,,,,,,,,,,,,,,,,0,,,,,,,,,,,0,0,0,0,0,0,0,0,0,0,0,0,0,0,0,0,0,0,0,0,0,0,0,0,0,0
0.006,3.27607,0.10081,-1.47888,0.00266,0.00176,0.00073,0.00065,0.00059,0.00110,0.00068,0.00274,,,,,,,,,,,,,,,,,,,0,,,,,,,,,,,0,0,0,0,0,0,0,0,0,0,0,0,0,0,0,0,0,0,0,0,0,0,0,0,0,0
0.007,3.27575,0.10053,-1.48010,0.00267,0.00172,0.00071,0.00066,0.00057,0.00103,0.00068,0.00273,,,,,,,,,,,,,,,,,,,0,,,,,,,,,,,0,0,0,0,0,0,0,0,0,0,0,0,0,0,0,0,0,0,0,0,0,0,0,0,0,0
0.008,3.27617,0.10035,-1.47919,0.00261,0.00166,0.00070,0.00065,0.00060,0.00081,0.00069,0.00276,,,,,,,,,,,,,,,,,,,0,,,,,,,,,,,0,0,0,0,0,0,0,0,0,0,0,0,0,0,0,0,0,0,0,0,0,0,0,0,0,0
0.009,3.27666,0.10072,-1.47629,0.00206,0.00183,0.00075,0.00064,0.00064,0.00077,0.00074,0.00273,,,,,,,,,,,,,,,,,,,0,,,,,,,,,,,0,0,0,0,0,0,0,0,0,0,0,0,0,0,0,0,0,0,0,0,0,0,0,0,0,0
0.010,3.27687,0.10069,-1.47835,0.00170,0.00189,0.00077,0.00062,0.00066,0.00074,0.00080,0.00280,,,,,,,,,,,,,,,,,,,0,,,,,,,,,,,0,0,0,0,0,0,0,0,0,0,0,0,0,0,0,0,0,0,0,0,0,0,0,0,0,0
0.011,3.27707,0.10039,-1.47919,0.00133,0.00180,0.00076,0.00064,0.00069,0.00073,0.00079,0.00283,,,,,,,,,,,,,,,,,,,0,,,,,,,,,,,0,0,0,0,0,0,0,0,0,0,0,0,0,0,0,0,0,0,0,0,0,0,0,0,0,0
0.012,3.27734,0.10042,-1.47758,0.00132,0.00177,0.00074,0.00061,0.00070,0.00071,0.00079,0.00268,,,,,,,,,,,,,,,,,,,0,,,,,,,,,,,0,0,0,0,0,0,0,0,0,0,0,0,0,0,0,0,0,0,0,0,0,0,0,0,0,0
0.013,3.27743,0.10075,-1.48018,0.00137,0.00149,0.00074,0.00062,0.00070,0.00073,0.00082,0.00241,,,,,,,,,,,,,,,,,,,0,,,,,,,,,,,0,0,0,0,0,0,0,0,0,0,0,0,0,0,0,0,0,0,0,0,0,0,0,0,0,0
0.014,3.27721,0.10048,-1.47873,0.00214,0.00158,0.00074,0.00059,0.00073,0.00091,0.00083,0.00210,,,,,,,,,,,,,,,,,,,0,,,,,,,,,,,0,0,0,0,0,0,0,0,0,0,0,0,0,0,0,0,0,0,0,0,0,0,0,0,0,0
0.015,3.27683,0.10019,-1.47926,0.00231,0.00144,0.00075,0.00059,0.00074,0.00093,0.00081,0.00215,,,,,,,,,,,,,,,,,,,0,,,,,,,,,,,0,0,0,0,0,0,0,0,0,0,0,0,0,0,0,0,0,0,0,0,0,0,0,0,0,0
0.016,3.27651,0.10062,-1.47934,0.00236,0.00141,0.00071,0.00058,0.00076,0.00092,0.00078,0.00202,,,,,,,,,,,,,,,,,,,0,,,,,,,,,,,0,0,0,0,0,0,0,0,0,0,0,0,0,0,0,0,0,0,0,0,0,0,0,0,0,0
0.017,3.27663,0.10057,-1.47873,0.00231,0.00148,0.00072,0.00058,0.00079,0.00093,0.00086,0.00197,,,,,,,,,,,,,,,,,,,0,,,,,,,,,,,0,0,0,0,0,0,0,0,0,0,0,0,0,0,0,0,0,0,0,0,0,0,0,0,0,0
0.018,3.27721,0.10023,-1.47972,0.00233,0.00150,0.00067,0.00057,0.00081,0.00090,0.00095,0.00190,,,,,,,,,,,,,,,,,,,0,,,,,,,,,,,0,0,0,0,0,0,0,0,0,0,0,0,0,0,0,0,0,0,0,0,0,0,0,0,0,0
0.019,3.27774,0.10035,-1.47995,0.00271,0.00151,0.00063,0.00055,0.00080,0.00089,0.00105,0.00220,,,,,,,,,,,,,,,,,,,0,,,,,,,,,,,0,0,0,0,0,0,0,0,0,0,0,0,0,0,0,0,0,0,0,0,0,0,0,0,0,0
0.020,3.27784,0.10054,-1.48087,0.00300,0.00140,0.00064,0.00055,0.00081,0.00087,0.00107,0.00278,,,,,,,,,,,,,,,,,,,0,,,,,,,,,,,0,0,0,0,0,0,0,0,0,0,0,0,0,0,0,0,0,0,0,0,0,0,0,0,0,0
0.021,3.27733,0.10025,-1.47835,0.00295,0.00143,0.00064,0.00055,0.00077,0.00087,0.00113,0.00345,,,,,,,,,,,,,,,,,,,0,,,,,,,,,,,0,0,0,0,0,0,0,0,0,0,0,0,0,0,0,0,0,0,0,0,0,0,0,0,0,0
0.022,3.27645,0.10000,-1.48094,0.00276,0.00141,0.00066,0.00052,0.00073,0.00084,0.00114,0.00375,,,,,,,,,,,,,,,,,,,0,,,,,,,,,,,0,0,0,0,0,0,0,0,0,0,0,0,0,0,0,0,0,0,0,0,0,0,0,0,0,0
0.023,3.27599,0.10031,-1.47949,0.00280,0.00151,0.00070,0.00053,0.00075,0.00083,0.00110,0.00392,,,,,,,,,,,,,,,,,,,0,,,,,,,,,,,0,0,0,0,0,0,0,0,0,0,0,0,0,0,0,0,0,0,0,0,0,0,0,0,0,0
0.024,3.27623,0.10032,-1.48010,0.00206,0.00141,0.00069,0.00057,0.00071,0.00067,0.00113,0.00430,,,,,,,,,,,,,,,,,,,0,,,,,,,,,,,0,0,0,0,0,0,0,0,0,0,0,0,0,0,0,0,0,0,0,0,0,0,0,0,0,0
0.025,3.27667,0.10012,-1.47957,0.00188,0.00140,0.00067,0.00055,0.00068,0.00074,0.00116,0.00419,,,,,,,,,,,,,,,,,,,0,,,,,,,,,,,0,0,0,0,0,0,0,0,0,0,0,0,0,0,0,0,0,0,0,0,0,0,0,0,0,0
0.026,3.27703,0.09998,-1.48048,0.00190,0.00148,0.00064,0.00052,0.00070,0.00089,0.00118,0.00424,,,,,,,,,,,,,,,,,,,0,,,,,,,,,,,0,0,0,0,0,0,0,0,0,0,0,0,0,0,0,0,0,0,0,0,0,0,0,0,0,0
0.027,3.27745,0.10014,-1.47835,0.00197,0.00153,0.00063,0.00053,0.00071,0.00100,0.00115,0.00419,,,,,,,,,,,,,,,,,,,0,,,,,,,,,,,0,0,0,0,0,0,0,0,0,0,0,0,0,0,0,0,0,0,0,0,0,0,0,0,0,0
0.028,3.27785,0.10010,-1.48308,0.00196,0.00158,0.00067,0.00053,0.00075,0.00106,0.00102,0.00425,,,,,,,,,,,,,,,,,,,0,,,,,,,,,,,0,0,0,0,0,0,0,0,0,0,0,0,0,0,0,0,0,0,0,0,0,0,0,0,0,0
0.029,3.27780,0.09985,-1.47858,0.00153,0.00136,0.00068,0.00055,0.00078,0.00111,0.00090,0.00410,,,,,,,,,,,,,,,,,,,0,,,,,,,,,,,0,0,0,0,0,0,0,0,0,0,0,0,0,0,0,0,0,0,0,0,0,0,0,0,0,0
0.030,3.27728,0.09993,-1.47842,0.00119,0.00129,0.00065,0.00056,0.00071,0.00116,0.00083,0.00385,,,,,,,,,,,,,,,,,,,0,,,,,,,,,,,0,0,0,0,0,0,0,0,0,0,0,0,0,0,0,0,0,0,0,0,0,0,0,0,0,0
0.031,3.27689,0.10009,-1.47934,0.00113,0.00122,0.00064,0.00056,0.00077,0.00121,0.00081,0.00313,,,,,,,,,,,,,,,,,,,0,,,,,,,,,,,0,0,0,0,0,0,0,0,0,0,0,0,0,0,0,0,0,0,0,0,0,0,0,0,0,0
0.032,3.27699,0.09986,-1.47835,0.00105,0.00109,0.00062,0.00058,0.00083,0.00122,0.00077,0.00317,,,,,,,,,,,,,,,,,,,0,,,,,,,,,,,0,0,0,0,0,0,0,0,0,0,0,0,0,0,0,0,0,0,0,0,0,0,0,0,0,0
0.033,3.27751,0.09953,-1.47980,0.00095,0.00097,0.00058,0.00056,0.00083,0.00122,0.00091,0.00318,15.399072,10.591249,14.285133,10.296603,,,14.286400,8.208154,14.840015,8.068245,15.491359,8.004376,16.952365,7.979742,13.619017,7.169500,15.441580,4.626234,0,18.446907,6.350848,16.953224,4.858152,16.255762,6.358870,57.392488,87.351818,58.571649,171.743614,0,0,0,0,0,0,0,0,0,0,0,0,0,0,0,0,0,0,0,0,0,0,0,0,0,0
0.034,3.27809,0.09978,-1.47896,0.00084,0.00098,0.00061,0.00053,0.00085,0.00120,0.00094,0.00284,15.387054,10.590538,14.278747,10.294906,,,14.277599,8.203998,14.824763,8.067108,15.478048,8.002353,16.939240,7.976486,13.905763,7.176824,15.442009,4.618978,0,18.436244,6.348156,16.940348,4.862433,16.243522,6.359236,57.363418,87.055519,58.084364,171.900708,0,0,0,0,0,0,0,0,0,0,0,0,0,0,0,0,0,0,0,0,0,0,0,0,0,0
0.035,3.27809,0.09992,-1.47835,0.00125,0.00093,0.00059,0.00054,0.00098,0.00112,0.00097,0.00313,15.375283,10.589754,14.272028,10.293090,,,14.267009,8.200387,14.810192,8.066142,15.465371,8.000936,16.926424,7.973550,14.169613,7.182848,15.440133,4.613435,0,18.425418,6.345340,16.927660,4.865517,16.232223,6.358613,57.344534,86.799114,57.583103,172.132639,0,0,0,0,0,0,0,0,0,0,0,0,0,0,0,0,0,0,0,0,0,0,0,0,0,0
0.036,3.27742,0.09959,-1.47911,0.00140,0.00092,0.00062,0.00057,0.00100,0.00091,0.00098,0.00324,15.363940,10.588844,14.264731,10.291069,,,14.253319,8.197719,14.796800,8.065472,15.453795,8.000570,16.914144,7.971166,14.393828,7.186622,15.434267,4.610858,0,18.414311,6.342311,16.915297,4.866528,16.222552,6.356280,57.343281,86.611765,57.057648,172.494110,0,0,0,0,0,0,0,0,0,0,0,0,0,0,0,0,0,0,0,0,0,0,0,0,0,0
0.037,3.27682,0.09930,-1.47911,0.00141,0.00096,0.00063,0.00059,0.00102,0.00081,0.00097,0.00356,15.353204,10.587757,14.256613,10.288762,15.357461,9.294875,14.235259,8.196383,14.785073,8.065225,15.443766,8.001688,16.902621,7.969570,14.561707,7.187225,15.422766,4.612467,0,18.402804,6.338981,16.903400,4.864616,16.215176,6.351536,57.366921,86.522054,56.498194,173.038536,0,0,0,0,0,0,0,0,0,0,0,0,0,0,0,0,0,0,0,0,0,0,0,0,0,0
0.038,3.27677,0.09974,-1.47972,0.00144,0.00101,0.00062,0.00058,0.00096,0.00075,0.00098,0.00376,15.343224,10.586562,14.247433,10.286422,15.341957,9.293178,14.213280,8.196280,14.774864,8.065650,15.434995,8.004223,16.891867,7.969056,14.658259,7.185087,15.405858,4.617866,0,18.390730,6.335456,16.892149,4.860084,16.209827,6.344841,57.414022,86.531082,55.914368,173.758138,0,0,0,0,0,0,0,0,0,0,0,1,0,0,0,0,0,0,0,0,0,0,0,0,0,0
0.039,3.27717,0.09967,-1.47903,0.00149,0.00108,0.00062,0.00057,0.00087,0.00074,0.00100,0.00384,15.334108,10.585493,14.236956,10.284768,15.326449,9.291596,14.190273,8.196624,14.765142,8.067169,15.426145,8.007406,16.881598,7.970002,14.670911,7.182551,15.386423,4.624382,0,18.377862,6.332109,16.881791,4.854867,16.204907,6.338282,57.470865,86.601109,55.343270,174.558645,0,0,0,0,0,0,0,0,0,0,0,0,0,0,0,0,0,0,0,0,0,0,0,0,0,0
0.040,3.27776,0.09933,-1.47896,0.00154,0.00128,0.00065,0.00056,0.00088,0.00070,0.00096,0.00378,15.325959,10.584799,14.224946,10.284555,15.310936,9.290214,14.169314,8.196575,14.754807,8.070214,15.415801,8.010413,16.871510,7.972792,14.587273,7.182103,15.367538,4.629168,0,18.363966,6.329338,16.872573,4.851026,16.198722,6.334072,57.522800,86.691454,54.824078,175.339244,0,0,0,0,0,0,0,0,0,0,0,0,0,0,0,0,0,0,0,0,0,0,0,0,0,0
0.041,3.27812,0.09960,-1.47720,0.00156,0.00144,0.00066,0.00056,0.00085,0.00085,0.00090,0.00380,15.318868,10.584723,14.211178,10.286517,15.295418,9.289114,14.153426,8.195307,14.742774,8.075203,15.402577,8.012432,16.861295,7.977790,14.395583,7.186187,15.352237,4.629429,0,18.348819,6.327533,16.864736,4.850584,16.189603,6.334382,57.555475,86.761884,54.395742,175.999663,0,0,0,0,0,0,0,0,0,0,0,0,0,0,0,0,0,0,0,0,0,0,0,0,0,0
0.042,3.27805,0.09990,-1.47888,0.00160,0.00144,0.00068,0.00053,0.00080,0.00108,0.00097,0.00342,15.312371,10.585272,14.195883,10.290475,15.280070,9.288258,14.143212,8.192501,14.728740,8.081714,15.386459,8.013162,16.850706,7.984325,14.113850,7.195189,15.341391,4.624758,0,18.332702,6.326966,16.858058,4.853955,16.177260,6.339427,57.568671,86.793428,54.086409,176.465260,0,0,0,0,0,0,0,0,0,0,0,0,0,0,0,0,0,0,0,0,0,0,0,0,0,0
0.043,3.27779,0.09959,-1.47896,0.00159,0.00139,0.00068,0.00049,0.00077,0.00112,0.00084,0.00320,15.305210,10.586119,14.179940,10.294950,15.265306,9.287441,14.135850,8.188561,14.713508,8.088140,15.369370,8.013031,16.839569,7.990267,13.802162,7.206590,15.332811,4.618130,0,18.316610,6.327735,16.851668,4.859271,16.163348,6.346657,57.582146,86.797158,53.908954,176.697631,0,0,0,0,0,0,0,0,0,0,0,0,0,0,0,0,0,0,0,0,0,0,0,0,0,0
0.044,3.27750,0.09944,-1.47888,0.00163,0.00137,0.00066,0.00049,0.00073,0.00111,0.00075,0.00353,15.296071,10.586914,14.164276,10.298369,15.251560,9.286445,14.128262,8.183944,14.697961,8.092786,15.353383,8.012517,16.827720,7.993377,13.523791,7.217653,15.324080,4.612773,0,18.301591,6.329924,16.844644,4.864494,16.149669,6.353310,57.617168,86.786425,53.875098,176.661107,0,0,0,0,0,0,0,0,0,0,0,0,0,0,0,0,0,0,0,0,0,0,0,0,0,0
0.045,3.27715,0.09980,-1.47903,0.00131,0.00141,0.00067,0.00049,0.00065,0.00109,0.00067,0.00346,15.283664,10.587309,14.149808,10.299181,15.239258,9.285053,14.117414,8.179110,14.682975,8.093982,15.340532,8.012097,16.814996,7.991460,13.341122,7.225674,15.312809,4.611859,0,18.288677,6.333611,16.836071,4.867613,16.137995,6.356666,57.694862,86.774439,53.995597,176.321693,0,0,0,0,0,0,0,0,0,0,0,0,0,0,0,0,0,0,0,0,0,0,0,0,0,0
0.046,3.27686,0.09985,-1.47850,0.00110,0.00147,0.00069,0.00053,0.00063,0.00106,0.00062,0.00319,15.267939,10.587200,14.136953,10.296966,15.228403,9.283083,14.102502,8.174599,14.668915,8.091291,15.331075,8.011935,16.801484,7.984579,13.274605,7.229592,15.298107,4.615813,0,18.278121,6.338515,16.825385,4.867914,16.128783,6.355808,57.829492,86.767969,54.235533,175.724481,0,0,0,0,0,0,0,0,0,0,0,0,0,0,0,0,0,0,0,0,0,0,0,0,0,0
0.047,3.27689,0.09970,-1.47781,0.00108,0.00142,0.00071,0.00051,0.00065,0.00107,0.00059,0.00295,15.250598,10.586823,14.125420,10.292909,15.218405,9.280402,14.085868,8.171065,14.655428,8.086014,15.322764,8.011763,16.787611,7.975982,13.285408,7.230678,15.281198,4.621181,0,18.269074,6.343849,16.812514,4.866518,16.120620,6.352378,58.025626,86.764678,54.495423,175.026355,0,0,0,0,0,0,0,0,0,0,0,0,0,0,0,0,0,0,0,0,0,0,0,0,0,0
0.048,3.27720,0.09961,-1.47926,0.00102,0.00136,0.00068,0.00051,0.00069,0.00108,0.00060,0.00413,15.233474,10.586439,14.114868,10.288312,15.208627,9.276884,14.070095,8.169174,14.642106,8.079584,15.313162,8.011280,16.773835,7.969157,13.330216,7.230373,15.263463,4.624213,0,18.260604,6.348786,16.797423,4.864684,16.111955,6.348208,58.287099,86.761539,54.670900,174.392654,0,0,0,0,0,0,0,0,0,0,0,0,0,0,0,0,0,0,0,0,0,0,0,0,0,0
0.049,3.27723,0.09988,-1.47743,0.00097,0.00130,0.00067,0.00053,0.00071,0.00107,0.00058,0.00438,15.218378,10.586307,14.104954,10.284463,15.198436,9.272404,14.057710,8.169574,14.628548,8.073424,15.299872,8.010191,16.760602,7.967539,13.366183,7.230100,15.246276,4.621230,0,18.251786,6.352512,16.780087,4.863655,16.101261,6.345107,58.617383,86.755503,54.659148,173.986404,0,0,0,0,0,0,0,0,0,0,0,0,0,0,0,0,0,0,0,0,0,0,0,0,0,0
0.050,3.27686,0.09987,-1.47995,0.00095,0.00111,0.00065,0.00054,0.00071,0.00107,0.00060,0.00433,15.206060,10.586590,14.095482,10.281885,15.187389,9.266994,14.048768,8.172248,14.614701,8.068479,15.282479,8.008515,16.747911,7.972005,13.372781,7.230224,15.230476,4.611771,0,18.242003,6.354662,16.761009,4.863747,16.088275,6.343795,59.002724,86.742583,54.430792,173.860892,0,0,0,0,0,0,0,0,0,0,0,0,0,0,0,0,0,0,0,0,0,0,0,0,0,0
0.051,3.27665,0.09966,-1.47949,0.00095,0.00098,0.00066,0.00053,0.00073,0.00089,0.00064,0.00462,15.195771,10.587312,14.086454,10.280019,15.175306,9.260914,14.039821,8.176234,14.600998,8.065010,15.263366,8.006712,16.735130,7.979817,13.361025,7.229615,15.216151,4.599928,0,18.231073,6.355513,16.741433,4.863974,16.074517,6.343445,59.405028,86.717455,54.060269,173.914293,0,0,0,0,0,0,0,0,0,0,0,0,0,0,0,0,0,0,0,0,0,0,0,0,0,0
0.052,3.27686,0.09979,-1.47911,0.00129,0.00104,0.00064,0.00054,0.00074,0.00064,0.00063,0.00498,15.186647,10.588487,14.077890,10.278225,15.162028,9.254439,14.027158,8.180500,14.587908,8.063232,15.245129,8.005278,16.721577,7.987964,13.344317,7.227033,15.203332,4.590137,0,18.218847,6.355391,16.722660,4.863251,16.061643,6.343114,59.784355,86.674699,53.629867,174.033047,0,0,0,0,0,0,0,0,0,0,0,0,0,0,0,0,0,0,0,0,0,0,0,0,0,0
0.053,3.27730,0.10011,-1.47865,0.00167,0.00108,0.00066,0.00054,0.00075,0.00057,0.00065,0.00517,15.177832,10.590126,14.069803,10.275875,15.147407,9.247846,14.007141,8.184021,14.575895,8.063342,15.230326,8.004699,16.706592,7.993472,13.335816,7.221269,15.192046,4.586765,0,18.205188,6.354617,16.705971,4.860516,16.051279,6.341873,60.101142,86.609116,53.221227,174.105000,0,0,0,0,0,0,0,0,0,0,0,0,0,0,0,0,0,0,0,0,0,0,0,0,0,0
0.054,3.27769,0.09990,-1.47903,0.00199,0.00109,0.00065,0.00053,0.00074,0.00057,0.00067,0.00480,15.168765,10.592083,14.061889,10.272862,15.131701,9.241497,13.979548,8.186128,14.564962,8.064911,15.219708,8.005064,16.690373,7.995150,13.337296,7.212746,15.182136,4.590978,0,18.190524,6.353340,16.691733,4.855760,16.043765,6.339366,60.333526,86.526200,52.885300,174.084516,0,0,0,0,0,0,0,0,0,0,0,0,0,0,0,0,0,0,0,0,0,0,0,0,0,0
0.055,3.27767,0.09971,-1.47911,0.00218,0.00114,0.00066,0.00051,0.00071,0.00059,0.00066,0.00436,15.159310,10.593988,14.053395,10.269825,15.115752,9.235870,13.948991,8.186652,14.554472,8.066623,15.211471,8.005897,16.674340,7.994329,13.334430,7.204186,15.173178,4.599408,0,18.176083,6.351466,16.679022,4.850463,16.037616,6.336052,60.484668,86.446556,52.629654,174.019988,0,0,0,0,0,0,0,0,0,0,0,0,0,0,0,0,0,0,0,0,0,0,0,0,0,0
0.056,3.27729,0.10012,-1.47873,0.00221,0.00114,0.00065,0.00050,0.00071,0.00060,0.00071,0.00428,15.149361,10.595456,14.043537,10.267456,15.100445,9.231454,13.920446,8.185465,14.543737,8.067093,15.203617,8.006683,16.660004,7.992530,13.311676,7.198489,15.164733,4.608348,0,18.163153,6.348884,16.666816,4.846216,16.031209,6.332452,60.559618,86.391931,52.458574,173.966918,0,0,0,0,0,0,0,0,0,0,0,0,0,0,0,0,0,0,0,0,0,0,0,0,0,0
0.057,3.27713,0.10005,-1.47758,0.00221,0.00108,0.00065,0.00048,0.00064,0.00059,0.00071,0.00419,15.138818,10.596107,14.031551,10.266439,15.086654,9.228729,13.898823,8.182446,14.532072,8.064967,15.194172,8.006911,16.648844,7.991255,13.254078,7.198496,15.156365,4.614130,0,18.152999,6.345488,16.654109,4.844590,16.022939,6.329082,60.563568,86.383810,52.376111,173.980239,0,0,0,0,0,0,0,0,0,0,0,0,0,0,0,0,0,0,0,0,0,0,0,0,0,0
0.058,3.27730,0.09975,-1.47850,0.00221,0.00098,0.00068,0.00048,0.00058,0.00065,0.00070,0.00285,15.127816,10.595811,14.017649,10.266946,15.074728,9.227787,13.885806,8.177932,14.518878,8.060317,15.182163,8.006396,16.640876,7.991059,13.174567,7.204367,15.147950,4.615100,0,18.145758,6.341512,16.640703,4.845971,16.011997,6.326311,60.508228,86.431309,52.375049,174.087710,0,0,0,0,0,0,0,0,0,0,0,0,0,0,0,0,0,0,0,0,0,0,0,0,0,0
0.059,3.27716,0.09991,-1.47758,0.00233,0.00096,0.00070,0.00046,0.00058,0.00088,0.00073,0.00244,15.116827,10.594795,14.003428,10.268434,15.064278,9.228168,13.878524,8.172906,14.503679,8.055236,15.168038,8.005418,16.634039,7.991159,13.125488,7.212476,15.139802,4.612452,0,18.139980,6.337671,16.627540,4.849084,15.998703,6.324298,60.414522,86.526054,52.432258,174.278681,0,0,0,0,0,0,0,0,0,0,0,0,0,0,0,0,0,0,0,0,0,0,0,0,0,0
0.060,3.27660,0.10019,-1.47873,0.00229,0.00095,0.00072,0.00045,0.00061,0.00099,0.00076,0.00309,15.106347,10.593312,13.990587,10.270304,15.054856,9.229374,13.873758,8.168399,14.486006,8.051966,15.152351,8.004289,16.626120,7.990671,13.162170,7.218909,15.132270,4.607592,0,18.134092,6.334715,16.615650,4.852526,15.983460,6.323186,60.304072,86.658352,52.523402,174.539597,0,0,0,0,0,0,0,0,0,0,0,0,0,0,0,0,0,0,0,0,0,0,0,0,0,0
0.061,3.27637,0.09997,-1.47820,0.00224,0.00093,0.00074,0.00047,0.00061,0.00103,0.00086,0.00298,15.096865,10.591613,13.980796,10.271963,15.046016,9.230907,13.868332,8.165427,14.465416,8.052710,15.135656,8.003316,16.614936,7.988729,13.338540,7.219817,15.125683,4.601921,0,18.126540,6.333381,16.606040,4.854913,15.966678,6.323117,60.198377,86.818445,52.624326,174.856558,0,0,0,0,0,0,0,0,0,0,0,0,0,0,0,0,0,0,0,0,0,0,0,0,0,0
0.062,3.27672,0.09985,-1.47820,0.00196,0.00089,0.00073,0.00050,0.00074,0.00105,0.00088,0.00290,15.088547,10.589885,13.974195,10.273070,15.037265,9.232432,13.860885,8.164223,14.442676,8.057770,15.118440,8.002614,16.599879,7.985294,13.642266,7.214498,15.119608,4.596600,0,18.116655,6.333769,16.598756,4.855820,15.948999,6.324193,60.113019,86.993745,52.719530,175.199197,0,0,0,0,0,0,0,0,0,0,0,0,0,0,0,0,0,0,0,0,0,0,0,0,0,0
0.063,3.27707,0.10029,-1.47797,0.00148,0.00088,0.00075,0.00052,0.00081,0.00109,0.00089,0.00275,15.081101,10.588223,13.968773,10.273645,15.028041,9.233847,13.852632,8.163921,14.420258,8.064757,15.101098,8.002014,16.582567,7.981498,13.967351,7.206693,15.112530,4.592452,0,18.105022,6.335081,16.592474,4.856176,15.931398,6.326454,60.055223,87.167648,52.805743,175.513878,0,0,0,0,0,0,0,0,0,0,0,0,0,0,0,0,0,0,0,0,0,0,0,0,0,0
0.064,3.27718,0.10026,-1.47942,0.00114,0.00101,0.00074,0.00053,0.00084,0.00108,0.00091,0.00327,15.074199,10.586715,13.962354,10.273731,15.017781,9.235063,13.844979,8.163568,14.400763,8.071078,15.084015,8.001330,16.564784,7.978564,14.200715,7.200480,15.102850,4.590272,0,18.092316,6.336449,16.585771,4.857012,15.914874,6.329938,60.031583,87.323253,52.880619,175.745203,0,0,0,0,0,0,0,0,0,0,0,0,0,0,0,0,0,0,0,0,0,0,0,0,0,0
0.065,3.27739,0.09988,-1.47987,0.00091,0.00101,0.00075,0.00054,0.00087,0.00105,0.00092,0.00367,15.067511,10.585447,13.952795,10.273379,15.005931,9.235990,13.839300,8.162229,14.386744,8.074178,15.067576,8.000378,16.548292,7.977691,14.231147,7.199872,15.089003,4.590833,0,18.079211,6.337018,16.577247,4.859342,15.900410,6.334672,60.048676,87.443769,52.941319,175.839012,0,0,0,0,0,0,0,0,0,0,0,0,0,0,0,0,0,0,0,0,0,0,0,0,0,0
0.066,3.27772,0.10000,-1.47705,0.00115,0.00091,0.00072,0.00056,0.00087,0.00106,0.00091,0.00365,15.060580,10.584477,13.939546,10.272871,14.992420,9.236434,13.835338,8.159717,14.378371,8.073226,15.051995,7.999133,16.533788,7.979075,14.036040,7.205822,15.070971,4.593930,0,18.066156,6.336514,16.566655,4.863448,15.888210,6.340181,60.112428,87.517773,52.961690,175.799691,0,0,0,0,0,0,0,0,0,0,0,0,0,0,0,0,0,0,0,0,0,0,0,0,0,0
0.067,3.27763,0.10026,-1.47865,0.00113,0.00100,0.00073,0.00056,0.00090,0.00104,0.00091,0.00359,15.052768,10.583819,13.924303,10.272818,14.977857,9.236047,13.830529,8.156906,14.372457,8.069832,15.037248,7.997795,16.520459,7.981496,13.718030,7.214961,15.050923,4.597966,0,18.053280,6.335485,16.555376,4.868571,15.877384,6.345283,60.227838,87.541435,52.882621,175.714384,0,0,0,0,0,0,0,0,0,0,0,0,0,0,0,0,0,0,0,0,0,0,0,0,0,0
0.068,3.27712,0.09994,-1.47804,0.00126,0.00112,0.00072,0.00055,0.00089,0.00102,0.00090,0.00354,15.043422,10.583481,13.908935,10.273857,14.962906,9.234471,13.822136,8.154747,14.365557,8.065788,15.023290,7.996579,16.507377,7.983626,13.389227,7.223591,15.031191,4.601241,0,18.040691,6.334537,16.544919,4.873875,15.866957,6.348741,60.399834,87.511495,52.642509,175.676497,0,0,0,0,0,0,0,0,0,0,0,0,0,0,0,0,0,0,0,0,0,0,0,0,0,0
0.069,3.27705,0.09967,-1.48018,0.00122,0.00121,0.00069,0.00057,0.00088,0.00078,0.00088,0.00344,15.031906,10.583474,13.895290,10.276606,14.948224,9.231357,13.807466,8.154183,14.354284,8.062869,15.010080,7.995702,16.493635,7.984156,13.160368,7.228076,15.014075,4.602083,0,18.028495,6.334274,16.536758,4.878532,15.855966,6.349345,60.633054,87.424993,52.181232,175.778054,0,0,0,0,0,0,0,0,0,0,0,0,0,0,0,0,0,0,0,0,0,0,0,0,0,0
0.070,3.27751,0.09990,-1.47896,0.00121,0.00137,0.00069,0.00058,0.00086,0.00062,0.00086,0.00267,15.018280,10.583765,13.884218,10.280837,14.934237,9.226769,13.786044,8.155669,14.337977,8.061996,14.997541,7.995436,16.479268,7.982669,13.077148,7.227765,15.000277,4.600279,0,18.016823,6.335035,16.531038,4.882128,15.844103,6.347068,60.918323,87.293089,51.508884,176.045690,0,0,0,0,0,0,0,0,0,0,1,0,0,0,0,0,0,0,0,0,0,0,0,0,0,0
0.071,3.27744,0.09989,-1.47781,0.00124,0.00146,0.00068,0.00057,0.00087,0.00065,0.00075,0.00280,15.003586,10.584262,13.875163,10.285126,14.921044,9.221353,13.760522,8.158972,14.319828,8.062880,14.985554,7.996126,16.465641,7.980012,13.093328,7.226218,14.988237,4.597673,0,18.005838,6.336789,16.526009,4.884834,15.831984,6.343562,61.226945,87.146902,50.734807,176.413610,0,0,0,0,0,0,0,0,0,0,0,0,0,0,0,0,0,0,1,0,0,0,0,0,0,0
0.072,3.27666,0.09965,-1.47667,0.00120,0.00146,0.00072,0.00054,0.00076,0.00065,0.00074,0.00281,14.988945,10.584870,13.867463,10.287959,14.908721,9.215800,13.733787,8.163803,14.303318,8.065140,14.973998,7.998124,16.454221,7.977130,13.155710,7.227316,14.976226,4.596263,0,17.995703,6.339473,16.519783,4.886865,15.820292,6.340604,61.528743,87.019059,49.975853,176.809026,0,0,0,0,0,0,0,0,0,0,0,0,0,0,0,0,0,0,1,0,0,0,0,0,0,0
0.073,3.27641,0.09945,-1.47713,0.00127,0.00141,0.00071,0.00052,0.00071,0.00071,0.00074,0.00312,14.975460,10.585493,13.860459,10.287851,14.897339,9.210796,13.708706,8.169868,14.291874,8.068392,14.962748,8.001767,16.446439,7.974954,13.211599,7.234827,14.962542,4.598013,0,17.986576,6.343021,16.510495,4.888432,15.809700,6.339943,61.793830,86.941797,49.347845,177.159450,0,0,0,0,0,0,0,0,0,0,0,0,0,0,0,0,0,0,1,0,0,0,0,0,0,0
0.074,3.27704,0.09964,-1.47812,0.00131,0.00125,0.00071,0.00051,0.00069,0.00072,0.00070,0.00326,14.963553,10.586053,13.853686,10.284667,14.886827,9.206744,13.687001,8.176422,14.286228,8.072105,14.951685,8.006731,16.442091,7.974000,13.232005,7.247251,14.946851,4.603262,0,17.978279,6.347067,16.497496,4.889476,15.800335,6.342015,62.005881,86.928730,48.917946,177.406545,0,0,0,0,0,0,0,0,0,0,0,0,0,0,0,0,0,0,1,0,0,0,0,0,0,0
0.075,3.27753,0.09971,-1.48117,0.00135,0.00119,0.00070,0.00051,0.00069,0.00078,0.00079,0.00321,14.952682,10.586493,13.846959,10.280183,14.876913,9.203654,13.668786,8.182084,14.283309,8.075536,14.940692,8.011753,16.438661,7.974187,13.221445,7.255644,14.930746,4.610046,0,17.970155,6.350820,16.481856,4.889567,15.791549,6.345401,62.167744,86.967155,48.684540,177.511979,0,0,0,0,0,0,0,0,0,0,0,0,0,0,0,0,0,0,1,0,0,0,0,0,0,0
0.076,3.27737,0.09938,-1.47980,0.00103,0.00119,0.00076,0.00049,0.00071,0.00104,0.00094,0.00422,14.942232,10.586761,13.840111,10.276320,14.867309,9.201505,13.654048,8.185426,14.279756,8.077929,14.929652,8.015501,16.433457,7.975388,13.186971,7.250496,14.915970,4.616230,0,17.961513,6.353461,16.464773,4.888241,15.782636,6.348540,62.283718,87.042379,48.640807,177.438930,0,0,0,0,0,0,0,0,0,0,0,0,0,0,0,0,0,0,1,0,0,0,0,0,0,0
0.077,3.27701,0.09922,-1.47797,0.00101,0.00113,0.00075,0.00047,0.00073,0.00122,0.00096,0.00535,14.931594,10.586803,13.832975,10.274966,14.857731,9.200272,13.642769,8.185048,14.272259,8.078535,14.918454,8.016666,16.423830,7.977475,13.135786,7.222644,14.904234,4.619705,0,17.951668,6.354182,16.447443,4.885055,15.772903,6.349897,62.358188,87.139813,48.779303,177.151923,0,0,0,0,0,0,0,0,0,0,0,0,0,0,0,0,0,0,1,0,0,0,0,0,0,0
0.078,3.27676,0.09951,-1.47820,0.00087,0.00105,0.00074,0.00048,0.00081,0.00127,0.00100,0.00581,14.920475,10.586606,13.825344,10.276550,14.848013,9.199747,13.634537,8.180824,14.259805,8.077121,14.907236,8.015089,16.409136,7.980107,13.082355,7.179374,14.895895,4.619784,0,17.940279,6.352821,16.430884,4.880357,15.762361,6.349082,62.399647,87.249915,49.063144,176.679202,0,0,0,0,0,0,0,0,0,0,0,0,0,0,0,0,0,0,1,0,0,0,0,0,0,0
0.079,3.27665,0.09943,-1.48064,0.00085,0.00114,0.00075,0.00049,0.00082,0.00129,0.00103,0.00618,14.909028,10.586213,13.816954,10.279436,14.838153,9.199468,13.628380,8.174426,14.244635,8.074178,14.896490,8.012238,16.391565,7.982646,13.051398,7.151219,14.889391,4.617781,0,17.927490,6.350130,16.415860,4.875620,15.752005,6.347327,62.422393,87.370272,49.413829,176.139077,0,0,0,0,0,0,0,0,0,0,0,0,0,0,0,0,0,0,1,0,0,0,0,0,0,0
0.080,3.27665,0.09908,-1.47736,0.00094,0.00100,0.00075,0.00048,0.00080,0.00132,0.00109,0.00675,14.897442,10.585671,13.807538,10.281832,14.828164,9.198952,13.623286,8.167666,14.229234,8.070253,14.886733,8.009704,16.373523,7.984431,13.068416,7.170469,14.883016,4.615164,0,17.913481,6.346929,16.403117,4.872400,15.742908,6.345986,62.441162,87.499014,49.749706,175.656672,0,0,0,0,0,0,0,0,0,0,0,0,0,0,0,0,0,0,1,0,0,0,0,0,0,0
0.081,3.27668,0.09894,-1.48170,0.00093,0.00092,0.00074,0.00049,0.00079,0.00129,0.00119,0.00692,14.885904,10.585025,13.796839,10.281971,14.818057,9.197724,13.618247,8.162331,14.216045,8.065894,14.878467,8.009050,16.357381,7.984813,13.158504,7.268166,14.875081,4.613384,0,17.898439,6.344035,16.393383,4.872228,15.736117,6.346389,62.470500,87.634246,49.990036,175.355715,0,0,0,0,0,0,0,0,0,0,0,0,0,0,0,0,0,0,1,0,0,0,0,0,0,0
0.082,3.27674,0.09923,-1.47827,0.00095,0.00094,0.00074,0.00051,0.00080,0.00128,0.00123,0.00669,14.874624,10.584263,13.785034,10.279326,14.807708,9.195605,13.612503,8.159080,14.205507,8.061759,14.871387,8.010609,16.343959,7.983636,13.327693,7.416095,14.864741,4.613194,0,17.882850,6.342082,16.386489,4.875368,15.731428,6.348780,62.515828,87.773124,50.097294,175.293824,0,0,0,0,0,0,0,0,0,0,0,0,0,0,0,0,0,0,1,0,0,0,0,0,0,0
0.083,3.27690,0.09903,-1.47781,0.00093,0.00100,0.00071,0.00054,0.00082,0.00122,0.00131,0.00704,14.863845,10.583288,13.772920,10.275123,14.796808,9.192845,13.605638,8.156977,14.195224,8.058663,14.864056,8.012973,16.331884,7.981444,13.555066,7.502284,14.852343,4.614355,0,17.867624,6.341444,16.381006,4.880296,15.726879,6.351864,62.569673,87.911454,50.095033,175.435170,0,0,0,0,0,0,0,0,0,0,0,0,0,0,0,0,0,0,1,0,0,0,0,0,0,0
0.084,3.27706,0.09860,-1.47751,0.00098,0.00112,0.00076,0.00052,0.00081,0.00124,0.00134,0.00701,14.853812,10.581998,13.761340,10.270720,14.785031,9.189724,13.597264,8.154968,14.182588,8.057433,14.854946,8.014600,16.319616,7.978833,13.817669,7.408425,14.838322,4.616553,0,17.853703,6.342479,16.375407,4.885353,15.720369,6.354228,62.623589,88.044941,50.011428,175.736855,0,0,0,0,0,0,0,0,0,0,0,0,0,0,0,0,0,0,1,0,0,0,0,0,0,0
0.085,3.27682,0.09874,-1.47873,0.00101,0.00114,0.00077,0.00055,0.00081,0.00122,0.00134,0.00673,14.844764,10.580293,13.751121,10.267459,14.772061,9.186520,13.587002,8.152010,14.165043,8.058875,14.842561,8.013975,16.305638,7.976392,14.092540,7.018791,14.823119,4.619473,0,17.842007,6.345526,16.368187,4.888899,15.709839,6.354489,62.669135,88.169220,49.874522,176.155832,0,0,0,0,0,0,0,0,0,0,0,0,0,0,0,0,0,0,1,0,0,0,0,0,0,0
0.086,3.27625,0.09890,-1.47881,0.00099,0.00120,0.00072,0.00054,0.00080,0.00098,0.00146,0.00620,14.836620,10.578217,13.742310,10.265964,14.757896,9.183511,13.574856,8.147714,14.142563,8.062842,14.826697,8.010740,16.289555,7.974394,14.356536,6.339982,14.807310,4.622603,0,17.832531,6.350197,16.358794,4.890277,15.694951,6.352450,62.698270,88.276720,49.706196,176.642048,0,0,0,0,0,0,0,0,0,0,0,0,0,0,0,0,0,0,1,0,0,0,0,0,0,0
0.087,3.27611,0.09864,-1.47682,0.00096,0.00143,0.00073,0.00050,0.00080,0.00080,0.00160,0.00528,14.828853,10.576016,13.733855,10.265847,14.742982,9.180970,13.561377,8.142608,14.118706,8.067840,14.808986,8.006172,16.272559,7.972656,14.586248,5.551506,14.791663,4.625160,0,17.823957,6.355075,16.348029,4.890209,15.677813,6.349604,62.703520,88.355331,49.519617,177.135538,0,0,0,0,0,0,0,0,0,0,0,0,0,0,0,0,0,0,1,0,0,0,0,0,0,0
0.088,3.27666,0.09841,-1.47835,0.00105,0.00156,0.00073,0.00050,0.00073,0.00074,0.00160,0.00509,14.820900,10.573951,13.724620,10.266642,14.727799,9.179171,13.547156,8.137291,14.097298,8.072273,14.791197,8.001675,16.255962,7.970963,14.758248,4.845951,14.776961,4.626338,0,17.814869,6.358665,16.336796,4.889524,15.660714,6.347571,62.677449,88.392599,49.327292,177.575590,0,0,0,0,0,0,0,0,0,0,0,0,0,0,0,0,0,0,1,0,0,0,0,0,0,0
0.089,3.27737,0.09852,-1.47995,0.00101,0.00140,0.00073,0.00048,0.00074,0.00076,0.00161,0.00478,14.812207,10.572282,13.713485,10.267885,14.712824,9.178379,13.532779,8.132363,14.082100,8.074568,14.775076,7.998634,16.241053,7.969104,14.849633,4.413029,14.763975,4.625354,0,17.803871,6.359496,16.325982,4.889041,15.645916,6.347942,62.612879,88.376303,49.141391,177.902450,0,0,0,0,0,0,0,0,0,0,0,0,0,0,0,0,0,0,1,0,0,0,0,0,0,0
0.090,3.27782,0.09881,-1.47911,0.00097,0.00135,0.00073,0.00048,0.00080,0.00093,0.00169,0.00438,14.802640,10.571151,13.700127,10.269240,14.698423,9.178576,13.518577,8.128359,14.073750,8.074309,14.761226,7.997638,16.228119,7.967037,14.862346,4.306147,14.752829,4.622321,0,17.790656,6.357165,16.315843,4.889036,15.634359,6.351074,62.514688,88.305112,48.958073,178.101725,0,0,0,0,0,0,0,0,0,0,0,0,0,0,0,0,0,0,1,0,0,0,0,0,0,0
0.091,3.27785,0.09870,-1.47934,0.00104,0.00143,0.00077,0.00050,0.00083,0.00119,0.00197,0.00434,14.792649,10.570536,13.685339,10.270552,14.684802,9.179337,13.504521,8.125730,14.068477,8.072706,14.748642,7.998152,16.216027,7.964961,14.833453,4.386047,14.742743,4.618628,0,17.776449,6.352788,16.305735,4.889025,15.625114,6.355572,62.404798,88.193093,48.750861,178.223143,0,0,0,0,0,0,0,0,0,0,0,0,0,0,0,0,0,0,1,0,0,0,0,0,0,0
0.092,3.27751,0.09839,-1.47827,0.00115,0.00142,0.00077,0.00049,0.00090,0.00121,0.00207,0.00440,14.782732,10.570406,13.670004,10.271677,14.672154,9.180204,13.490553,8.124920,14.062174,8.071095,14.736195,7.999555,16.203536,7.963092,14.802673,4.498897,14.732864,4.615760,0,17.762591,6.347593,16.294946,4.888463,15.617108,6.359908,62.306419,88.055478,48.491568,178.321283,0,0,0,0,0,0,0,0,0,0,0,0,0,0,0,0,0,0,1,0,0,0,0,0,0,0
0.093,3.27719,0.09853,-1.47949,0.00115,0.00140,0.00075,0.00046,0.00091,0.00122,0.00207,0.00399,14.773378,10.570723,13.654998,10.272476,14.660671,9.180727,13.476617,8.126359,14.050806,8.070793,14.722775,8.001232,16.189417,7.961644,14.808932,4.493599,14.722348,4.615179,0,17.750403,6.342804,16.282779,4.886819,15.609285,6.362577,62.242505,87.907438,48.152734,178.449623,0,0,0,0,0,0,0,0,0,0,0,0,0,0,0,0,0,0,1,0,0,0,0,0,0,0
0.094,3.27715,0.09871,-1.47858,0.00108,0.00131,0.00071,0.00049,0.00098,0.00120,0.00208,0.00388,14.764635,10.571335,13.641018,10.272906,14.650431,9.180617,13.462707,8.129947,14.033629,8.072267,14.708165,8.002924,16.173043,7.960694,14.853336,4.348651,14.710615,4.617335,0,17.740226,6.339334,16.269182,4.884068,15.601278,6.363074,62.223866,87.761275,47.741404,178.609590,0,0,0,0,0,0,0,0,0,0,0,0,0,0,0,0,0,0,1,0,0,0,0,0,0,0
0.095,3.27742,0.09854,-1.47842,0.00095,0.00136,0.00068,0.00049,0.00097,0.00118,0.00198,0.00454,14.755927,10.571926,13.628508,10.273059,14.641347,9.179819,13.448883,8.134828,14.014561,8.074779,14.693407,8.004874,16.154635,7.960129,14.883545,4.225731,14.697462,4.621247,0,17.731016,6.337665,16.255021,4.880901,15.593698,6.362308,62.244146,87.625238,47.313385,178.729026,0,0,0,0,0,0,0,0,0,0,0,0,0,0,0,0,0,0,1,0,0,0,0,0,0,0
0.096,3.27777,0.09815,-1.47804,0.00105,0.00132,0.00068,0.00050,0.00097,0.00121,0.00177,0.00458,14.746635,10.572167,13.617893,10.273040,14.633324,9.178295,13.435212,8.140088,13.997870,8.077502,14.679639,8.007361,16.134476,7.959817,14.843171,4.300375,14.682714,4.625822,0,17.721623,6.338243,16.241230,4.878064,15.587226,6.361296,62.295691,87.507266,46.928178,178.730212,0,0,0,0,0,0,0,0,0,0,0,0,0,0,0,0,0,0,1,0,0,0,0,0,0,0
0.097,3.27757,0.09841,-1.47873,0.00139,0.00129,0.00068,0.00053,0.00097,0.00124,0.00159,0.00494,14.736149,10.571732,13.609587,10.272949,14.626260,9.176011,13.421763,8.144823,13.987757,8.079614,14.667980,8.010661,16.112873,7.959633,14.677136,4.744179,14.666210,4.629976,0,17.710913,6.341500,16.228733,4.876293,15.582529,6.361036,62.370761,87.415200,46.644685,178.536641,0,0,0,0,0,0,0,0,0,0,0,0,0,0,0,0,0,0,1,0,0,0,0,0,0,0
0.098,3.27684,0.09863,-1.47896,0.00138,0.00128,0.00069,0.00055,0.00095,0.00127,0.00166,0.00475,14.724483,10.570517,13.603527,10.272713,14.619915,9.173133,13.408685,8.148591,13.985221,8.080649,14.658598,8.014821,16.091123,7.959624,14.392266,5.541969,14.648440,4.632927,0,17.698474,6.347024,16.217972,4.875802,15.579456,6.361745,62.457639,87.352074,46.493513,178.129492,0,0,0,0,0,0,0,0,0,0,0,0,0,0,0,0,0,0,1,0,0,0,0,0,0,0
0.099,3.27651,0.09843,-1.47820,0.00137,0.00130,0.00068,0.00055,0.00091,0.00122,0.00171,0.00524,14.712526,10.568727,13.598980,10.272008,14.613850,9.170113,13.396242,8.151598,13.986729,8.080638,14.650320,8.019569,16.071924,7.960084,14.082889,6.414580,14.630811,4.634320,0,17.684910,6.353217,16.208708,4.876073,15.576703,6.362526,62.538979,87.314133,46.465274,177.571476,0,0,0,0,0,0,0,0,0,0,0,0,0,0,0,0,0,0,1,0,0,0,0,0,0,0
0.100,3.27692,0.09822,-1.47850,0.00130,0.00145,0.00066,0.00055,0.00090,0.00111,0.00167,0.00566,14.701236,10.566590,13.595160,10.270496,14.607611,9.167421,13.384705,8.154099,13.988410,8.079649,14.641871,8.024608,16.058081,7.961322,13.849956,7.062874,14.614801,4.633830,0,17.670906,6.358390,16.200650,4.876531,15.572878,6.362401,62.597011,87.297108,46.547555,176.931471,0,0,0,0,0,0,0,0,0,0,0,0,0,0,0,0,0,0,1,0,0,0,0,0,0,0
0.101,3.27744,0.09872,-1.47835,0.00119,0.00148,0.00065,0.00051,0.00088,0.00081,0.00133,0.00545,14.691550,10.564332,13.591282,10.267845,14.600750,9.165522,13.374342,8.156346,13.986434,8.077755,14.631997,8.029637,16.052335,7.963643,13.792827,7.192400,14.601863,4.631148,0,17.657134,6.360878,16.193506,4.876608,15.566609,6.360411,62.614323,87.296781,46.727668,176.278046,0,0,0,0,0,0,0,0,0,0,0,0,0,0,0,0,0,0,1,0,0,0,0,0,0,0
0.102,3.27758,0.09881,-1.47888,0.00109,0.00152,0.00063,0.00052,0.00084,0.00075,0.00127,0.00561,14.683600,10.562103,13.586638,10.264192,14.593021,9.164529,13.365199,8.158315,13.979088,8.075131,14.620423,8.034270,16.054380,7.967066,13.935624,6.730681,14.592297,4.626590,0,17.643713,6.360128,16.186866,4.876160,15.557454,6.356474,62.590350,87.311311,46.979927,175.665103,0,0,0,0,0,0,0,0,0,0,0,0,0,0,0,0,0,0,1,0,0,0,0,0,0,0
0.103,3.27727,0.09856,-1.47812,0.00107,0.00148,0.00063,0.00053,0.00080,0.00073,0.00114,0.00575,14.676373,10.559941,13.580626,10.260326,14.584473,9.164062,13.357010,8.159597,13.967650,8.072097,14.608260,8.037991,16.059607,7.971201,14.196117,5.919004,14.584770,4.621362,0,17.629985,6.357154,16.180153,4.875635,15.546283,6.351758,62.548352,87.342218,47.260273,175.125812,0,0,0,0,0,0,0,0,0,0,0,0,0,0,0,0,0,0,1,0,0,0,0,0,0,0
0.104,3.27666,0.09869,-1.47842,0.00107,0.00144,0.00062,0.00052,0.00075,0.00078,0.00119,0.00540,14.668772,10.557876,13.572650,10.257090,14.575173,9.163704,13.349483,8.159752,13.953623,8.068986,14.596723,8.040277,16.063079,7.975629,14.484030,5.022390,14.577825,4.616733,0,17.615231,6.353091,16.172783,4.875526,15.534066,6.347519,62.513386,87.391279,47.523257,174.691773,0,0,0,0,0,0,0,0,0,0,0,0,0,0,0,0,0,0,1,0,0,0,0,0,0,0
0.105,3.27630,0.09907,-1.48087,0.00106,0.00139,0.00067,0.00052,0.00077,0.00079,0.00172,0.00482,14.659719,10.555939,13.562137,10.255311,14.565190,9.163038,13.342325,8.158354,13.938501,8.066129,14.587005,8.040615,16.059928,7.979938,14.709871,4.303634,14.570025,4.613960,0,17.598748,6.349069,16.164175,4.876315,15.521764,6.344997,62.510223,87.460177,47.723940,174.394076,0,0,0,0,0,0,0,0,0,0,0,0,0,0,0,0,0,0,1,0,0,0,0,0,0,0
0.106,3.27642,0.09898,-1.47911,0.00099,0.00151,0.00070,0.00054,0.00081,0.00074,0.00220,0.00528,14.649076,10.554154,13.549414,10.255185,14.554594,9.161819,13.335151,8.155450,13.923315,8.063749,14.579229,8.039079,16.048447,7.984127,14.821218,3.920052,14.560840,4.613596,0,17.580501,6.345928,16.154230,4.877942,15.509850,6.344384,62.549923,87.546367,47.841463,174.239573,0,0,0,0,0,0,0,0,0,0,0,0,0,0,0,0,0,0,1,0,0,0,0,0,0,0
0.107,3.27684,0.09884,-1.47942,0.00067,0.00152,0.00067,0.00055,0.00080,0.00073,0.00235,0.00538,14.638040,10.552542,13.536086,10.256013,14.543455,9.160037,13.327442,8.151763,13.908435,8.061925,14.572005,8.036569,16.031397,7.988772,14.818050,3.879862,14.551021,4.615200,0,17.561403,6.344105,16.143516,4.879584,15.498113,6.344398,62.624170,87.641316,47.889011,174.200860,0,0,0,0,0,0,0,0,0,0,0,0,0,0,0,0,0,0,1,0,0,0,0,0,0,0
0.108,3.27729,0.09922,-1.47881,0.00073,0.00129,0.00067,0.00054,0.00078,0.00073,0.00235,0.00544,14.627907,10.551120,13.523853,10.257027,14.531845,9.157699,13.318670,8.148068,13.894184,8.060722,14.563828,8.034050,16.011881,7.994494,14.704309,4.180004,14.541420,4.618256,0,17.542434,6.344005,16.132653,4.880359,15.486288,6.343646,62.723178,87.736040,47.882345,174.247939,0,0,0,0,0,0,0,0,0,0,0,0,0,0,0,0,0,0,1,0,0,0,0,0,0,0
0.109,3.27743,0.09928,-1.48071,0.00076,0.00127,0.00069,0.00057,0.00079,0.00069,0.00236,0.00500,14.619956,10.549907,13.514387,10.257472,14.519835,9.154816,13.308317,8.145127,13.880880,8.060202,14.553215,8.032467,15.992971,8.001902,14.484595,4.815292,14.532870,4.622247,0,17.524574,6.346016,16.122256,4.879401,15.474119,6.340759,62.837146,87.821585,47.837118,174.351129,0,0,0,0,0,0,0,0,0,0,0,0,0,0,0,0,0,0,1,0,0,0,0,0,0,0
0.110,3.27724,0.09923,-1.47850,0.00081,0.00131,0.00072,0.00057,0.00080,0.00069,0.00236,0.00492,14.614526,10.548937,13.507960,10.257085,14.507547,9.151526,13.296329,8.143105,13.868562,8.060273,14.539731,8.032057,15.976482,8.011127,14.194555,5.679839,14.525521,4.626627,0,17.508571,6.349756,16.112624,4.876553,15.461774,6.335541,62.955434,87.890386,47.763929,174.495730,0,0,0,0,0,0,0,0,0,0,0,0,0,0,0,0,0,0,1,0,0,0,0,0,0,0
0.111,3.27712,0.09919,-1.47873,0.00086,0.00123,0.00097,0.00058,0.00077,0.00069,0.00230,0.00478,14.610636,10.548269,13.502868,10.256303,14.495174,9.148144,13.283309,8.141332,13.856877,8.060624,14.524419,8.032044,15.962445,8.021626,13.913726,6.525413,14.518556,4.630811,0,17.494844,6.353749,16.103616,4.872664,15.450017,6.329450,63.066216,87.936846,47.666237,174.688215,0,0,0,0,0,0,0,0,0,0,0,0,0,0,0,0,0,0,1,0,0,0,0,0,0,0
0.112,3.27716,0.09955,-1.47789,0.00130,0.00128,0.00139,0.00059,0.00071,0.00079,0.00225,0.00483,14.607203,10.547959,13.497254,10.255615,14.482914,9.145001,13.269908,8.139070,13.845443,8.060925,14.508433,8.031576,15.950759,8.032800,13.724967,7.093018,14.511083,4.634207,0,17.483793,6.356438,16.095055,4.868658,15.439656,6.324071,63.157575,87.955514,47.546960,174.936660,0,0,0,0,0,0,0,0,0,0,0,0,0,0,0,0,0,0,1,0,0,0,0,0,0,0
0.113,3.27705,0.09962,-1.47881,0.00158,0.00134,0.00140,0.00061,0.00072,0.00081,0.00230,0.00458,14.603157,10.548064,13.489294,10.255503,14.470965,9.142421,13.256772,8.135603,13.833882,8.060856,14.492919,8.029814,15.941324,8.044058,13.709638,7.128252,14.502224,4.636233,0,17.475795,6.356297,16.086771,4.865446,15.431486,6.320963,63.217846,87.941079,47.409070,175.248585,0,0,0,0,0,0,0,0,0,0,0,0,0,0,0,0,0,0,1,0,0,0,0,0,0,0
0.114,3.27680,0.09938,-1.47858,0.00174,0.00145,0.00138,0.00062,0.00071,0.00081,0.00229,0.00513,14.598033,10.548463,13.478591,10.256153,14.459506,9.140498,13.244170,8.131070,13.822054,8.060373,14.478541,8.026503,15.934266,8.055042,13.878155,6.594567,14.491761,4.636558,0,17.470410,6.353187,16.078813,4.863414,15.425577,6.320530,63.247263,87.894660,47.258092,175.605196,0,0,0,0,0,0,0,0,0,0,0,0,0,0,0,0,0,0,1,0,0,0,0,0,0,0
0.115,3.27697,0.09961,-1.47865,0.00178,0.00159,0.00135,0.00060,0.00074,0.00082,0.00196,0.00524,14.592212,10.548792,13.466768,10.257331,14.448689,9.138998,13.231838,8.126825,13.810150,8.059827,14.465288,8.022207,15.930025,8.065718,14.140656,5.763341,14.480408,4.635213,0,17.466039,6.348939,16.071550,4.862201,15.420983,6.321540,63.262878,87.826469,47.103164,175.950505,0,0,0,0,0,0,0,0,0,0,0,0,0,0,0,0,0,0,1,0,0,0,0,0,0,0
0.116,3.27759,0.09985,-1.47804,0.00185,0.00158,0.00135,0.00060,0.00072,0.00082,0.00158,0.00514,14.586143,10.548667,13.455601,10.258772,14.438662,9.137661,13.219476,8.124314,13.798388,8.059598,14.453096,8.017556,15.929065,8.076083,14.399690,4.929250,14.468952,4.632254,0,17.460994,6.345531,16.065370,4.861387,15.416679,6.322639,63.283014,87.747409,46.953695,176.225711,0,0,0,0,0,0,0,0,0,0,0,0,0,0,0,0,0,0,1,0,0,0,0,0,0,0
0.117,3.27794,0.09963,-1.47873,0.00189,0.00143,0.00205,0.00059,0.00070,0.00081,0.00150,0.00490,14.580268,10.547711,13.446838,10.260210,14.429572,9.136231,13.206784,8.124958,13.786984,8.060060,14.441903,8.013174,15.931824,8.086128,14.559162,4.383074,14.458162,4.627745,0,17.453605,6.344912,16.060661,4.860560,15.411651,6.322485,63.325676,87.668252,46.818982,176.372722,0,0,0,0,0,0,0,0,0,0,0,0,0,0,0,0,0,0,1,0,0,0,0,0,0,0
0.118,3.27769,0.09942,-1.47690,0.00184,0.00149,0.00211,0.00059,0.00073,0.00077,0.00161,0.00472,14.574667,10.545926,13.440973,10.261413,14.421359,9.134549,13.193676,8.129033,13.776106,8.061152,14.431614,8.009503,15.937640,8.095821,14.587102,4.231054,14.448200,4.622003,0,17.443081,6.347705,16.057597,4.859496,15.405475,6.320490,63.393751,87.593701,46.703031,176.367050,0,0,0,0,0,0,0,0,0,0,0,0,0,0,0,0,0,0,1,0,0,0,0,0,0,0
0.119,3.27731,0.09975,-1.47797,0.00180,0.00153,0.00212,0.00057,0.00079,0.00081,0.00168,0.00483,14.568916,10.543843,13.436726,10.262194,14.413672,9.132590,13.180360,8.135196,13.765849,8.062205,14.422092,8.006730,15.944284,8.105091,14.542174,4.318586,14.438354,4.615706,0,17.429873,6.352649,16.056059,4.858241,15.398552,6.317122,63.468759,87.519876,46.602368,176.231710,0,0,0,0,0,0,0,0,0,0,0,0,0,0,0,0,0,0,1,0,0,0,0,0,0,0
0.120,3.27712,0.09983,-1.48026,0.00177,0.00140,0.00211,0.00055,0.00079,0.00082,0.00160,0.00462,14.562551,10.542034,13.432681,10.262370,14.406139,9.130343,13.167068,8.141985,13.756307,8.062504,14.413196,8.005018,15.949412,8.113866,14.489904,4.471334,14.427853,4.609561,0,17.414525,6.358345,16.055902,4.856862,15.391348,6.312930,63.530599,87.442251,46.512952,175.993310,0,0,0,0,0,0,0,0,0,0,0,0,0,0,0,0,0,0,1,0,0,0,0,0,0,0
0.121,3.27718,0.09954,-1.48750,0.00172,0.00132,0.00194,0.00057,0.00078,0.00081,0.00162,0.00479,14.555118,10.541060,13.427443,10.261762,14.398393,9.127797,13.154031,8.147947,13.747567,8.061346,14.404781,8.004530,15.950718,8.122072,14.494565,4.517698,14.415939,4.604269,0,17.397582,6.363410,16.056989,4.855426,15.384322,6.308465,63.559438,87.356430,46.430803,175.678596,0,0,0,0,0,0,0,0,0,0,0,0,0,0,0,0,0,0,1,0,0,0,0,0,0,0
0.122,3.27739,0.09948,-1.47842,0.00136,0.00122,0.00142,0.00058,0.00081,0.00074,0.00169,0.00590,14.546661,10.540924,13.420490,10.260373,14.390341,9.125016,13.141455,8.152199,13.739586,8.058704,14.396544,8.005289,15.947785,8.129592,14.561288,4.415677,14.402696,4.600360,0,17.379688,6.367295,16.059515,4.854048,15.377630,6.304341,63.547883,87.264323,46.354649,175.320987,0,0,0,0,0,0,0,0,0,0,0,0,0,0,0,0,0,0,1,0,0,0,0,0,0,0
0.123,3.27739,0.09998,-1.47926,0.00110,0.00116,0.00142,0.00055,0.00082,0.00073,0.00203,0.00601,14.537918,10.540842,13.412538,10.258465,14.382275,9.122170,13.129513,8.154660,13.732129,8.055500,14.387953,8.007119,15.942866,8.136252,14.611596,4.306465,14.389396,4.598126,0,17.361624,6.370636,16.064136,4.852906,15.371000,6.301265,63.506136,87.176748,46.287059,174.963329,0,0,0,0,0,0,0,0,0,0,0,0,0,0,0,0,0,0,1,0,0,0,0,0,0,0
0.124,3.27707,0.09978,-1.48109,0.00117,0.00127,0.00211,0.00056,0.00083,0.00072,0.00212,0.00590,14.529685,10.539970,13.404397,10.256319,14.374515,9.119438,13.118373,8.155313,13.724945,8.052728,14.378460,8.009828,15.938413,8.141872,14.560691,4.345112,14.377399,4.597836,0,17.344180,6.374156,16.071547,4.852184,15.364129,6.299951,63.445727,87.105197,46.230891,174.649179,0,0,0,0,0,0,0,0,0,0,0,0,0,0,0,0,0,0,1,0,0,0,0,0,0,0
0.125,3.27671,0.09927,-1.48056,0.00135,0.00116,0.00217,0.00057,0.00079,0.00073,0.00207,0.00555,14.522742,10.537479,13.396866,10.254214,14.367379,9.116995,13.108207,8.154144,13.717787,8.051367,14.367527,8.013224,15.936856,8.146275,14.325450,4.683727,14.368043,4.599750,0,17.328135,6.378564,16.082420,4.852062,15.356717,6.301090,63.378166,87.060960,46.188959,174.421484,0,0,0,0,0,0,0,0,0,0,0,0,0,0,0,0,0,0,1,0,0,0,0,0,0,0
0.126,3.27655,0.09940,-1.47911,0.00136,0.00107,0.00219,0.00055,0.00075,0.00077,0.00198,0.00518,14.517307,10.533260,13.390311,10.252304,14.360947,9.114887,13.099223,8.151384,13.710420,8.051689,14.355034,8.016945,15.939410,8.149304,13.902220,5.335031,14.361573,4.603545,0,17.313648,6.383913,16.096398,4.852513,15.348737,6.304393,63.314005,87.045708,46.162075,174.294195,0,0,0,0,0,0,0,0,0,0,0,0,0,0,0,0,0,0,1,0,0,0,0,0,0,0
0.127,3.27683,0.09949,-1.47934,0.00134,0.00113,0.00155,0.00055,0.00079,0.00078,0.00183,0.00479,14.512797,10.528216,13.384482,10.250566,14.354965,9.112979,13.091682,8.147613,13.702626,8.052967,14.341462,8.020396,15.945574,8.150832,13.399680,6.114721,14.356690,4.608072,0,17.300004,6.389327,16.111670,4.853219,15.340539,6.308177,63.262440,87.047514,46.148212,174.240274,0,0,0,0,0,0,0,0,0,0,0,0,0,0,0,0,0,0,1,0,0,0,0,0,0,0
0.128,3.27739,0.09913,-1.47919,0.00126,0.00129,0.00163,0.00055,0.00081,0.00079,0.00159,0.00476,14.508572,10.523329,13.379081,10.248964,14.349153,9.111120,13.085853,8.143435,13.694193,8.054399,14.327333,8.022964,15.954719,8.150738,12.935005,6.823592,14.351979,4.612121,0,17.286422,6.393857,16.126315,4.853840,15.332505,6.310657,63.232564,87.053423,46.145131,174.229586,0,0,0,0,0,0,0,0,0,0,0,0,0,0,0,0,0,0,1,0,0,0,0,0,0,0
0.129,3.27757,0.09879,-1.47896,0.00133,0.00125,0.00227,0.00057,0.00085,0.00078,0.00150,0.00533,14.503999,10.519566,13.373814,10.247461,14.343236,9.109159,13.081986,8.139450,13.684906,8.055193,14.313168,8.024046,15.966218,8.148897,12.623865,7.265336,14.346038,4.614502,0,17.272135,6.396575,16.138457,4.854039,15.325014,6.310075,63.233354,87.050560,46.150366,174.232339,0,0,0,0,0,0,0,0,0,0,0,0,0,0,0,0,0,0,1,0,0,0,0,0,0,0
0.130,3.27720,0.09876,-1.47736,0.00139,0.00125,0.00235,0.00059,0.00084,0.00076,0.00165,0.00551,14.498946,10.517247,13.368504,10.246022,14.337023,9.106929,13.079595,8.136069,13.674540,8.055096,14.299259,8.023534,15.979592,8.145112,12.510620,7.381083,14.338207,4.615034,0,17.256979,6.397318,16.148308,4.853626,15.318359,6.306102,63.268375,87.029733,46.150645,174.235108,0,0,0,0,0,0,0,0,0,0,0,0,0,0,0,0,0,0,1,0,0,0,0,0,0,0
0.131,3.27693,0.09880,-1.47858,0.00137,0.00135,0.00245,0.00058,0.00085,0.00077,0.00195,0.00550,14.493987,10.515776,13.363138,10.244608,14.330447,9.104237,13.077153,8.133433,13.662860,8.054615,14.285580,8.022016,15.994568,8.139089,12.538837,7.306227,14.328868,4.614954,0,17.241651,6.397013,16.159031,4.852623,15.312716,6.300421,63.333532,86.986964,46.117428,174.247603,0,0,0,0,0,0,0,0,0,0,0,0,0,0,0,0,0,0,1,0,0,0,0,0,0,0
0.132,3.27693,0.09869,-1.47926,0.00142,0.00140,0.00249,0.00055,0.00083,0.00073,0.00209,0.00478,14.489750,10.514486,13.357715,10.243181,14.323450,9.100890,13.073054,8.131661,13.649628,8.054315,14.272080,8.020137,16.010888,8.130524,12.644455,7.190855,14.318484,4.615610,0,17.226908,6.396669,16.174015,4.851067,15.308251,6.294871,63.424153,86.918668,46.021020,174.281283,0,0,0,0,0,0,0,0,0,0,0,0,0,0,0,0,0,0,1,0,0,0,0,0,0,0
0.133,3.27666,0.09833,-1.48010,0.00139,0.00144,0.00248,0.00056,0.00084,0.00079,0.00189,0.00431,14.486850,10.512720,13.352237,10.241704,14.315976,9.096696,13.065714,8.130873,13.634617,8.054752,14.258703,8.018533,16.028309,8.119123,12.764173,7.182534,14.307510,4.618324,0,17.213501,6.397278,16.196584,4.849002,15.305126,6.291261,63.535654,86.821385,45.832004,174.347710,0,0,0,0,0,0,0,0,0,0,0,0,0,0,0,0,0,0,1,0,0,0,0,0,0,0
0.134,3.27613,0.09828,-1.47636,0.00131,0.00131,0.00177,0.00054,0.00084,0.00079,0.00197,0.00412,14.485376,10.510164,13.346774,10.240112,14.308027,9.091610,13.054632,8.131132,13.618034,8.056112,14.245220,8.017557,16.047195,8.105077,12.870614,7.309321,14.296036,4.623208,0,17.201694,6.399043,16.227138,4.846868,15.303318,6.290069,63.667687,86.697589,45.534145,174.463274,0,0,0,0,0,0,0,0,0,0,0,0,0,0,0,0,0,0,1,0,0,0,0,0,0,0
0.135,3.27622,0.09852,-1.47614,0.00108,0.00125,0.00170,0.00054,0.00084,0.00075,0.00210,0.00407,14.484667,10.506990,13.341495,10.238302,14.299687,9.085791,13.040830,8.132424,13.600703,8.058049,14.231147,8.017163,16.068769,8.089258,12.987185,7.430341,14.283633,4.628667,0,17.191066,6.401049,16.261940,4.845658,15.302543,6.289894,63.825882,86.558139,45.129843,174.651191,0,0,0,0,0,0,0,0,0,0,0,0,0,0,0,0,0,0,1,0,0,0,0,0,0,0
0.136,3.27714,0.09843,-1.47820,0.00103,0.00123,0.00174,0.00055,0.00087,0.00075,0.00210,0.00422,14.484009,10.503407,13.336579,10.236169,14.291047,9.079412,13.025450,8.134728,13.583495,8.060180,14.215986,8.017275,16.094322,8.072590,13.141131,7.391942,14.269835,4.632978,0,17.181146,6.402299,16.296939,4.846409,15.302497,6.289190,64.016324,86.414532,44.622908,174.935193,0,0,0,0,0,0,0,0,0,0,0,0,0,0,0,0,0,0,1,0,0,0,0,0,0,0
0.137,3.27797,0.09805,-1.47751,0.00106,0.00120,0.00242,0.00055,0.00083,0.00077,0.00212,0.00490,14.482695,10.499626,13.332199,10.233612,14.282198,9.072648,13.009618,8.138023,13.567271,8.062128,14.199255,8.017814,16.125125,8.056007,13.359016,7.043440,14.254191,4.634443,0,17.171469,6.401810,16.328143,4.850132,15.302872,6.286441,64.244932,86.278158,44.017593,175.338272,0,0,0,0,0,0,0,0,0,0,0,0,0,0,0,0,0,0,1,0,0,0,0,0,0,0
0.138,3.27813,0.09790,-1.47797,0.00117,0.00109,0.00297,0.00052,0.00084,0.00076,0.00222,0.00517,14.480519,10.495901,13.328447,10.230723,14.273241,9.065651,12.993820,8.142252,13.552427,8.063827,14.181489,8.018611,16.161656,8.040814,13.635021,6.374751,14.236988,4.632569,0,17.161951,6.399417,16.354304,4.856561,15.303220,6.281480,64.509743,86.155538,43.339121,175.848348,0,0,0,0,0,0,0,0,0,0,0,0,0,0,0,0,0,0,1,0,0,0,0,0,0,0
0.139,3.27765,0.09830,-1.47842,0.00118,0.00116,0.00232,0.00050,0.00077,0.00076,0.00241,0.00498,14.477976,10.492545,13.325290,10.227866,14.264296,9.058542,12.977644,8.147307,13.538700,8.065654,14.164651,8.019373,16.203265,8.028845,13.917548,5.574535,14.219553,4.628572,0,17.153041,6.396110,16.378052,4.863632,15.302890,6.276041,64.797653,86.046313,42.642364,176.403765,0,0,0,0,0,0,0,0,0,0,0,0,0,0,0,0,0,0,1,0,0,0,0,0,0,0
0.140,3.27691,0.09813,-1.47957,0.00115,0.00121,0.00228,0.00047,0.00084,0.00081,0.00251,0.00536,14.475617,10.489878,13.322689,10.225427,14.255484,9.051442,12.960607,8.153074,13.525780,8.068018,14.150813,8.019795,16.249218,8.021976,14.151541,4.846488,14.203293,4.623794,0,17.145228,6.392965,16.402313,4.869141,15.301215,6.272006,65.094715,85.949600,41.984434,176.939117,0,0,0,0,0,0,0,0,0,0,0,0,0,0,0,0,0,0,1,0,0,0,0,0,0,0
0.141,3.27671,0.09769,-1.48415,0.00116,0.00124,0.00225,0.00049,0.00087,0.00083,0.00234,0.00615,14.473983,10.488212,13.320605,10.223783,14.246926,9.044470,12.942242,8.159435,13.513358,8.071315,14.142006,8.019576,16.298756,8.022052,14.282873,4.391361,14.189592,4.619560,0,17.138983,6.391042,16.429966,4.870932,15.297541,6.271221,65.387090,85.864477,41.422029,177.389277,0,0,0,0,0,0,0,0,0,0,0,0,0,0,0,0,0,0,1,0,0,0,0,0,0,0
0.142,3.27717,0.09769,-1.47652,0.00113,0.00134,0.00271,0.00052,0.00090,0.00083,0.00257,0.00578,14.473177,10.487512,13.318976,10.222976,14.238761,9.037724,12.922931,8.165882,13.501295,8.075408,14.138402,8.018590,16.349926,8.029569,14.301576,4.270494,14.178779,4.616301,0,17.133756,6.390648,16.461794,4.868887,15.291806,6.273984,65.665965,85.788087,40.992213,177.702373,0,0,0,0,0,0,0,0,0,0,0,0,0,0,0,0,0,0,1,0,0,0,0,0,0,0
0.143,3.27747,0.09797,-1.47919,0.00107,0.00142,0.00299,0.00051,0.00088,0.00076,0.00247,0.00621,14.472687,10.487254,13.317714,10.222569,14.231152,9.031279,12.904248,8.171361,13.489691,8.079403,14.137538,8.016956,16.399088,8.043117,14.260099,4.348166,14.169693,4.613184,0,17.127562,6.391021,16.495611,4.865781,15.284783,6.278402,65.929640,85.714847,40.704295,177.845260,0,0,0,0,0,0,0,0,0,0,0,1,0,0,0,0,0,0,1,0,0,0,0,0,0,0
0.144,3.27731,0.09785,-1.47896,0.00098,0.00152,0.00306,0.00051,0.00088,0.00078,0.00253,0.00696,14.471955,10.486876,13.316728,10.222089,14.224266,9.025203,12.887859,8.174777,13.478666,8.082345,14.136753,8.014813,16.442474,8.061141,14.215613,4.473752,14.161060,4.609280,0,17.118306,6.391321,16.529007,4.864602,15.277308,6.282417,66.176948,85.638963,40.565482,177.786214,0,0,0,0,0,0,0,0,0,0,0,0,0,0,0,0,0,0,1,0,0,0,0,0,0,0
0.145,3.27736,0.09764,-1.47804,0.00097,0.00174,0.00312,0.00054,0.00086,0.00114,0.00286,0.00789,14.470431,10.485826,13.315925,10.221071,14.218262,9.019565,12.875399,8.175061,13.468341,8.083296,14.133415,8.012298,16.476391,8.082067,14.224158,4.499089,14.151626,4.603686,0,17.103933,6.390717,16.559602,4.868294,15.270209,6.283999,66.406881,85.554765,40.582330,177.494613,0,0,0,0,0,0,0,0,0,0,0,0,0,0,0,0,0,0,1,0,0,0,0,0,0,0
0.146,3.27767,0.09762,-1.47820,0.00101,0.00179,0.00361,0.00051,0.00084,0.00132,0.00300,0.00818,14.467934,10.483892,13.315180,10.219308,14.213079,9.014309,12.867072,8.172408,13.459030,8.081887,14.126354,8.009556,16.500712,8.103514,14.288202,4.392808,14.141097,4.596705,0,17.084235,6.388963,16.586350,4.877415,15.263884,6.282448,66.625814,85.462287,40.730307,176.992237,0,0,0,0,0,0,0,0,0,0,0,0,0,0,0,0,0,0,1,0,0,0,0,0,0,0
0.147,3.27734,0.09780,-1.47690,0.00099,0.00188,0.00312,0.00053,0.00083,0.00131,0.00310,0.00769,14.464811,10.481350,13.314320,10.216959,14.208336,9.009209,12.861063,8.168794,13.451312,8.078560,14.116455,8.006741,16.520351,8.121954,14.334487,4.288621,14.130534,4.590342,0,17.061617,6.386632,16.610090,4.889161,15.258126,6.278943,66.850558,85.369636,40.940947,176.374934,0,0,0,0,0,0,0,0,0,0,0,0,0,0,0,0,0,0,1,0,0,0,0,0,0,0
0.148,3.27632,0.09789,-1.47934,0.00086,0.00175,0.00247,0.00054,0.00081,0.00131,0.00321,0.00763,14.461447,10.478513,13.313168,10.214212,14.203630,9.004023,12.855403,8.166333,13.445788,8.073816,14.104762,8.004006,16.540601,8.133776,14.284028,4.332731,14.121101,4.586734,0,17.038680,6.384358,16.631806,4.900474,15.252680,6.274806,67.098712,85.285525,41.142460,175.744151,0,0,0,0,0,0,0,0,0,0,0,0,0,0,0,0,0,0,1,0,0,0,0,0,0,0
0.149,3.27591,0.09768,-1.47789,0.00084,0.00169,0.00244,0.00057,0.00080,0.00131,0.00307,0.00729,14.458225,10.475691,13.311552,10.211255,14.198561,8.998514,12.848151,8.167099,13.443034,8.068162,14.092312,8.001506,16.566679,8.135455,14.059426,4.668560,14.113943,4.587970,0,17.018000,6.382770,16.652473,4.908339,15.247295,6.271349,67.387640,85.218653,41.263801,175.200366,0,0,0,0,0,0,0,0,0,0,0,0,0,0,0,0,0,0,1,0,0,0,0,0,0,0
0.150,3.27651,0.09765,-1.47964,0.00085,0.00170,0.00245,0.00056,0.00072,0.00127,0.00288,0.00682,14.455372,10.473138,13.309491,10.208221,14.192860,8.992560,12.838580,8.171349,13.442378,8.062303,14.079808,7.999423,16.600061,8.127772,13.658471,5.307735,14.109268,4.594046,0,17.000817,6.382119,16.672629,4.911791,15.241770,6.269296,67.723516,85.176904,41.269203,174.798031,0,0,0,0,0,0,0,0,0,0,0,0,0,0,0,0,0,0,1,0,0,0,0,0,0,0
0.151,3.27715,0.09801,-1.47942,0.00097,0.00155,0.00249,0.00057,0.00074,0.00129,0.00294,0.00685,14.452897,10.471028,13.307275,10.205167,14.186446,8.986203,12.827689,8.176771,13.441392,8.057228,14.067487,7.997977,16.636936,8.117589,13.185227,6.075592,14.105966,4.601994,0,16.986485,6.382127,16.692200,4.912763,15.235982,6.268545,68.096695,85.167011,41.172770,174.526536,0,0,0,0,0,0,0,0,0,0,0,0,0,0,0,0,0,0,1,0,0,0,0,0,0,0
0.152,3.27726,0.09805,-1.47324,0.00119,0.00142,0.00263,0.00054,0.00074,0.00129,0.00284,0.00744,14.450790,10.469526,13.305215,10.202144,14.179252,8.979497,12.816607,8.180857,13.437513,8.053944,14.055546,7.997389,16.673097,8.112227,12.751801,6.783378,14.102824,4.608622,0,16.974216,6.382473,16.711064,4.913408,15.229811,6.268934,68.496333,85.195620,40.992378,174.370350,0,0,0,0,0,0,0,0,0,0,0,0,0,0,0,0,0,0,1,0,0,0,0,0,0,0
0.153,3.27701,0.09773,-1.47873,0.00130,0.00135,0.00237,0.00054,0.00077,0.00126,0.00298,0.00706,14.449042,10.468795,13.303617,10.199204,14.171215,8.972497,12.806444,8.181143,13.428220,8.053439,14.044178,7.997876,16.704383,8.118883,12.468773,7.244882,14.098649,4.610779,0,16.963227,6.382844,16.729110,4.915853,15.223148,6.270288,68.911586,85.268982,40.746146,174.313420,0,0,0,0,0,0,0,0,0,0,0,0,0,0,0,0,0,0,1,0,0,0,0,0,0,0
0.154,3.27675,0.09757,-1.47850,0.00142,0.00125,0.00265,0.00054,0.00077,0.00124,0.00296,0.00622,14.447634,10.468751,13.302558,10.196433,14.162411,8.965313,12.797432,8.177044,13.412936,8.055718,14.033241,7.999358,16.728963,8.138840,12.374478,7.394437,14.093067,4.607280,0,16.953009,6.383178,16.746742,4.920967,15.216458,6.272029,69.331476,85.374600,40.463755,174.314852,0,0,0,0,0,0,0,0,0,0,0,0,0,0,0,0,0,0,1,0,0,0,0,0,0,0
0.155,3.27700,0.09793,-1.48590,0.00147,0.00107,0.00279,0.00051,0.00078,0.00094,0.00240,0.00529,14.446527,10.468970,13.301787,10.193966,14.153115,8.958126,12.788565,8.170642,13.393837,8.059396,14.022123,8.001342,16.748295,8.165022,12.405132,7.336767,14.086868,4.599718,0,16.943436,6.383769,16.765088,4.927847,15.211008,6.273003,69.744832,85.473477,40.191227,174.298642,0,0,0,0,0,0,0,0,0,0,0,0,0,0,0,0,0,0,1,0,0,0,0,0,0,0
0.156,3.27759,0.09792,-1.47903,0.00160,0.00107,0.00259,0.00053,0.00080,0.00069,0.00217,0.00492,14.445682,10.468998,13.301031,10.191939,14.143619,8.951124,12.778740,8.164220,13.373304,8.062981,14.010174,8.003299,16.764090,8.189718,12.489223,7.189485,14.080927,4.589895,0,16.934412,6.384938,16.785333,4.935452,15.208129,6.272014,70.140472,85.524612,39.975821,174.186130,0,0,0,0,0,0,0,0,0,0,0,0,0,0,0,0,0,0,1,0,0,0,0,0,0,0
0.157,3.27733,0.09749,-1.47873,0.00153,0.00092,0.00229,0.00051,0.00080,0.00066,0.00215,0.00448,14.445061,10.468391,13.300018,10.190487,14.134212,8.944494,12.766873,8.160040,13.353696,8.065001,13.996757,8.004706,16.778045,8.205311,12.556006,7.068953,14.076101,4.579608,0,16.925839,6.386997,16.808637,4.942753,15.209113,6.267893,70.507411,85.487622,39.864034,173.900049,0,0,0,0,0,0,0,0,0,0,0,0,0,0,0,0,0,0,1,0,0,0,0,0,0,0
0.158,3.27613,0.09751,-1.47827,0.00151,0.00093,0.00226,0.00051,0.00078,0.00067,0.00219,0.00445,14.444630,10.467012,13.298650,10.189588,14.125117,8.938299,12.752556,8.159508,13.336228,8.064908,13.981817,8.005273,16.791451,8.208513,12.570896,7.032247,14.072280,4.570373,0,16.917589,6.389810,16.834915,4.949205,15.213541,6.260930,70.844095,85.351495,39.866224,173.429026,0,0,0,0,0,0,0,0,0,0,0,0,0,0,0,0,0,0,1,0,0,0,0,0,0,0
0.159,3.27558,0.09790,-1.47804,0.00145,0.00092,0.00218,0.00052,0.00078,0.00068,0.00226,0.00438,14.444365,10.465165,13.297068,10.188997,14.116468,8.932429,12.736349,8.162809,13.320500,8.063456,13.966117,8.005031,16.805012,8.202156,12.550422,7.052639,14.067986,4.563312,0,16.909495,6.392611,16.862326,4.954948,15.218576,6.253466,71.162297,85.146733,39.941673,172.854832,0,0,0,0,0,0,0,0,0,0,0,0,0,0,0,0,0,0,1,0,0,0,0,0,0,0
0.160,3.27625,0.09773,-1.47743,0.00140,0.00083,0.00214,0.00051,0.00082,0.00067,0.00307,0.00407,14.444242,10.463185,13.295436,10.188453,14.108388,8.926762,12.718880,8.170039,13.305989,8.061499,13.950484,8.004038,16.819389,8.189536,12.514983,7.097062,14.061638,4.559515,0,16.901381,6.394587,16.888897,4.960172,15.221195,6.248002,71.474801,84.906977,40.045797,172.266286,0,0,0,0,0,0,0,0,0,0,0,0,0,0,0,0,0,0,1,0,0,0,0,0,0,0
0.161,3.27706,0.09763,-1.47865,0.00134,0.00097,0.00218,0.00050,0.00077,0.00070,0.00337,0.00447,14.444236,10.461404,13.293913,10.187699,14.101001,8.921173,12.700782,8.181269,13.292178,8.059882,13.935731,8.002355,16.835238,8.173947,12.484765,7.132804,14.051685,4.560054,0,16.893071,6.394938,16.912679,4.965056,15.218427,6.246991,71.794258,84.665662,40.134338,171.751307,0,0,0,0,0,0,0,0,0,0,0,0,0,0,0,0,0,0,1,0,0,0,0,0,0,0
0.162,3.27730,0.09766,-1.47896,0.00114,0.00111,0.00222,0.00050,0.00075,0.00073,0.00307,0.00481,14.444257,10.459970,13.292625,10.186593,14.094271,8.915554,12.682827,8.195452,13.278713,8.059083,13.922088,8.000173,16.852853,8.158721,12.469955,7.143915,14.037937,4.565039,0,16.884153,6.393671,16.932879,4.969204,15.209719,6.250862,72.127110,84.446533,40.178399,171.355261,0,0,0,0,0,0,0,0,0,0,0,0,0,0,0,0,0,0,1,0,0,0,0,0,0,0
0.163,3.27693,0.09792,-1.47728,0.00102,0.00110,0.00217,0.00051,0.00072,0.00080,0.00306,0.00586,14.444124,10.458771,13.291651,10.185161,14.087942,8.909813,12.665977,8.209963,13.265477,8.059060,13.908960,7.997865,16.872023,8.147235,12.466605,7.138138,14.022133,4.573227,0,16.873881,6.391920,16.950344,4.971403,15.197932,6.257177,72.471023,84.259628,40.170798,171.063365,0,0,0,0,0,0,0,0,0,0,0,0,0,0,0,0,0,0,1,0,0,0,0,0,0,0
0.164,3.27633,0.09803,-1.47850,0.00091,0.00114,0.00193,0.00052,0.00071,0.00082,0.00308,0.00599,14.443648,10.457675,13.291064,10.183440,14.081742,8.903856,12.651212,8.222055,13.252369,8.059733,13.895690,7.995820,16.892496,8.142871,12.469701,7.125012,14.006156,4.583272,0,16.861488,6.390910,16.966041,4.970380,15.186184,6.263280,72.822999,84.113951,40.105994,170.856286,0,0,0,0,0,0,0,0,0,0,0,0,0,0,0,0,0,0,1,0,0,0,0,0,0,0
0.165,3.27633,0.09776,-1.47964,0.00088,0.00110,0.00168,0.00053,0.00075,0.00086,0.00345,0.00656,14.442647,10.456551,13.290936,10.181470,14.075401,8.897597,12.639486,8.229028,13.239292,8.061019,13.881636,7.994422,16.914008,8.148951,12.474260,7.113975,13.991858,4.593836,0,16.846227,6.391835,16.980934,4.964896,15.177558,6.266550,73.180000,84.018329,39.978692,170.714810,0,0,0,0,0,0,0,0,0,0,0,0,0,0,0,0,0,0,1,0,0,0,0,0,0,0
0.166,3.27699,0.09769,-1.47835,0.00075,0.00102,0.00147,0.00052,0.00080,0.00093,0.00388,0.00674,14.441179,10.455369,13.291240,10.179292,14.068802,8.891061,12.630694,8.230338,13.226295,8.062728,13.866857,7.993829,16.935578,8.166034,12.476930,7.109831,13.979654,4.603869,0,16.828487,6.394618,16.995718,4.955332,15.173301,6.266017,73.537184,83.973278,39.795161,170.625326,0,0,0,0,0,0,0,0,0,0,0,0,0,0,0,0,0,0,1,0,0,0,0,0,0,0
0.167,3.27728,0.09807,-1.47827,0.00080,0.00104,0.00145,0.00052,0.00083,0.00095,0.00398,0.00682,14.439643,10.454236,13.291806,10.176959,14.062048,8.884434,12.623227,8.228485,13.213635,8.064518,13.852403,7.993886,16.955217,8.190767,12.476665,7.110835,13.967925,4.612738,0,16.810255,6.397385,17.010712,4.944355,15.172071,6.263044,73.887157,83.967562,39.578016,170.582150,0,0,0,0,0,0,0,0,0,0,0,0,0,0,0,0,0,0,1,0,0,0,0,0,0,0
0.168,3.27687,0.09819,-1.47896,0.00106,0.00110,0.00147,0.00051,0.00090,0.00094,0.00415,0.00671,14.438462,10.453274,13.292455,10.174521,14.055255,8.877916,12.615360,8.226202,13.201583,8.066038,13.839402,7.994410,16.970856,8.219501,12.472590,7.114745,13.954899,4.619842,0,16.793638,6.398125,17.026208,4.934808,15.172329,6.259171,74.222331,83.989058,39.351112,170.580194,0,0,0,0,0,0,0,0,0,0,0,0,0,0,0,0,0,0,1,0,0,0,0,0,0,0
0.169,3.27669,0.09781,-1.47644,0.00119,0.00121,0.00181,0.00047,0.00089,0.00095,0.00420,0.00682,14.438057,10.452597,13.293008,10.172030,14.048541,8.871703,12.605400,8.226181,13.190408,8.066939,13.828953,7.995219,16.980474,8.248607,12.463871,7.119339,13.938833,4.624590,0,16.780708,6.394865,17.042490,4.929489,15.172555,6.255922,74.535218,84.025555,39.138210,170.614104,0,0,0,0,0,0,0,0,0,0,0,0,0,0,0,0,0,0,1,0,0,0,0,0,0,0
0.170,3.27700,0.09781,-1.47812,0.00129,0.00131,0.00246,0.00052,0.00083,0.00097,0.00344,0.00689,14.438584,10.452208,13.293409,10.169584,14.041979,8.865895,12.593020,8.229280,13.180180,8.067126,13.820948,7.996033,16.984115,8.275231,12.451556,7.123277,13.919372,4.626941,0,16.771751,6.387472,17.059510,4.929233,15.172025,6.254135,74.823069,84.060661,38.958807,170.665710,0,0,0,0,0,0,0,0,0,0,0,0,0,0,0,0,0,0,1,0,0,0,0,0,0,0
0.171,3.27709,0.09820,-1.47919,0.00154,0.00120,0.00273,0.00056,0.00081,0.00092,0.00307,0.00579,14.439827,10.451942,13.293772,10.167342,14.035580,8.860452,12.579825,8.233761,13.170686,8.066858,13.813564,7.996435,16.984746,8.297624,12.439350,7.126468,13.898121,4.627635,0,16.764536,6.378415,17.076757,4.932092,15.171144,6.253674,75.089825,84.072076,38.826373,170.698735,0,0,0,0,0,0,0,0,0,0,0,0,0,0,0,0,0,0,1,0,0,0,0,0,0,0
0.172,3.27672,0.09811,-1.47934,0.00167,0.00107,0.00202,0.00054,0.00080,0.00092,0.00336,0.00549,14.441546,10.451625,13.294222,10.165471,14.029352,8.855325,12.567567,8.237689,13.161696,8.066419,13.804852,7.995996,16.985558,8.314119,12.431160,7.128916,13.876837,4.627469,0,16.756637,6.370358,17.093682,4.935910,15.170402,6.254333,75.339938,84.037055,38.753918,170.675533,0,0,0,0,0,0,0,0,0,0,0,0,0,0,0,0,0,0,1,0,0,0,0,0,0,0
0.173,3.27649,0.09768,-1.47713,0.00164,0.00105,0.00196,0.00053,0.00080,0.00089,0.00359,0.00507,14.443498,10.451084,13.294884,10.164132,14.023302,8.850465,12.557966,8.239172,13.152973,8.066096,13.792891,7.994300,16.989696,8.323086,12.430819,7.130627,13.857258,4.627238,0,16.745672,6.365927,17.109751,4.938562,15.170286,6.255895,75.577893,83.933292,38.754360,170.558639,0,0,0,0,0,0,0,0,0,0,0,0,0,0,0,0,0,0,1,0,0,0,0,0,0,0
0.174,3.27669,0.09778,-1.47911,0.00177,0.00097,0.00198,0.00051,0.00082,0.00112,0.00383,0.00564,14.445507,10.450270,13.295834,10.163343,14.017399,8.845878,12.551191,8.238258,13.144104,8.066174,13.777286,7.991478,16.998313,8.324681,12.438648,7.131700,13.840320,4.627549,0,16.731153,6.365923,17.125121,4.939587,15.171167,6.257742,75.809817,83.759377,38.836166,170.319311,0,0,0,0,0,0,0,0,0,0,0,0,0,0,0,0,0,0,1,0,0,0,0,0,0,0
0.175,3.27717,0.09800,-1.47972,0.00217,0.00101,0.00199,0.00051,0.00080,0.00111,0.00385,0.00518,14.447487,10.449312,13.297076,10.162922,14.011561,8.841642,12.545224,8.237748,13.134422,8.066939,13.759788,7.988435,17.009740,8.321578,12.450008,7.132373,13.825824,4.628745,0,16.715275,6.368567,17.140924,4.940865,15.173245,6.258691,76.044165,83.543433,39.001509,169.941133,0,0,0,0,0,0,0,0,0,0,0,0,0,0,0,0,0,0,1,0,0,0,0,0,0,0
0.176,3.27768,0.09789,-1.47949,0.00230,0.00111,0.00204,0.00052,0.00071,0.00111,0.00358,0.00521,14.449357,10.448353,13.298609,10.162669,14.005700,8.837843,12.537881,8.240648,13.123244,8.068679,13.742314,7.986135,17.022097,8.316644,12.459882,7.132891,13.813489,4.631151,0,16.700434,6.371887,17.158365,4.944454,15.176712,6.257514,76.289565,83.315817,39.252087,169.408620,0,0,0,0,0,0,0,0,0,0,0,0,0,0,0,0,0,0,1,0,0,0,0,0,0,0
0.177,3.27795,0.09757,-1.47942,0.00226,0.00108,0.00204,0.00052,0.00070,0.00109,0.00348,0.00519,14.451039,10.447534,13.300430,10.162389,13.999730,8.834564,12.527018,8.249904,13.109899,8.071667,13.726750,7.985523,17.033519,8.312716,12.463334,7.133495,13.803032,4.635073,0,16.688989,6.373932,17.178616,4.952366,15.181743,6.253013,76.554524,83.106414,39.589520,168.706546,0,0,0,0,0,0,0,0,0,0,0,0,0,0,0,0,0,0,1,0,0,0,0,0,0,0
0.178,3.27783,0.09766,-1.47957,0.00200,0.00106,0.00203,0.00051,0.00063,0.00105,0.00333,0.00559,14.452468,10.446940,13.302379,10.162065,13.993590,8.831776,12.512382,8.265585,13.094403,8.075628,13.713563,7.986809,17.043071,8.311210,12.459093,7.134223,13.794268,4.640105,0,16.681425,6.373923,17.201244,4.964394,15.187967,6.245336,76.841775,82.922709,40.011735,167.831890,0,0,0,0,0,0,0,0,0,0,0,0,0,0,0,0,0,0,1,0,0,0,0,0,0,0
0.179,3.27740,0.09792,-1.47842,0.00192,0.00099,0.00224,0.00053,0.00062,0.00105,0.00343,0.00614,14.453600,10.446576,13.304075,10.161933,13.987252,8.829291,12.496391,8.283696,13.077737,8.079511,13.701214,7.989154,17.051122,8.311533,12.451076,7.134822,13.787146,4.644825,0,16.675585,6.372734,17.223543,4.977197,15.194232,6.236531,77.145892,82.740520,40.511438,166.798888,0,0,0,0,0,0,0,0,0,0,0,0,0,0,0,0,0,0,1,0,0,0,0,0,0,0
0.180,3.27688,0.09790,-1.47896,0.00183,0.00093,0.00217,0.00052,0.00063,0.00104,0.00363,0.00638,14.454393,10.446443,13.305125,10.162248,13.980692,8.826911,12.481665,8.299935,13.060960,8.082204,13.688012,7.991639,17.058139,8.312943,12.443591,7.135021,13.781628,4.647735,0,16.669111,6.371363,17.242639,4.987196,15.199325,6.228792,77.460831,82.533271,41.080943,165.623080,0,0,0,0,0,0,0,0,0,0,0,0,0,0,0,0,0,0,1,0,0,0,0,0,0,0
0.181,3.27665,0.09769,-1.47865,0.00161,0.00096,0.00190,0.00051,0.00063,0.00108,0.00368,0.00650,14.454808,10.446537,13.305140,10.163257,13.973885,8.824436,12.470777,8.310079,13.045110,8.082618,13.672297,7.993360,17.064588,8.314701,12.440886,7.134552,13.777656,4.647366,0,16.659680,6.370798,17.255702,4.990868,15.202057,6.224277,77.780556,82.274674,41.712306,164.320351,0,0,0,0,0,0,0,0,0,0,0,0,0,0,0,0,0,0,1,0,0,0,0,0,0,0
0.182,3.27682,0.09769,-1.47888,0.00147,0.00093,0.00186,0.00052,0.00067,0.00108,0.00347,0.00586,14.454957,10.446780,13.304149,10.164919,13.966835,8.821725,12.464032,8.313640,13.030389,8.080721,13.653864,7.994001,17.070701,8.316298,12.444236,7.133475,13.774376,4.643536,0,16.646642,6.371443,17.262062,4.987384,15.202210,6.223448,78.099332,81.952030,42.385521,162.922848,0,0,0,0,0,0,0,0,0,0,0,0,0,0,0,0,0,0,1,0,0,0,0,0,0,0
0.183,3.27704,0.09809,-1.47842,0.00140,0.00094,0.00186,0.00053,0.00072,0.00102,0.00335,0.00617,14.455160,10.446980,13.302770,10.166777,13.959587,8.818718,12.458528,8.315416,13.015817,8.077977,13.634569,7.994085,17.076386,8.317549,12.450714,7.132311,13.769811,4.637887,0,16.631707,6.372889,17.264104,4.979724,15.200941,6.224371,78.411857,81.571849,43.063529,161.485714,0,0,0,0,0,0,0,0,0,0,0,0,0,0,0,0,0,0,1,0,0,0,0,0,0,0
0.184,3.27706,0.09816,-1.47858,0.00131,0.00091,0.00182,0.00054,0.00074,0.00083,0.00356,0.00558,14.455754,10.446936,13.301666,10.168346,13.952187,8.815358,12.451122,8.320601,13.000326,8.075962,13.616420,7.994194,17.081528,8.318294,12.457080,7.131618,13.761894,4.632199,0,16.616768,6.374659,17.264446,4.971153,15.199511,6.224930,78.712860,81.142098,43.707980,160.065830,0,0,0,0,0,0,0,0,0,0,0,0,0,0,0,0,0,0,1,0,0,0,0,0,0,0
0.185,3.27690,0.09789,-1.47957,0.00082,0.00087,0.00180,0.00054,0.00069,0.00084,0.00358,0.00589,14.457071,10.446453,13.301488,10.169146,13.944684,8.811592,12.438724,8.334305,12.982870,8.076226,13.601397,7.994905,17.086010,8.318379,12.460136,7.131938,13.748597,4.628235,0,16.603692,6.376285,17.265684,4.964906,15.199163,6.223048,78.997176,80.671121,44.281030,158.719802,0,0,0,0,0,0,0,0,0,0,0,0,0,0,0,0,0,0,1,0,0,0,0,0,0,0
0.186,3.27674,0.09809,-1.47766,0.00073,0.00084,0.00178,0.00052,0.00071,0.00093,0.00368,0.00556,14.459152,10.445516,13.302410,10.169033,13.937177,8.807466,12.420830,8.357547,12.963546,8.079121,13.590139,7.996341,17.089783,8.317887,12.458788,7.133248,13.729603,4.626944,0,16.593311,6.377515,17.269464,4.962719,15.200223,6.218310,79.264597,80.185365,44.768757,157.491247,0,0,0,0,0,0,0,0,0,0,0,0,0,0,0,0,0,0,1,0,0,0,0,0,0,0
0.187,3.27698,0.09843,-1.47980,0.00074,0.00085,0.00177,0.00052,0.00068,0.00099,0.00404,0.00576,14.461631,10.444362,13.303931,10.168335,13.929842,8.803160,12.400589,8.385566,12.944068,8.083304,13.581384,7.997991,17.092886,8.317242,12.454920,7.134717,13.707012,4.628121,0,16.584985,6.378403,17.276092,4.964212,15.201722,6.212666,79.521925,79.736857,45.191054,156.405421,0,0,0,0,0,0,0,0,0,0,0,0,0,0,0,0,0,0,1,0,0,0,0,0,0,0
0.188,3.27764,0.09817,-1.48132,0.00072,0.00083,0.00174,0.00054,0.00072,0.00106,0.00436,0.00556,14.464108,10.443249,13.305499,10.167418,13.922857,8.798866,12.381424,8.413162,12.926271,8.087305,13.573728,7.999296,17.095363,8.316892,12.450641,7.135456,13.683109,4.631476,0,16.577966,6.379027,17.285771,4.968841,15.202595,6.208240,79.776491,79.379557,45.570371,155.486192,0,0,0,0,0,0,0,0,0,0,0,0,0,0,0,0,0,0,1,0,0,0,0,0,0,0
0.189,3.27820,0.09783,-1.47537,0.00083,0.00076,0.00128,0.00053,0.00074,0.00111,0.00476,0.00519,14.466191,10.442432,13.306568,10.166642,13.916398,8.794775,12.366713,8.435193,12.911961,8.089670,13.565777,7.999700,17.097284,8.317280,12.448030,7.134589,13.660158,4.636714,0,16.571509,6.379468,17.298689,4.976057,15.201794,6.207124,80.035496,79.166536,45.928978,154.756678,0,0,0,0,0,0,0,0,0,0,0,0,0,0,0,0,0,0,1,0,0,0,0,0,0,0
0.190,3.27834,0.09817,-1.48026,0.00097,0.00072,0.00069,0.00052,0.00075,0.00112,0.00508,0.00534,14.467722,10.441968,13.306996,10.166154,13.910454,8.790953,12.357603,8.449182,12.901482,8.089780,13.556687,7.998861,17.099712,8.318634,12.447842,7.131983,13.639517,4.643330,0,16.565131,6.379858,17.314265,4.984934,15.199084,6.209877,80.299900,79.108552,46.280567,154.204554,0,0,0,0,0,0,0,0,0,0,0,0,0,0,0,0,0,0,1,0,0,0,0,0,0,0
0.191,3.27805,0.09838,-1.47942,0.00140,0.00074,0.00060,0.00051,0.00072,0.00113,0.00656,0.00611,14.468877,10.441640,13.307207,10.165801,13.904748,8.787289,12.352090,8.456424,12.893122,8.088191,13.546387,7.996736,17.105123,8.320874,12.448956,7.128550,13.621258,4.650526,0,16.558716,6.380405,17.330832,4.994008,15.195384,6.214889,80.561846,79.156562,46.626713,153.767398,0,0,0,0,0,0,0,0,0,0,0,0,0,0,0,0,0,0,1,0,0,0,0,0,0,0
0.192,3.27758,0.09803,-1.48087,0.00154,0.00076,0.00061,0.00050,0.00070,0.00110,0.00680,0.00692,14.469859,10.441208,13.307667,10.165410,13.898984,8.783662,12.347928,8.458499,12.885010,8.085550,13.534866,7.993306,17.116099,8.323897,12.450111,7.125280,13.605359,4.657479,0,16.552175,6.381323,17.346641,5.001779,15.191697,6.220385,80.812810,79.256994,46.968069,153.378995,0,0,0,0,0,0,0,0,0,0,0,0,0,0,0,0,0,0,1,0,0,0,0,0,0,0
0.193,3.27746,0.09787,-1.48018,0.00171,0.00075,0.00090,0.00047,0.00070,0.00110,0.00703,0.00661,14.470867,10.440437,13.308832,10.164806,13.892872,8.779952,12.342899,8.456987,12.875297,8.082503,13.522118,7.988561,17.135152,8.327596,12.450061,7.123155,13.591788,4.663372,0,16.545418,6.382823,17.359960,5.006773,15.189016,6.224604,81.044496,79.356802,47.305318,152.973647,0,0,0,0,0,0,0,0,0,0,0,0,0,0,0,0,0,0,1,0,0,0,0,0,0,0
0.194,3.27768,0.09817,-1.48003,0.00177,0.00077,0.00167,0.00047,0.00072,0.00106,0.00780,0.00613,14.471983,10.439226,13.310718,10.163930,13.886375,8.776130,12.335982,8.453437,12.863108,8.079632,13.508370,7.983012,17.161374,8.331716,12.448416,7.122620,13.580163,4.667591,0,16.538157,6.384952,17.369895,5.008806,15.187775,6.226499,81.259417,79.427639,47.640407,152.510112,0,0,0,0,0,0,0,0,0,0,0,0,0,0,0,0,0,0,1,0,0,0,0,0,0,0
0.195,3.27736,0.09820,-1.47850,0.00183,0.00077,0.00178,0.00048,0.00077,0.00100,0.00745,0.00581,14.473119,10.437668,13.312717,10.162881,13.879817,8.772299,12.327846,8.449362,12.848940,8.077435,13.494185,7.977903,17.189035,8.335790,12.445991,7.123365,13.569603,4.669808,0,16.529834,6.387529,17.376732,5.009522,15.187614,6.226027,81.475372,79.476074,47.977071,151.981713,0,0,0,0,0,0,0,0,0,0,0,0,0,0,0,0,0,0,1,0,0,0,0,0,0,0
0.196,3.27645,0.09804,-1.48041,0.00179,0.00068,0.00176,0.00049,0.00076,0.00084,0.00736,0.00642,14.474176,10.435868,13.314174,10.161772,13.873552,8.768568,12.319292,8.446270,12.833399,8.076401,13.480148,7.974536,17.212035,8.339332,12.443693,7.125022,13.559193,4.669719,0,16.519869,6.390355,17.380847,5.010704,15.188115,6.223221,81.711314,79.511320,48.319180,151.384389,0,0,0,0,0,0,0,0,0,0,0,0,0,0,0,0,0,0,1,0,0,0,0,0,0,0
0.197,3.27604,0.09779,-1.47881,0.00179,0.00067,0.00178,0.00050,0.00080,0.00087,0.00703,0.00634,14.475057,10.433935,13.314445,10.160714,13.867925,8.765048,12.311109,8.445649,12.817090,8.077006,13.466836,7.974184,17.224398,8.341863,12.442415,7.127223,13.548026,4.667032,0,16.507699,6.393233,17.382625,5.014098,15.188865,6.218128,81.985986,79.542362,48.670419,150.714447,0,0,0,0,0,0,0,0,0,0,0,0,0,0,0,0,0,0,1,0,0,0,0,0,0,0
0.198,3.27645,0.09798,-1.47964,0.00184,0.00069,0.00180,0.00049,0.00077,0.00093,0.00668,0.00671,14.475765,10.432048,13.313552,10.159764,13.862991,8.761687,12.303726,8.448026,12.800758,8.079005,13.454433,7.976861,17.225888,8.343002,12.442451,7.129476,13.535792,4.662106,0,16.493493,6.396121,17.382895,5.019844,15.189659,6.211358,82.308324,79.567583,49.025724,149.985591,0,0,0,0,0,0,0,0,0,0,0,0,0,0,0,0,0,0,1,0,0,0,0,0,0,0
0.199,3.27666,0.09825,-1.47888,0.00169,0.00068,0.00182,0.00049,0.00073,0.00097,0.00603,0.00657,14.476447,10.430491,13.312453,10.158911,13.858391,8.758214,12.297058,8.452568,12.785341,8.081137,13.442561,7.980805,17.224380,8.342514,12.443244,7.131123,13.523023,4.656217,0,16.478464,6.399187,17.383110,5.025806,15.190593,6.204322,82.673391,79.570372,49.367668,149.236122,0,0,0,0,0,0,0,0,0,0,0,0,0,0,0,0,0,0,1,0,0,0,0,0,0,0
0.200,3.27643,0.09808,-1.47980,0.00160,0.00068,0.00185,0.00047,0.00074,0.00099,0.00580,0.00690,14.477258,10.429555,13.312175,10.158135,13.853737,8.754337,12.290980,8.458339,12.771792,8.082064,13.430802,7.984118,17.228364,8.340177,12.444175,7.131491,13.510313,4.650711,0,16.463899,6.402619,17.384771,5.029674,15.191784,6.198488,83.075200,79.532987,49.677884,148.506198,0,0,0,0,0,0,0,0,0,0,0,0,0,0,0,0,0,0,1,0,0,0,0,0,0,0
0.201,3.27677,0.09780,-1.47690,0.00127,0.00065,0.00184,0.00047,0.00077,0.00097,0.00470,0.00755,14.478350,10.429523,13.313731,10.157414,13.848644,8.749775,12.285363,8.464420,12.761043,8.080477,13.418743,7.984930,17.246181,8.335772,12.444628,7.129925,13.498249,4.646915,0,16.451066,6.406596,17.389349,5.029181,15.193349,6.195305,83.507627,79.437908,49.938318,147.835420,0,0,0,0,0,0,0,0,0,0,0,0,0,0,0,0,0,0,1,0,0,0,0,0,0,0
0.202,3.27784,0.09809,-1.47804,0.00133,0.00065,0.00246,0.00048,0.00077,0.00097,0.00429,0.00746,14.479720,10.430349,13.317299,10.156620,13.842915,8.744523,12.279856,8.470623,12.753084,8.076372,13.406332,7.982702,17.279034,8.329424,12.444180,7.126616,13.487161,4.645294,0,16.440213,6.410908,17.396937,5.023950,15.195302,6.195090,83.958020,79.278194,50.145546,147.236975,0,0,0,0,0,0,0,0,0,0,0,0,0,0,0,0,0,0,1,0,0,0,0,0,0,0
0.203,3.27844,0.09836,-1.47835,0.00131,0.00064,0.00269,0.00050,0.00072,0.00098,0.00421,0.00723,14.481138,10.431523,13.321886,10.155473,13.836617,8.738980,12.273787,8.477798,12.746572,8.071595,13.394026,7.978776,17.318045,8.321737,12.442684,7.122946,13.477005,4.645091,0,16.430141,6.414795,17.405672,5.016282,15.197523,6.196571,84.404500,79.061857,50.316832,146.686705,0,0,0,0,0,0,0,0,0,0,0,0,0,0,0,0,0,0,1,0,0,0,0,0,0,0
0.204,3.27805,0.09813,-1.47850,0.00130,0.00062,0.00190,0.00050,0.00072,0.00101,0.00349,0.00806,14.482359,10.432497,13.326410,10.153682,13.829840,8.733571,12.266465,8.486872,12.740061,8.068130,13.382317,7.974638,17.353570,8.313354,12.440011,7.120390,13.467713,4.645459,0,16.419546,6.417456,17.413547,5.008678,15.199876,6.198353,84.824486,78.798041,50.471004,146.157629,0,0,0,0,0,0,0,0,0,0,0,0,0,0,0,0,0,0,1,0,0,0,0,0,0,0
0.205,3.27733,0.09800,-1.47896,0.00126,0.00062,0.00178,0.00051,0.00067,0.00099,0.00351,0.00800,14.483147,10.432733,13.329804,10.150966,13.822670,8.728718,12.257212,8.498757,12.732121,8.067938,13.371688,7.971758,17.376103,8.304917,12.436043,7.120390,13.459208,4.645556,0,16.407144,6.418108,17.418586,5.003609,15.202230,6.199053,85.195777,78.495954,50.626510,145.623233,0,0,0,0,0,0,0,0,0,0,0,0,0,0,0,0,0,0,1,0,0,0,0,0,0,0
0.206,3.27681,0.09853,-1.47903,0.00125,0.00060,0.00177,0.00051,0.00067,0.00095,0.00368,0.00743,14.483635,10.432023,13.331682,10.147513,13.815162,8.724637,12.246070,8.513611,12.721959,8.071724,13.362108,7.970928,17.382576,8.297184,12.431074,7.122950,13.451148,4.644895,0,16.392734,6.416762,17.420388,5.002122,15.204518,6.197802,85.513924,78.167750,50.783728,145.079089,0,0,0,0,0,0,0,0,0,0,0,0,0,0,0,0,0,0,1,0,0,0,0,0,0,0
0.207,3.27669,0.09859,-1.48056,0.00128,0.00064,0.00175,0.00054,0.00065,0.00084,0.00361,0.00907,14.484486,10.430634,13.332625,10.144181,13.807322,8.721247,12.234106,8.530529,12.709691,8.078425,13.352816,7.971980,17.379023,8.291068,12.425979,7.126032,13.442813,4.643487,0,16.377644,6.414552,17.420778,5.003249,15.206768,6.194460,85.799576,77.829756,50.917504,144.551993,0,0,0,0,0,0,0,0,0,0,0,0,0,0,0,0,0,0,1,0,0,0,0,0,0,0
0.208,3.27694,0.09835,-1.47850,0.00126,0.00062,0.00174,0.00055,0.00064,0.00076,0.00461,0.00925,14.486400,10.428865,13.333287,10.141873,13.799155,8.718448,12.222462,8.548524,12.695499,8.086845,13.342995,7.974672,17.372168,8.287497,12.421678,7.127447,13.433451,4.641381,0,16.363316,6.412700,17.421748,5.005866,15.209012,6.188941,86.075282,77.498613,51.000749,144.071102,0,0,0,0,0,0,0,0,0,0,0,0,0,0,0,0,0,0,1,0,0,0,0,0,0,0
0.209,3.27720,0.09853,-1.48193,0.00128,0.00063,0.00180,0.00053,0.00063,0.00065,0.00491,0.00922,14.490060,10.427018,13.334314,10.141480,13.790666,8.716137,12.212261,8.566616,12.679576,8.095796,13.331845,7.978762,17.368664,8.287371,12.419068,7.125059,13.422326,4.638632,0,16.351173,6.412404,17.425257,5.008859,15.211280,6.181177,86.363321,77.190501,51.006962,143.664863,0,0,0,0,0,0,0,0,0,0,0,0,0,0,0,0,0,0,1,0,0,0,0,0,0,0
0.210,3.27728,0.09893,-1.47911,0.00128,0.00063,0.00261,0.00054,0.00062,0.00062,0.00486,0.00876,14.495326,10.425331,13.335959,10.143138,13.781897,8.714161,12.203736,8.584126,12.662678,8.104509,13.319228,7.983889,17.371955,8.290392,12.417877,7.119365,13.409226,4.635471,0,16.341652,6.413832,17.431580,5.011360,15.213405,6.171918,86.673250,76.899831,50.937379,143.328104,0,0,0,0,0,0,0,0,0,0,0,0,0,0,0,0,0,0,1,0,0,0,0,0,0,0
0.211,3.27727,0.09876,-1.47636,0.00119,0.00065,0.00280,0.00054,0.00059,0.00060,0.00423,0.00727,14.500888,10.423962,13.337920,10.145921,13.772948,8.712293,12.195865,8.600801,12.646350,8.112810,13.305951,7.989531,17.380947,8.294560,12.416190,7.114578,13.394686,4.632383,0,16.333798,6.415701,17.438612,5.012853,15.214944,6.163071,86.996644,76.590242,50.832445,143.008128,0,0,0,0,0,0,0,0,0,0,0,0,0,0,0,0,0,0,1,0,0,0,0,0,0,0
0.212,3.27717,0.09867,-1.48140,0.00096,0.00063,0.00239,0.00058,0.00061,0.00063,0.00426,0.00678,14.505352,10.423059,13.339854,10.148819,13.763920,8.710302,12.187528,8.616418,12.632198,8.120569,13.292887,7.995148,17.394201,8.297750,12.411962,7.115196,13.379296,4.629872,0,16.326552,6.416613,17.444073,5.012849,15.215432,6.156628,87.323715,76.223042,50.735572,142.648646,0,0,0,0,0,0,0,0,0,0,0,0,0,0,0,0,0,0,1,0,0,0,0,0,0,0
0.213,3.27681,0.09913,-1.48033,0.00079,0.00063,0.00179,0.00056,0.00065,0.00064,0.00412,0.00683,14.507343,10.422769,13.341420,10.150837,13.754916,8.707961,12.177625,8.630778,12.621795,8.127660,13.280902,8.000211,17.410280,8.297862,12.403200,7.125612,13.363644,4.628433,0,16.318864,6.415200,17.445724,5.010872,15.214414,6.154546,87.644731,75.760310,50.689964,142.193771,0,0,0,0,0,0,0,0,0,0,0,0,0,0,0,0,0,0,1,0,0,0,0,0,0,0
0.214,3.27638,0.09919,-1.47888,0.00083,0.00062,0.00177,0.00057,0.00060,0.00062,0.00366,0.00613,14.506565,10.423034,13.342477,10.151539,13.746059,8.705218,12.166013,8.644597,12.615041,8.134139,13.270304,8.004395,17.427941,8.294110,12.390123,7.145410,13.348178,4.628139,0,16.310210,6.411281,17.443450,5.007140,15.211830,6.156992,87.952487,75.200491,50.729021,141.606803,0,0,0,0,0,0,0,0,0,0,0,0,0,0,0,0,0,0,1,0,0,0,0,0,0,0
0.215,3.27653,0.09901,-1.47766,0.00106,0.00063,0.00178,0.00056,0.00066,0.00065,0.00341,0.00650,14.504242,10.423509,13.343155,10.151285,13.737501,8.702273,12.153897,8.659895,12.609481,8.140318,13.260613,8.007676,17.446201,8.287563,12.376081,7.167371,13.333151,4.628467,0,16.300812,6.406365,17.440139,5.002845,15.208187,6.161600,88.243348,74.593439,50.872279,140.878158,0,0,0,0,0,0,0,0,0,0,0,0,0,0,0,0,0,0,1,0,0,0,0,0,0,0
0.216,3.27722,0.09894,-1.47804,0.00111,0.00062,0.00180,0.00055,0.00070,0.00068,0.00342,0.00658,14.501714,10.423826,13.343608,10.150496,13.729392,8.699343,12.142587,8.678792,12.602479,8.146529,13.251291,8.010051,17.464103,8.279428,12.364663,7.183766,13.318797,4.628846,0,16.290943,6.402085,17.438906,4.999254,15.204031,6.165817,88.513951,73.992894,51.138229,140.000304,0,0,0,0,0,0,0,0,0,0,0,0,0,0,0,0,0,0,1,0,0,0,0,0,0,0
0.217,3.27736,0.09910,-1.47591,0.00105,0.00063,0.00183,0.00054,0.00069,0.00072,0.00369,0.00519,14.500302,10.423627,13.343988,10.149586,13.721884,8.696644,12.133370,8.703345,12.591441,8.153095,13.241804,8.011521,17.480686,8.270909,12.359397,7.186992,13.305352,4.628715,0,16.280878,6.400052,17.442822,4.997614,15.199906,6.167123,88.761155,73.452090,51.544637,138.966422,0,0,0,0,0,0,0,0,0,0,0,0,0,0,0,0,0,0,1,0,0,0,0,0,0,0
0.218,3.27670,0.09927,-1.47881,0.00103,0.00070,0.00180,0.00052,0.00070,0.00072,0.00358,0.00457,14.500504,10.422843,13.344342,10.148796,13.715031,8.694286,12.126642,8.732826,12.575645,8.159895,13.231821,8.012317,17.495054,8.262897,12.361014,7.175603,13.292941,4.627816,0,16.270703,6.400828,17.452927,4.998184,15.196207,6.164650,88.992291,73.000109,52.075034,137.803509,0,0,0,0,0,0,0,0,0,0,0,0,0,0,0,0,0,0,1,0,0,0,0,0,0,0
0.219,3.27634,0.09901,-1.48041,0.00103,0.00071,0.00180,0.00054,0.00075,0.00072,0.00352,0.00480,14.501649,10.421823,13.344571,10.148119,13.708752,8.692233,12.121533,8.762564,12.557018,8.166183,13.221299,8.012998,17.506398,8.255849,12.366291,7.156853,13.281537,4.626321,0,16.260244,6.403489,17.467386,4.999825,15.193114,6.159867,89.229491,72.631906,52.664555,136.586361,0,0,0,0,0,0,0,0,0,0,0,0,0,0,0,0,0,0,1,0,0,0,0,0,0,0
0.220,3.27680,0.09895,-1.47911,0.00115,0.00072,0.00128,0.00055,0.00079,0.00091,0.00404,0.00600,14.502978,10.420948,13.344565,10.147528,13.702955,8.690439,12.117080,8.787589,12.537689,8.171167,13.210214,8.014145,17.513915,8.250187,12.371707,7.138654,13.271098,4.624435,0,16.249306,6.406998,17.484148,5.001294,15.190790,6.154422,89.496011,72.339849,53.244676,135.393390,0,0,0,0,0,0,0,0,0,0,0,0,0,0,0,0,0,0,1,0,0,0,0,0,0,0
0.221,3.27755,0.09926,-1.47972,0.00128,0.00068,0.00193,0.00056,0.00079,0.00098,0.00448,0.00645,14.503743,10.420592,13.344216,10.146998,13.697545,8.688854,12.112329,8.803022,12.519766,8.174070,13.198549,8.016329,17.516834,8.246330,12.373786,7.128809,13.261584,4.622367,0,16.237694,6.410328,17.501174,5.001367,15.189404,6.149940,89.814856,72.115836,53.747456,134.302020,0,0,0,0,0,0,0,0,0,0,0,0,0,0,0,0,0,0,1,0,0,0,0,0,0,0
0.222,3.27797,0.09922,-1.48003,0.00147,0.00070,0.00196,0.00053,0.00078,0.00097,0.00485,0.00660,14.503690,10.420968,13.343585,10.146532,13.692211,8.687435,12.106931,8.808291,12.504421,8.174877,13.186473,8.019641,17.515890,8.244593,12.371336,7.130019,13.252775,4.620437,0,16.225216,6.412946,17.517050,4.999646,15.189333,6.147120,90.197206,71.929428,54.132455,133.342929,0,0,0,0,0,0,0,0,0,0,0,0,0,0,0,0,0,0,1,0,0,0,0,0,0,0
0.223,3.27738,0.09893,-1.48064,0.00172,0.00072,0.00193,0.00054,0.00080,0.00098,0.00574,0.00617,14.503266,10.422053,13.342972,10.146180,13.686345,8.686141,12.101388,8.808911,12.491506,8.174654,13.174418,8.023488,17.513946,8.245140,12.366388,7.137769,13.244206,4.619130,0,16.211680,6.415015,17.531240,4.996911,15.191247,6.145346,90.637531,71.718611,54.398117,132.480713,0,0,0,0,0,0,0,0,0,0,0,0,0,0,0,0,0,0,1,0,0,0,0,0,0,0
0.224,3.27607,0.09922,-1.47903,0.00186,0.00075,0.00197,0.00055,0.00081,0.00100,0.00593,0.00602,14.502969,10.423809,13.342693,10.145993,13.679314,8.684929,12.096265,8.810857,12.480772,8.174548,13.162839,8.027229,17.514025,8.248121,12.361217,7.146997,13.235393,4.618943,0,16.196893,6.416748,17.543276,4.994030,15.195837,6.143907,91.129037,71.418979,54.545826,131.674973,0,0,0,0,0,0,0,0,0,0,0,0,0,0,0,0,0,0,1,0,0,0,0,0,0,0
0.225,3.27565,0.09951,-1.47835,0.00162,0.00074,0.00198,0.00055,0.00077,0.00099,0.00622,0.00614,14.503289,10.426194,13.343057,10.146022,13.670496,8.683759,12.092114,8.820035,12.471963,8.175691,13.152167,8.030232,17.519102,8.253677,12.358063,7.152705,13.225867,4.620358,0,16.180678,6.418357,17.552707,4.991864,15.203766,6.142097,91.664776,70.967223,54.577157,130.885736,0,0,0,0,0,0,0,0,0,0,0,0,0,0,0,0,0,0,1,0,0,0,0,0,0,0
0.226,3.27659,0.09928,-1.47919,0.00154,0.00077,0.00196,0.00055,0.00075,0.00104,0.00632,0.00628,14.504301,10.429090,13.344013,10.146324,13.659758,8.682595,12.088797,8.839063,12.464479,8.178511,13.141846,8.032337,17.529758,8.261394,12.357608,7.152922,13.215815,4.623210,0,16.163448,6.419875,17.559858,4.990988,15.214271,6.139602,92.230500,70.351765,54.502619,130.093387,0,0,0,0,0,0,0,0,0,0,0,0,0,0,0,0,0,0,1,0,0,0,0,0,0,0
0.227,3.27754,0.09898,-1.47911,0.00160,0.00072,0.00193,0.00057,0.00079,0.00105,0.00621,0.00657,14.505489,10.432268,13.344999,10.146961,13.647658,8.681410,12.085199,8.865918,12.457235,8.182442,13.129919,8.034060,17.543199,8.270072,12.358324,7.149953,13.206358,4.626422,0,16.146459,6.421083,17.566149,4.991573,15.224573,6.136657,92.801643,69.634157,54.345362,129.307082,0,0,0,0,0,0,0,0,0,0,0,0,0,0,0,0,0,0,1,0,0,0,0,0,0,0
0.228,3.27773,0.09945,-1.47919,0.00164,0.00066,0.00198,0.00058,0.00082,0.00108,0.00565,0.00661,14.506293,10.435492,13.345417,10.147996,13.634806,8.680174,12.080132,8.898222,12.449109,8.186841,13.114327,8.035966,17.556374,8.278453,12.358519,7.146426,13.198687,4.628847,0,16.131029,6.421744,17.573085,4.993760,15.231742,6.133541,93.352862,68.881483,54.129488,128.538156,0,0,0,0,0,0,0,0,0,0,0,0,0,0,0,0,0,0,1,0,0,0,0,0,0,0
0.229,3.27746,0.09939,-1.47835,0.00162,0.00066,0.00193,0.00059,0.00082,0.00111,0.00556,0.00628,14.506163,10.438527,13.344676,10.149489,13.621813,8.678862,12.072435,8.933601,12.439007,8.191066,13.093054,8.038608,17.566281,8.285295,12.356523,7.144935,13.193958,4.629350,0,16.118451,6.421624,17.582149,4.997681,15.232891,6.130535,93.859111,68.160378,53.879331,127.798062,0,0,0,0,0,0,0,0,0,0,0,0,0,0,0,0,0,0,1,0,0,0,0,0,0,0
0.230,3.27708,0.09908,-1.47888,0.00150,0.00066,0.00191,0.00057,0.00078,0.00092,0.00512,0.00525,14.504902,10.441239,13.342696,10.151317,13.609260,8.677507,12.062181,8.969709,12.427051,8.194499,13.066388,8.042058,17.572245,8.290149,12.351918,7.146467,13.191649,4.627470,0,16.108902,6.420735,17.593813,5.003029,15.227245,6.128023,94.309601,67.516289,53.630140,127.103978,0,0,0,0,0,0,0,0,0,0,0,0,0,0,0,0,0,0,1,0,0,0,0,0,0,0
0.231,3.27701,0.09910,-1.47903,0.00137,0.00066,0.00192,0.00057,0.00083,0.00086,0.00563,0.00605,14.502815,10.443636,13.340114,10.153097,13.597694,8.676229,12.051193,9.004250,12.415086,8.196558,13.037862,8.045702,17.576881,8.293686,12.346043,7.149733,13.188873,4.623689,0,16.100975,6.419429,17.607119,5.008882,15.217011,6.126534,94.713691,66.964711,53.432594,126.481173,0,0,0,0,0,0,0,0,0,0,0,0,0,0,0,0,0,0,1,0,0,0,0,0,0,0
0.232,3.27723,0.09941,-1.48102,0.00126,0.00066,0.00192,0.00054,0.00080,0.00085,0.00550,0.00677,14.500247,10.445738,13.337618,10.154431,13.587657,8.675153,12.041424,9.034927,12.405088,8.196662,13.011258,8.048873,17.583053,8.296660,12.340375,7.153273,13.182559,4.618561,0,16.093142,6.418084,17.621002,5.014273,15.204623,6.126606,95.082265,66.518874,53.338538,125.955528,0,0,0,0,0,0,0,0,0,0,0,0,0,0,0,0,0,0,1,0,0,0,0,0,0,0
0.233,3.27721,0.09921,-1.48026,0.00103,0.00065,0.00193,0.00053,0.00080,0.00086,0.00464,0.00697,14.497539,10.447563,13.335892,10.154924,13.579677,8.674404,12.034799,9.059479,12.398987,8.194256,12.990305,8.050915,17.593578,8.299820,12.336369,7.155643,13.169689,4.612644,0,16.083900,6.417076,17.634405,5.018242,15.192491,6.128766,95.426191,66.191496,53.398956,125.552190,0,0,0,0,0,0,0,0,0,0,1,0,0,0,0,0,0,0,1,0,0,0,0,0,0,0
0.234,3.27683,0.09891,-1.48170,0.00102,0.00069,0.00189,0.00053,0.00079,0.00083,0.00454,0.00690,14.494929,10.449193,13.335150,10.154564,13.573647,8.674026,12.031846,9.077174,12.396473,8.190038,12.976332,8.051529,17.608963,8.303573,12.334604,7.156224,13.149534,4.606503,0,16.072855,6.416532,17.646730,5.020375,15.181963,6.132814,95.755688,65.971059,53.624074,125.261697,0,0,0,0,0,0,0,0,0,0,0,0,0,0,0,0,0,0,0,0,0,0,0,0,0,0
0.235,3.27668,0.09906,-1.48140,0.00123,0.00070,0.00189,0.00053,0.00082,0.00083,0.00442,0.00636,14.492507,10.450795,13.334956,10.153873,13.568561,8.673949,12.031122,9.089447,12.394074,8.186475,12.967274,8.050933,17.626456,8.307841,12.334414,7.155557,13.124604,4.600725,0,16.061178,6.416231,17.658025,5.021020,15.172888,6.137529,96.080050,65.811792,53.966500,125.025660,0,0,0,0,0,0,0,0,0,0,0,0,0,0,0,0,0,0,0,0,0,0,0,0,0,0
0.236,3.27694,0.09919,-1.47751,0.00128,0.00074,0.00191,0.00051,0.00080,0.00087,0.00411,0.00633,14.490351,10.452545,13.334821,10.153414,13.563343,8.674094,12.031031,9.097898,12.388079,8.186167,12.960807,8.049379,17.643060,8.312511,12.335040,7.154274,13.097657,4.595895,0,16.050160,6.415926,17.668387,5.020584,15.164997,6.141614,96.408503,65.665334,54.374483,124.781987,0,0,0,0,0,0,0,0,0,0,0,0,0,0,0,0,0,0,0,0,0,0,0,0,0,0
0.237,3.27719,0.09902,-1.47964,0.00123,0.00071,0.00192,0.00050,0.00074,0.00094,0.00417,0.00574,14.488537,10.454613,13.334263,10.153741,13.556931,8.674382,12.029999,9.104128,12.374842,8.191663,12.954630,8.047123,17.655814,8.317469,12.335736,7.152997,13.071430,4.592593,0,16.041069,6.415374,17.677914,5.019476,15.158028,6.143793,96.750086,65.483919,54.796280,124.469539,0,0,0,0,0,0,0,0,0,0,0,0,0,0,0,0,0,0,0,0,0,0,0,0,0,0
0.238,3.27718,0.09879,-1.47758,0.00120,0.00070,0.00192,0.00052,0.00073,0.00095,0.00487,0.00564,14.486974,10.457017,13.333028,10.155020,13.548885,8.674700,12.027263,9.109907,12.353802,8.203066,12.947366,8.044507,17.663661,8.322492,12.336285,7.152025,13.047830,4.591016,0,16.034092,6.414579,17.686796,5.018211,15.151867,6.143842,97.105087,65.248147,55.180436,124.072265,0,0,0,0,0,0,0,0,0,0,0,0,0,0,0,0,0,0,0,0,0,0,0,0,0,0
0.239,3.27711,0.09893,-1.47690,0.00138,0.00067,0.00197,0.00051,0.00069,0.00096,0.00549,0.00601,14.485336,10.459560,13.331187,10.156864,13.539647,8.674882,12.023213,9.117238,12.328763,8.217021,12.938951,8.041995,17.668226,8.327210,12.337226,7.151194,13.027586,4.590827,0,16.027888,6.413886,17.695352,5.017453,15.146616,6.143021,97.461422,64.978708,55.475908,123.637842,0,0,0,0,0,0,0,0,0,0,0,0,0,0,0,0,0,0,0,0,0,0,0,0,0,0
0.240,3.27709,0.09912,-1.47514,0.00151,0.00068,0.00184,0.00050,0.00067,0.00095,0.00526,0.00604,14.483280,10.462025,13.328837,10.158844,13.529722,8.674759,12.018325,9.128144,12.303857,8.229912,12.929418,8.040063,17.671336,8.331241,12.339154,7.150307,13.011341,4.591648,0,16.020999,6.413667,17.703909,5.017877,15.142390,6.142704,97.806071,64.699328,55.631682,123.218771,0,0,0,0,0,0,0,0,0,0,0,0,0,0,0,0,0,0,0,0,0,0,0,0,0,0
0.241,3.27717,0.09892,-1.47324,0.00173,0.00067,0.00125,0.00048,0.00064,0.00093,0.00440,0.00501,14.480468,10.464202,13.326075,10.160537,13.519616,8.674166,12.013072,9.144595,12.283174,8.238169,12.918807,8.039175,17.674797,8.334211,12.342656,7.149175,12.999713,4.593098,0,16.011991,6.414286,17.712792,5.020144,15.139298,6.144243,98.126040,64.433609,55.598688,122.866587,0,0,0,0,0,0,0,0,0,0,0,0,0,0,0,0,0,0,0,0,0,0,0,0,0,0
0.242,3.27734,0.09858,-1.47415,0.00184,0.00069,0.00193,0.00052,0.00069,0.00093,0.00465,0.00388,14.476846,10.466027,13.323094,10.161676,13.509825,8.673087,12.007742,9.166065,12.268832,8.240355,12.907388,8.039412,17.679349,8.336153,12.348027,7.148013,12.992210,4.594702,0,16.000511,6.415692,17.722117,5.024232,15.137116,6.147911,98.409641,64.199471,55.419915,122.587181,0,0,0,0,0,0,0,0,0,0,0,0,0,0,0,0,0,0,0,0,0,0,0,0,0,0
0.243,3.27748,0.09890,-1.47141,0.00183,0.00067,0.00200,0.00056,0.00065,0.00089,0.00434,0.00351,14.472758,10.467641,13.320217,10.162216,13.500830,8.671714,12.002363,9.188504,12.260153,8.238050,12.895766,8.040312,17.684225,8.337671,12.355149,7.147606,12.986777,4.595846,0,15.987731,6.417244,17.731709,5.029152,15.135147,6.152454,98.647030,64.006794,55.268474,122.321924,0,0,0,0,0,0,0,0,0,0,0,0,0,0,0,0,0,0,0,0,0,0,0,0,0,0
0.244,3.27751,0.09917,-1.46721,0.00171,0.00061,0.00200,0.00056,0.00066,0.00091,0.00404,0.00391,14.468578,10.469204,13.317780,10.162132,13.493107,8.670256,11.996942,9.207591,12.256249,8.233063,12.884566,8.041369,17.688545,8.339415,12.363870,7.148782,12.981238,4.595909,0,15.974940,6.418259,17.741368,5.033843,15.132659,6.156508,98.828499,63.864853,55.327322,122.007304,0,0,0,0,0,0,0,0,0,0,0,0,0,0,0,0,0,0,0,0,0,0,0,0,0,0
0.245,3.27736,0.09892,-1.46477,0.00144,0.00063,0.00198,0.00057,0.00066,0.00088,0.00378,0.00401,14.464676,10.470870,13.316110,10.161400,13.487128,8.668922,11.991488,9.219071,12.256192,8.227208,12.874403,8.042086,17.691439,8.342013,12.374042,7.152346,12.973457,4.594285,0,15.963399,6.418065,17.750894,5.037259,15.128934,6.158722,98.944588,63.782476,55.776770,121.580508,0,0,0,0,0,0,0,0,0,0,0,0,0,0,0,0,0,0,0,0,0,0,0,0,0,0
0.246,3.27709,0.09878,-1.46111,0.00135,0.00058,0.00197,0.00057,0.00066,0.00081,0.00376,0.00382,14.461103,10.472629,13.315106,10.160128,13.482925,8.667848,11.986088,9.221568,12.257154,8.222484,12.865310,8.042189,17.692582,8.345215,12.385648,7.157875,12.963138,4.591211,0,15.953126,6.416524,17.759994,5.039034,15.123853,6.158640,98.997420,63.747379,56.671919,121.011686,0,0,0,0,0,0,0,0,0,0,0,0,0,0,0,0,0,0,0,0,0,0,0,0,0,0
0.247,3.27697,0.09926,-1.45767,0.00137,0.00059,0.00196,0.00057,0.00076,0.00069,0.00414,0.00387,14.457464,10.474236,13.314073,10.158609,13.479910,8.667075,11.980936,9.217784,12.253619,8.221158,12.856496,8.041731,17.692415,8.347518,12.398853,7.163219,12.952582,4.588111,0,15.942376,6.414257,17.768238,5.039770,15.118152,6.157060,99.005491,63.717431,57.890875,120.317589,0,0,0,0,0,0,0,0,0,0,0,0,0,0,0,0,0,0,0,0,0,0,0,0,0,0
0.248,3.27707,0.09922,-1.45187,0.00137,0.00062,0.00194,0.00056,0.00080,0.00067,0.00380,0.00371,14.453331,10.475428,13.312266,10.157151,13.477451,8.666635,11.976236,9.210727,12.239869,8.225516,12.847108,8.040787,17.691437,8.347330,12.413839,7.166097,12.944291,4.586499,0,15.929275,6.411940,17.775187,5.040140,15.112630,6.154879,98.988537,63.648249,59.298359,119.518494,1,0,0,0,0,0,0,0,0,0,0,0,0,0,0,0,0,0,0,0,1,0,0,0,0,0
0.249,3.27714,0.09884,-1.44707,0.00121,0.00063,0.00195,0.00058,0.00082,0.00064,0.00284,0.00322,14.448282,10.475952,13.308957,10.156058,13.474924,8.666560,11.972189,9.203393,12.210320,8.237784,12.836305,8.039432,17.690152,8.343090,12.430827,7.164271,12.940713,4.587858,0,15.911984,6.410241,17.780412,5.040808,15.108074,6.152981,98.966099,63.496180,60.759382,118.635200,0,0,0,0,0,0,0,0,0,0,0,0,0,0,0,0,0,0,0,0,0,0,0,0,0,0
0.250,3.27711,0.09897,-1.44135,0.00107,0.00060,0.00194,0.00059,0.00084,0.00063,0.00282,0.00280,14.442243,10.475868,13.304058,10.155484,13.472089,8.666915,11.968960,9.198140,12.165763,8.257350,12.823834,8.037738,17.689153,8.334895,12.451957,7.157552,12.941870,4.592099,0,15.890513,6.409351,17.783855,5.042000,15.104606,6.151754,98.948461,63.252406,62.152771,117.713328,0,0,0,0,0,0,0,0,0,0,0,0,0,0,0,0,0,0,0,0,0,0,0,0,0,0
0.251,3.27717,0.09927,-1.43150,0.00083,0.00061,0.00166,0.00061,0.00085,0.00063,0.00269,0.00278,14.435633,10.475691,13.298389,10.155375,13.469256,8.667808,11.966655,9.196428,12.116002,8.279591,12.810272,8.035776,17.689167,8.325181,12.482081,7.148649,12.944356,4.596916,0,15.867478,6.408791,17.785992,5.043318,15.101409,6.150880,98.932825,62.957339,63.376880,116.833587,0,0,0,0,0,0,0,0,0,0,0,0,0,0,0,0,0,0,0,0,0,0,0,0,0,0
0.252,3.27726,0.09902,-1.42250,0.00064,0.00058,0.00081,0.00058,0.00084,0.00062,0.00237,0.00256,14.428909,10.475965,13.292840,10.155660,13.466774,8.669350,11.965375,9.199647,12.071522,8.299582,12.796260,8.033614,17.690934,8.316563,12.526255,7.140491,12.944505,4.599835,0,15.845693,6.408028,17.787337,5.044319,15.097598,6.149992,98.915403,62.655119,64.331542,116.079337,0,0,0,0,0,0,0,0,0,0,0,0,0,0,0,0,0,0,0,0,0,0,0,0,0,0
0.253,3.27694,0.09884,-1.41434,0.00061,0.00058,0.00069,0.00055,0.00083,0.00060,0.00233,0.00243,14.422520,10.477231,13.288288,10.156269,13.464986,8.671649,11.965218,9.209141,12.042662,8.312455,12.782429,8.031323,17.695181,8.311617,12.589417,7.135977,12.938715,4.598426,0,15.827933,6.406539,17.788409,5.044564,15.092304,6.148725,98.892400,62.389300,64.918484,115.532249,0,0,0,0,0,0,0,0,0,0,0,0,0,0,0,0,0,0,0,0,0,0,0,0,0,0
0.254,3.27633,0.09917,-1.40625,0.00061,0.00059,0.00144,0.00059,0.00084,0.00060,0.00241,0.00213,14.416670,10.479639,13.284975,10.157252,13.463916,8.674664,11.966057,9.224081,12.032801,8.316107,12.768974,8.029052,17.702293,8.311134,12.670805,7.136684,12.926508,4.592368,0,15.815064,6.404113,17.789929,5.043805,15.085463,6.146983,98.859741,62.175879,65.129180,115.193857,0,0,0,0,0,0,0,0,0,0,0,0,0,0,0,0,0,0,0,0,0,0,0,0,0,0
0.255,3.27635,0.09926,-1.39603,0.00074,0.00058,0.00203,0.00059,0.00082,0.00059,0.00261,0.00196,14.411215,10.482796,13.282252,10.158822,13.463140,8.678137,11.967443,9.240569,12.035482,8.312341,12.755472,8.027062,17.712160,8.313380,12.761606,7.142317,12.911809,4.584323,0,15.805263,6.400981,17.792910,5.042067,15.078152,6.145047,98.812956,61.991888,65.081963,114.952422,0,0,0,0,0,0,0,0,0,0,0,0,0,0,0,0,0,0,0,0,0,0,0,0,0,0
0.256,3.27721,0.09912,-1.39015,0.00075,0.00057,0.00207,0.00061,0.00080,0.00060,0.00269,0.00200,14.405985,10.486267,13.279403,10.161205,13.462197,8.681795,11.968905,9.254470,12.043502,8.303258,12.741455,8.025625,17.724638,8.316431,12.852394,7.152436,12.898880,4.577178,0,15.796499,6.397409,17.798382,5.039397,15.071535,6.143227,98.747542,61.811417,64.904764,114.687634,0,0,0,0,0,0,0,0,0,0,0,0,0,0,0,0,0,0,0,0,0,0,0,0,0,0
0.257,3.27791,0.09921,-1.38168,0.00078,0.00063,0.00209,0.00064,0.00075,0.00063,0.00250,0.00185,14.400811,10.489619,13.275720,10.164621,13.460636,8.685366,11.969975,9.261726,12.049741,8.290947,12.726470,8.025003,17.739577,8.318390,12.933879,7.166578,12.891904,4.573775,0,15.786770,6.393661,17.807363,5.035844,15.066764,6.141827,98.659098,61.608818,64.724125,114.280935,0,0,0,0,0,0,0,0,0,0,0,0,0,0,0,0,0,0,0,0,0,0,0,0,0,0
0.258,3.27794,0.09949,-1.36620,0.00078,0.00061,0.00210,0.00065,0.00069,0.00067,0.00214,0.00185,14.395644,10.492623,13.270926,10.168924,13.458284,8.688674,11.970340,9.261727,12.050825,8.277025,12.710887,8.025066,17.756611,8.318758,13.003070,7.182975,12.891268,4.574869,0,15.775291,6.389979,17.820120,5.031710,15.064471,6.140934,98.547960,61.371001,64.600897,113.696620,0,0,0,0,0,0,0,0,0,0,0,0,0,0,0,0,0,0,0,0,0,0,0,0,0,0
0.259,3.27760,0.09952,-1.35201,0.00079,0.00061,0.00208,0.00061,0.00071,0.00063,0.00201,0.00192,14.390606,10.495331,13.265353,10.173449,13.455368,8.691671,11.969906,9.258741,12.048685,8.262442,12.696232,8.025133,17.775072,8.319004,13.065878,7.198023,12.892002,4.578260,0,15.762999,6.386577,17.835863,5.027654,15.064552,6.140323,98.421158,61.102622,64.503072,113.016098,0,0,0,0,0,0,0,0,0,0,0,0,0,0,0,0,0,0,0,0,0,0,0,0,0,0
0.260,3.27719,0.09939,-1.34171,0.00083,0.00064,0.00209,0.00062,0.00072,0.00065,0.00215,0.00223,14.385829,10.497818,13.259381,10.177494,13.452147,8.694322,11.968596,9.257401,12.045652,8.248099,12.684121,8.024481,17.794267,8.320749,13.128892,7.207976,12.888730,4.581528,0,15.750966,6.383662,17.853719,5.024360,15.066847,6.139749,98.286232,60.809683,64.391616,112.329639,0,0,0,0,0,0,0,0,0,0,0,0,0,0,0,0,0,0,0,0,0,0,0,0,0,0
0.261,3.27690,0.09971,-1.32980,0.00085,0.00063,0.00209,0.00067,0.00073,0.00064,0.00326,0.00248,14.381443,10.500158,13.253386,10.180368,13.448877,8.696593,11.966341,9.262271,12.044030,8.234887,12.676136,8.022402,17.813505,8.325581,13.198604,7.209145,12.876173,4.582292,0,15.740249,6.381439,17.872820,5.022499,15.071186,6.138962,98.150701,60.498381,64.228153,111.726527,0,0,0,0,0,0,0,0,0,0,0,0,0,0,0,0,0,0,0,0,0,0,0,0,0,0
0.262,3.27680,0.10007,-1.31859,0.00085,0.00065,0.00235,0.00071,0.00081,0.00064,0.00337,0.00250,14.377458,10.502419,13.247685,10.181911,13.445890,8.698560,11.963394,9.274370,12.044862,8.223287,12.672357,8.018980,17.832053,8.333596,13.277073,7.200514,12.853754,4.580086,0,15.731439,6.379919,17.892439,5.022169,15.076914,6.137679,98.021152,60.184296,64.005383,111.249293,0,0,0,0,0,0,0,0,0,0,0,0,0,0,0,0,0,0,0,0,0,0,0,0,0,0
0.263,3.27686,0.09987,-1.30661,0.00085,0.00068,0.00312,0.00075,0.00084,0.00066,0.00369,0.00272,14.373712,10.504656,13.242506,10.182716,13.443618,8.700458,11.960467,9.289714,12.047412,8.213208,12.670735,8.015414,17.849119,8.342785,13.360093,7.184842,12.827543,4.577151,0,15.724458,6.378836,17.912045,5.022650,15.082690,6.135565,97.902860,59.896270,63.759933,110.874388,0,0,0,0,0,0,0,0,0,0,0,0,0,0,0,0,0,0,0,0,0,0,0,0,0,0
0.264,3.27705,0.09987,-1.28784,0.00083,0.00069,0.00259,0.00077,0.00089,0.00064,0.00382,0.00276,14.370030,10.506927,13.238072,10.183433,13.442501,8.702530,11.958309,9.303938,12.050806,8.204512,12.669061,8.012988,17.863910,8.350978,13.442983,7.165172,12.804108,4.575934,0,15.719183,6.377903,17.931125,5.023165,15.087122,6.132281,97.800999,59.664146,63.531753,110.573265,0,0,0,0,0,0,0,0,0,0,0,0,0,0,0,0,0,0,0,0,0,0,0,0,0,0
0.265,3.27746,0.10032,-1.26778,0.00069,0.00068,0.00184,0.00077,0.00087,0.00066,0.00368,0.00263,14.366238,10.509286,13.234600,10.184703,13.442971,8.705017,11.957656,9.312745,12.054181,8.197061,12.665154,8.012965,17.875651,8.356038,13.521121,7.144530,12.789917,4.578834,0,15.715472,6.376843,17.949163,5.022935,15.088846,6.127495,97.720720,59.517250,63.360453,110.317863,0,0,0,0,0,0,0,0,0,0,0,0,0,0,0,0,0,0,0,0,0,0,0,0,0,0
0.266,3.27784,0.10042,-1.25404,0.00069,0.00069,0.00180,0.00076,0.00095,0.00067,0.00380,0.00277,14.362196,10.511722,13.232105,10.186795,13.444991,8.707925,11.958783,9.314925,12.057113,8.190680,12.658110,8.015597,17.884498,8.357411,13.592771,7.124916,12.786580,4.586033,0,15.712529,6.375819,17.965676,5.021306,15.087916,6.121249,97.666125,59.460337,63.269592,110.103232,0,0,0,0,0,0,0,0,0,0,0,0,0,0,0,0,0,0,0,0,0,0,0,0,0,0
0.267,3.27749,0.10047,-1.24077,0.00066,0.00066,0.00179,0.00077,0.00107,0.00068,0.00380,0.00269,14.357817,10.514134,13.230311,10.189450,13.447868,8.710925,11.961307,9.313632,12.059801,8.185144,12.648834,8.019707,17.891927,8.356779,13.660272,7.106886,12.788840,4.594574,0,15.708625,6.375623,17.980216,5.017788,15.086387,6.114111,97.639834,59.463435,63.260045,109.957088,0,0,0,0,0,0,0,0,0,0,0,0,0,0,0,0,0,0,0,0,0,0,0,0,0,0
0.268,3.27649,0.10097,-1.22421,0.00066,0.00067,0.00179,0.00077,0.00107,0.00066,0.00359,0.00276,14.353014,10.516412,13.228921,10.192369,13.450859,8.713667,11.964799,9.312354,12.062491,8.180223,12.638367,8.024011,17.899510,8.355995,13.726271,7.090889,12.790921,4.601261,0,15.701961,6.377091,17.992342,5.011908,15.086463,6.106687,97.644352,59.493944,63.330966,109.909617,0,0,0,0,0,0,0,0,0,0,0,0,0,0,0,0,0,0,0,0,0,0,0,0,0,0
0.269,3.27604,0.10112,-1.21063,0.00065,0.00069,0.00177,0.00081,0.00109,0.00067,0.00358,0.00283,14.347704,10.518449,13.227637,10.195253,13.453230,8.715802,11.968826,9.314522,12.065414,8.175701,12.627743,8.027242,17.908815,8.356886,13.793388,7.077373,12.787125,4.602957,0,15.690778,6.381037,18.001635,5.003209,15.090311,6.099581,97.682073,59.519596,63.481583,109.990451,0,0,0,0,0,0,0,0,0,0,0,0,0,0,0,0,0,0,0,0,0,0,0,0,0,0
0.270,3.27645,0.10112,-1.19629,0.00063,0.00068,0.00178,0.00080,0.00109,0.00067,0.00346,0.00288,14.341949,10.520182,13.226157,10.197809,13.454674,8.717176,11.972950,9.321134,12.068101,8.172003,12.617588,8.028900,17.921103,8.360232,13.862928,7.066800,12.775431,4.599194,0,15.675224,6.387226,18.008828,4.992036,15.098151,6.093102,97.750047,59.523926,63.714510,110.202913,0,0,0,0,0,0,0,0,0,0,0,0,0,0,0,0,0,0,0,0,0,0,0,0,0,0
0.271,3.27665,0.10181,-1.16455,0.00063,0.00070,0.00179,0.00074,0.00110,0.00066,0.00241,0.00268,14.336010,10.521615,13.224167,10.199751,13.455490,8.717910,11.976720,9.329736,12.069098,8.170465,12.607951,8.029573,17.937204,8.365324,13.934340,7.059655,12.759019,4.593272,0,15.658137,6.393937,18.016282,4.979868,15.107460,6.087153,97.837771,59.512797,64.037148,110.513138,0,0,0,0,0,0,0,0,0,0,0,0,0,0,0,0,0,0,0,0,0,0,0,0,0,0
0.272,3.27625,0.10198,-1.14845,0.00066,0.00069,0.00217,0.00076,0.00104,0.00068,0.00215,0.00321,14.330164,10.522756,13.221354,10.200794,13.456020,8.718148,11.979684,9.337614,12.066873,8.172489,12.598843,8.029932,17.957914,8.371342,14.006934,7.056422,12.741460,4.588782,0,15.642560,6.399337,18.026480,4.968270,15.115506,6.081604,97.934171,59.493765,64.457263,110.884445,0,0,0,0,0,0,0,0,0,0,0,0,0,0,0,0,0,0,0,0,0,0,0,0,0,0
0.273,3.27608,0.10221,-1.13373,0.00072,0.00065,0.00188,0.00070,0.00120,0.00069,0.00197,0.00346,14.324686,10.523616,13.217417,10.200659,13.456607,8.718030,11.981402,9.342094,12.059926,8.179451,12.590269,8.030639,17.983992,8.377469,14.080001,7.057567,12.726280,4.589253,0,15.631492,6.401619,18.041863,4.958788,15.119603,6.076329,98.028255,59.474389,64.982194,111.280347,0,0,0,0,0,0,0,0,0,0,0,0,0,0,0,0,0,0,0,0,0,0,0,0,0,0
0.274,3.27647,0.10290,-1.11755,0.00072,0.00068,0.00183,0.00075,0.00123,0.00070,0.00207,0.00349,14.319733,10.524316,13.212524,10.199402,13.457408,8.717736,11.981868,9.342296,12.048168,8.191452,12.582221,8.031969,18.014483,8.383094,14.152017,7.062620,12.714681,4.595508,0,15.625835,6.400274,18.062916,4.951982,15.119210,6.071388,98.112878,59.462436,65.599189,111.673333,0,0,0,0,0,0,0,0,0,0,0,0,0,0,0,0,0,0,0,0,0,0,0,0,0,0
0.275,3.27700,0.10294,-1.09703,0.00073,0.00071,0.00182,0.00080,0.00129,0.00069,0.00206,0.00379,14.315297,10.525132,13.207516,10.197545,13.458332,8.717493,11.981696,9.339876,12.033503,8.206787,12.574661,8.033653,18.046005,8.387897,14.220303,7.069787,12.704588,4.604540,0,15.623525,6.396625,18.087348,4.947023,15.116824,6.067097,98.186337,59.465964,66.267103,112.048585,0,0,0,0,0,0,0,0,0,0,0,0,0,0,0,0,0,0,0,0,0,0,0,0,0,0
0.276,3.27730,0.10301,-1.08307,0.00073,0.00079,0.00182,0.00084,0.00137,0.00067,0.00189,0.00365,14.311356,10.526352,13.203284,10.195648,13.459265,8.717533,11.981545,9.336682,12.017988,8.223615,12.567555,8.035377,18.074991,8.391578,14.282093,7.077175,12.693677,4.613052,0,15.622276,6.392136,18.112664,4.942978,15.115170,6.063795,98.247340,59.493054,66.942639,112.392245,0,0,0,0,0,0,0,0,0,0,0,0,0,0,0,0,0,0,0,0,0,0,0,0,0,0
0.277,3.27719,0.10341,-1.05354,0.00071,0.00082,0.00182,0.00084,0.00136,0.00063,0.00175,0.00385,14.307887,10.528259,13.200704,10.194263,13.460095,8.718086,11.982065,9.334545,12.003656,8.240110,12.560864,8.036837,18.097937,8.393853,14.334674,7.082913,12.679665,4.617793,0,15.619830,6.388254,18.136391,4.938919,15.116931,6.061810,98.294599,59.551581,67.583155,112.690366,0,0,0,0,0,0,0,0,0,0,0,0,0,0,0,0,0,0,0,0,0,0,0,0,0,0
0.278,3.27681,0.10343,-1.02562,0.00072,0.00080,0.00183,0.00086,0.00161,0.00063,0.00195,0.00399,14.304811,10.530787,13.200047,10.193722,13.460744,8.719249,11.983434,9.334337,11.991526,8.255184,12.554545,8.038001,18.114220,8.395133,14.377768,7.086197,12.662107,4.617636,0,15.615214,6.385772,18.157312,4.934185,15.122734,6.061041,98.327050,59.639687,68.176944,112.924769,0,0,0,0,0,0,0,0,0,0,0,0,0,0,0,0,0,0,0,0,0,0,0,0,0,0
0.279,3.27669,0.10351,-1.00677,0.00076,0.00077,0.00184,0.00086,0.00171,0.00063,0.00281,0.00403,14.301965,10.533387,13.200725,10.194038,13.461181,8.720941,11.985162,9.335586,11.981177,8.268789,12.548548,8.039228,18.127295,8.396813,14.414548,7.087731,12.643156,4.614465,0,15.609274,6.384556,18.175978,4.928491,15.130303,6.060775,98.343947,59.741753,68.756028,113.071291,0,0,0,0,0,0,0,0,0,0,0,0,0,0,0,0,0,0,0,0,0,0,0,0,0,0
0.280,3.27697,0.10385,-0.98907,0.00077,0.00076,0.00186,0.00086,0.00175,0.00061,0.00317,0.00386,14.299181,10.535468,13.202084,10.195201,13.461381,8.723062,11.986706,9.337713,11.972081,8.280957,12.542821,8.040906,18.140920,8.400362,14.448445,7.088332,12.625164,4.610388,0,15.602996,6.384404,18.193076,4.921583,15.137142,6.060254,98.344566,59.841119,69.355738,113.105318,0,0,0,0,0,0,0,0,0,0,0,0,0,0,0,0,0,0,0,0,0,0,0,0,0,0
0.281,3.27715,0.10362,-0.96947,0.00077,0.00074,0.00184,0.00085,0.00176,0.00066,0.00323,0.00405,14.296297,10.536454,13.203479,10.197199,13.461316,8.725517,11.987530,9.340145,11.963704,8.291726,12.537310,8.043414,18.158802,8.407214,14.482836,7.088804,12.610442,4.607493,0,15.597353,6.385107,18.209285,4.913207,15.140792,6.058735,98.328304,59.921730,70.010898,113.003413,0,0,0,0,0,0,0,0,0,0,0,0,0,0,0,0,0,0,0,0,0,0,0,0,0,0
0.282,3.27705,0.10355,-0.94910,0.00073,0.00077,0.00161,0.00083,0.00174,0.00067,0.00352,0.00360,14.293359,10.536267,13.204615,10.199925,13.460940,8.728227,11.987357,9.342353,11.955330,8.301389,12.531840,8.046730,18.181960,8.417276,14.518541,7.089171,12.599383,4.606835,0,15.592776,6.386343,18.225033,4.903172,15.140557,6.056133,98.300271,59.996145,70.732451,112.797940,0,0,0,0,0,0,0,0,0,0,0,0,0,0,0,0,0,0,0,0,0,0,0,0,0,0
0.283,3.27698,0.10372,-0.93086,0.00070,0.00076,0.00177,0.00085,0.00167,0.00064,0.00350,0.00327,14.290710,10.535539,13.205692,10.203144,13.460183,8.731142,11.986271,9.343879,11.945977,8.310607,12.526066,8.050263,18.207621,8.428284,14.552759,7.088364,12.589669,4.608016,0,15.588926,6.387619,18.240387,4.891376,15.138229,6.053297,98.273656,60.117369,71.497579,112.600137,0,0,0,0,0,0,0,0,0,0,0,0,0,0,0,0,0,0,0,0,0,0,0,0,0,0
0.284,3.27707,0.10341,-0.90019,0.00068,0.00073,0.00182,0.00079,0.00184,0.00065,0.00390,0.00312,14.288717,10.534953,13.206948,10.206609,13.458970,8.734213,11.984383,9.344269,11.934646,8.320066,12.519630,8.053379,18.232725,8.437813,14.582415,7.085231,12.578775,4.610527,0,15.585409,6.388431,18.255386,4.877726,15.135788,6.051148,98.262257,60.341468,72.280912,112.527210,0,0,0,0,0,0,0,0,0,0,0,0,0,0,0,0,0,0,0,0,0,0,0,0,0,0
0.285,3.27714,0.10305,-0.86922,0.00074,0.00070,0.00186,0.00075,0.00188,0.00065,0.00416,0.00295,14.287739,10.535186,13.208619,10.210076,13.457227,8.737392,11.981799,9.343061,11.920370,8.330443,12.512183,8.055453,18.254254,8.443468,14.604504,7.078644,12.564230,4.613859,0,15.581833,6.388282,18.270064,4.862137,15.135204,6.050598,98.279751,60.723706,73.057022,112.695338,0,0,0,0,0,0,0,0,0,0,0,0,0,0,0,0,0,0,0,0,0,0,0,0,0,0
0.286,3.27712,0.10323,-0.85426,0.00076,0.00061,0.00186,0.00071,0.00186,0.00067,0.00444,0.00308,14.287828,10.536483,13.210857,10.213483,13.454906,8.740574,11.978255,9.339437,11.903783,8.341944,12.503875,8.056244,18.271153,8.444344,14.619288,7.068710,12.545973,4.617581,0,15.577930,6.386953,18.284044,4.845037,15.137911,6.052216,98.334141,61.281365,73.797794,113.172152,0,0,0,0,0,0,0,0,0,0,0,0,0,0,0,0,0,0,0,0,0,0,0,0,0,0
0.287,3.27716,0.10297,-0.82619,0.00079,0.00056,0.00186,0.00069,0.00174,0.00068,0.00471,0.00307,14.288596,10.538485,13.213690,10.217020,13.451991,8.743578,11.972967,9.332070,11.887777,8.354111,12.495554,8.056059,18.285138,8.441638,14.631645,7.057276,12.527349,4.621364,0,15.573614,6.384626,18.296381,4.827579,15.144589,6.056089,98.425400,61.978043,74.471319,113.956659,0,0,0,0,0,0,0,0,0,0,0,0,0,0,0,0,0,0,0,0,0,0,0,0,0,0
0.288,3.27723,0.10239,-0.80765,0.00082,0.00059,0.00185,0.00065,0.00149,0.00067,0.00459,0.00292,14.289623,10.540783,13.217143,10.220895,13.448467,8.746218,11.965113,9.319598,11.875416,8.366434,12.488124,8.055245,18.298138,8.436709,14.646802,7.046323,12.511966,4.624892,0,15.568811,6.381510,18.306083,4.810970,15.155860,6.062265,98.552898,62.773273,75.045401,115.042671,0,0,0,0,0,0,0,0,0,0,0,0,0,0,0,0,0,0,0,0,0,0,0,0,0,0
0.289,3.27699,0.10214,-0.78339,0.00078,0.00064,0.00194,0.00065,0.00136,0.00068,0.00401,0.00264,14.290496,10.542977,13.221232,10.225311,13.444326,8.748309,11.953895,9.300701,11.869710,8.378414,12.482466,8.054151,18.312055,8.430885,14.669897,7.037803,12.503365,4.627849,0,15.563451,6.377817,18.312180,4.796401,15.172310,6.070777,98.715929,63.626475,75.488319,116.423782,0,0,0,0,0,0,0,0,0,0,0,0,0,0,0,0,0,0,0,0,0,0,0,0,0,0
0.290,3.27650,0.10224,-0.76279,0.00076,0.00066,0.00192,0.00067,0.00134,0.00071,0.00364,0.00253,14.291089,10.544852,13.225837,10.230129,13.439738,8.749834,11.939643,9.276140,11.871226,8.390036,12.478529,8.053135,18.327535,8.424105,14.701823,7.032371,12.502210,4.630131,0,15.557666,6.373864,18.314655,4.784323,15.192785,6.080874,98.910374,64.491444,75.790936,118.083139,0,0,0,0,0,0,0,0,0,0,0,0,0,0,0,0,0,0,0,0,0,0,0,0,0,0
0.291,3.27643,0.10184,-0.71724,0.00085,0.00070,0.00193,0.00070,0.00142,0.00067,0.00367,0.00224,14.291682,10.546459,13.230640,10.234724,13.435128,8.751008,11.924286,9.249616,11.877066,8.401969,12.474939,8.052568,18.343446,8.414344,14.737476,7.028850,12.505087,4.631931,0,15.551869,6.370113,18.314842,4.774140,15.213673,6.090700,99.127283,65.314038,75.976032,119.989119,0,0,0,0,0,0,0,0,0,0,0,0,0,0,0,0,0,0,0,0,0,0,0,0,0,0
0.292,3.27695,0.10141,-0.69229,0.00124,0.00085,0.00172,0.00070,0.00175,0.00069,0.00341,0.00211,14.292586,10.547870,13.235309,10.238439,13.430939,8.752066,11.909874,9.225055,11.884073,8.414934,12.470222,8.052823,18.358526,8.399428,14.771297,7.025925,12.508275,4.633462,0,15.546495,6.367040,18.314176,4.765179,15.231176,6.098311,99.357344,66.039512,76.068805,122.108983,0,0,0,0,0,0,0,0,0,0,0,0,0,0,0,0,0,0,0,0,0,0,0,0,0,0
0.293,3.27739,0.10176,-0.67047,0.00125,0.00105,0.00090,0.00075,0.00178,0.00066,0.00326,0.00205,14.294109,10.549161,13.239515,10.240626,13.427611,8.753240,11.898432,9.206328,11.889131,8.429635,12.462911,8.054261,18.371498,8.377223,14.797803,7.022297,12.508098,4.634936,0,15.541975,6.365112,18.314059,4.756764,15.241552,6.101798,99.591207,66.613971,76.094731,124.408929,0,0,0,0,0,0,0,0,0,0,0,0,0,0,0,0,0,0,0,0,0,0,0,0,0,0
0.294,3.27746,0.10160,-0.64819,0.00128,0.00113,0.00082,0.00077,0.00149,0.00066,0.00261,0.00196,14.296397,10.550493,13.243209,10.241303,13.425355,8.754676,11.890773,9.194881,11.891058,8.446004,12.451954,8.056693,18.380522,8.347409,14.815167,7.017563,12.502969,4.636457,0,15.538585,6.364501,18.314300,4.748232,15.243668,6.100644,99.817883,67.023750,76.092587,126.804748,0,0,0,0,0,0,0,0,0,0,0,0,0,0,0,0,0,0,0,0,0,0,0,0,0,0
0.295,3.27744,0.10106,-0.62614,0.00123,0.00116,0.00101,0.00074,0.00139,0.00068,0.00221,0.00184,14.299368,10.552157,13.246728,10.241423,13.424060,8.756403,11.886004,9.188720,11.891405,8.462885,12.436874,8.059151,18.382957,8.312232,14.826725,7.012577,12.494258,4.637969,0,15.536381,6.364955,18.312457,4.738936,15.240086,6.096304,100.024066,67.312048,76.119952,129.140982,0,0,0,0,0,0,0,0,0,0,0,0,0,0,0,0,0,0,0,0,0,0,0,0,0,0
0.296,3.27747,0.10104,-0.60120,0.00123,0.00117,0.00184,0.00076,0.00133,0.00070,0.00241,0.00172,14.302923,10.554450,13.250441,10.242008,13.423589,8.758438,11.883100,9.185596,11.891934,8.479036,12.417244,8.060608,18.376107,8.274131,14.836203,7.008290,12.483557,4.639409,0,15.535401,6.366195,18.305916,4.728229,15.233644,6.090385,100.196273,67.526367,76.235824,131.256784,0,0,0,0,0,0,0,0,0,0,0,0,0,0,0,0,0,0,0,0,0,0,0,0,0,0
0.297,3.27738,0.10128,-0.56618,0.00121,0.00119,0.00194,0.00076,0.00130,0.00068,0.00223,0.00171,14.306962,10.557664,13.254711,10.244065,13.423807,8.760798,11.881049,9.183277,11.894366,8.493222,12.392656,8.060056,18.357346,8.235545,14.847278,7.005645,12.472446,4.640710,0,15.535671,6.367944,18.292122,4.715487,15.227161,6.084475,100.321266,67.713741,76.498399,132.992694,0,0,0,0,0,0,0,0,0,0,0,0,0,0,0,0,0,0,0,0,0,0,0,0,0,0
0.298,3.27717,0.10091,-0.53040,0.00119,0.00116,0.00196,0.00076,0.00135,0.00068,0.00243,0.00164,14.311467,10.561662,13.259615,10.247833,13.424633,8.763409,11.879280,9.180467,11.898661,8.504471,12.363894,8.057489,18.327644,8.198809,14.861164,7.005181,12.461767,4.641792,0,15.536628,6.370209,18.271189,4.701129,15.222381,6.079328,100.397362,67.899027,76.927824,134.254919,0,0,0,0,0,0,0,0,0,0,0,0,0,0,0,0,0,0,0,0,0,0,0,0,0,0
0.299,3.27717,0.10047,-0.50598,0.00120,0.00116,0.00192,0.00076,0.00149,0.00067,0.00216,0.00178,14.316524,10.565707,13.264826,10.252465,13.426064,8.766069,11.877857,9.177193,11.902286,8.512180,12.333415,8.054307,18.293043,8.166114,14.875604,7.006865,12.451324,4.642555,0,15.536877,6.373395,18.247010,4.687050,15.219536,6.074521,100.439211,68.075739,77.490461,135.042492,0,0,0,0,0,0,0,0,0,0,0,0,0,0,0,0,0,0,0,0,0,0,0,0,0,0
0.300,3.27744,0.10067,-0.47966,0.00120,0.00133,0.00190,0.00073,0.00150,0.00064,0.00225,0.00200,14.322232,10.569014,13.269988,10.257030,13.428101,8.768564,11.876888,9.173581,11.902519,8.515776,12.303806,8.052021,18.259974,8.139639,14.888074,7.010622,12.440846,4.642897,0,15.534957,6.377940,18.223764,4.675258,15.218744,6.069541,100.462701,68.235019,78.148603,135.361470,0,0,0,0,0,0,0,0,0,0,0,0,0,0,0,0,0,0,0,0,0,0,0,0,0,0
0.301,3.27762,0.10063,-0.45998,0.00110,0.00142,0.00185,0.00073,0.00143,0.00063,0.00237,0.00214,14.328683,10.570817,13.274751,10.260613,13.430747,8.770684,11.876484,9.169759,11.896691,8.514708,12.277623,8.052116,18.234772,8.121523,14.896094,7.016371,12.430067,4.642724,0,15.529444,6.384258,18.205568,4.667727,15.220116,6.063883,100.483713,68.368248,78.864209,135.220260,0,0,0,0,0,0,0,0,0,0,0,0,0,0,0,0,0,0,0,0,0,0,0,0,0,0
