"Time","1 Synch","2 Trdml","3 Platform","4 GM","5 Ip","6 BF","7 VL","8 St","9 TA","10 Gs","11 Gr","13 Crx (cm)","14 Cry (cm)","15 Hipx (cm)","16 Hipy (cm)","17 Knee x","18 Knee y","19 ankx (cm)","20 anky (cm)","21 MTPx (cm)","22 MTPy (cm)","23 toex (cm)","24 toey (cm)","25 FLtx (cm)","26 FLty (cm)","27 HLx (cm)","28 HLy (cm)","29 HRx (cm)","30 HRy (cm)","31 Keyboard","32 FLx (cm)","33 FLy (cm)","34 FRx (cm)","35 FRy (cm)","36 CoMx (cm)","37 CoMy (cm)","38 Hip (deg)","39 Knee (deg","40 Ankle (de","41 MTP (deg)","42 Rump up","43 Ramp down","44 sw onset","45 sw offset","12 Synch","46 Sw rmp up","47 St rmp up","48 Sw rmp dw","49 St rmp dw","50 Sinus rmp","51 HLl Sw on","52 HLl Sw of","53 HLr Sw on","54 HLr Sw of","55 FLl Sw on","56 FLl Sw of","57 FLr Sw on","58 FLr Sw of","59 Left DS","60 Right DS","61 Ramp up","62 Ramp down","63 rmp up sw","64 rmp up st","65 rm dwn sw","66 rm dwn st"
0.000,3.27678,0.09668,0.00012,0.00057,0.00078,0.00062,0.00054,0.00048,0.00058,0.00060,0.00105,15.832616,10.763091,14.647871,10.711267,14.900709,9.229122,13.392339,8.731458,13.855466,8.116241,14.381525,7.994679,19.902160,8.418241,15.271559,6.605466,14.682131,3.883767,0,17.779599,5.932508,19.915172,4.515149,16.931047,5.125081,83.477723,98.235775,71.293462,139.378280,0,0,0,0,0,0,0,0,0,0,0,0,0,0,0,0,0,0,1,1,0,0,0,0,0,0
0.001,3.27644,0.09664,-0.00013,0.00059,0.00081,0.00065,0.00057,0.00048,0.00058,0.00064,0.00123,15.831000,10.762790,14.647570,10.708813,14.895629,9.226746,13.383702,8.738460,13.842867,8.119120,14.370084,7.997609,19.916336,8.414211,15.296116,6.610093,14.666231,3.892869,0,17.774431,5.929888,19.914975,4.522558,16.930372,5.127132,83.765282,98.068597,71.315829,139.121323,0,0,0,0,0,0,0,0,0,0,0,0,0,0,0,0,0,0,1,1,0,0,0,0,0,0
0.002,3.27639,0.09685,0.00012,0.00059,0.00084,0.00066,0.00059,0.00049,0.00057,0.00062,0.00151,15.829726,10.762588,14.647360,10.706561,14.890227,9.224393,13.374573,8.746304,13.830801,8.122146,14.358067,8.000463,19.927251,8.410344,15.323037,6.617570,14.654437,3.902650,0,17.767173,5.927196,19.913852,4.530928,16.929165,5.130347,84.055860,97.895601,71.310444,138.912324,0,0,0,0,0,0,0,0,0,0,0,0,0,0,0,0,0,0,1,1,0,0,0,0,0,0
0.003,3.27689,0.09700,0.00002,0.00059,0.00089,0.00068,0.00061,0.00053,0.00058,0.00060,0.00156,15.829189,10.762903,14.647398,10.704925,14.884577,9.222075,13.365778,8.754616,13.819302,8.125573,14.345215,8.003028,19.932582,8.406237,15.352220,6.626921,14.647627,3.910917,0,17.756094,5.925208,19.911901,4.539675,16.928632,5.134967,84.345563,97.725631,71.296565,138.742615,0,0,0,0,0,0,0,0,0,0,0,0,0,0,0,0,0,0,1,1,0,0,0,0,0,0
0.004,3.27770,0.09687,-0.00002,0.00058,0.00092,0.00066,0.00066,0.00066,0.00055,0.00060,0.00166,15.829474,10.763847,14.647721,10.704023,14.878763,9.219813,13.357680,8.763087,13.808287,8.129420,14.331549,8.005153,19.931903,8.401994,15.383292,6.637417,14.644684,3.916282,0,17.741188,5.924212,19.909421,4.548364,16.929323,5.140830,84.631518,97.559477,71.285856,138.601439,0,0,0,0,0,0,0,0,0,0,0,0,0,0,0,0,0,0,1,1,0,0,0,0,0,0
0.005,3.27778,0.09669,0.00015,0.00060,0.00090,0.00069,0.00064,0.00075,0.00055,0.00060,0.00191,15.830144,10.765016,14.648172,10.703471,14.872886,9.217638,13.349862,8.771522,13.797482,8.133317,14.317565,8.006789,19.927956,8.398561,15.415422,6.648742,14.641158,3.918705,0,17.725327,5.923686,19.907053,4.556811,16.930685,5.147111,84.912559,97.384491,71.277317,138.474553,0,0,0,0,0,0,0,0,0,0,0,0,0,0,0,0,0,0,1,1,0,0,0,0,0,0
0.006,3.27681,0.09700,0.00002,0.00061,0.00085,0.00070,0.00064,0.00076,0.00057,0.00065,0.00190,15.830713,10.765957,14.648574,10.702839,14.867046,9.215582,13.341837,8.779734,13.786595,8.136857,14.303800,8.007894,19.923784,8.396964,15.447738,6.660620,14.632285,3.918269,0,17.711656,5.923030,19.905467,4.564855,16.932065,5.152921,85.187680,97.186753,71.268744,138.347383,0,0,0,0,0,0,0,0,0,0,0,0,0,0,0,0,0,0,1,1,0,0,0,0,0,0
0.007,3.27584,0.09724,-0.00012,0.00063,0.00089,0.00072,0.00071,0.00078,0.00058,0.00066,0.00196,15.830696,10.766221,14.648752,10.701700,14.861346,9.213677,13.333118,8.787540,13.775337,8.139639,14.290790,8.008433,19.922401,8.398211,15.479373,6.672776,14.613352,3.915064,0,17.703283,5.921648,19.905339,4.572341,16.932812,5.157377,85.455855,96.952477,71.257994,138.205462,0,0,0,0,0,0,0,0,0,0,0,0,0,0,0,0,0,0,1,1,0,0,0,0,0,0
0.008,3.27560,0.09691,0.00008,0.00063,0.00090,0.00074,0.00076,0.00085,0.00057,0.00068,0.00190,15.829824,10.765734,14.648630,10.699940,14.855884,9.211937,13.323595,8.795087,13.763627,8.141636,14.278721,8.008522,19.924843,8.402121,15.510078,6.685063,14.583457,3.909426,0,17.700797,5.919293,19.907544,4.579613,16.932750,5.160121,85.714554,96.677816,71.247304,138.042237,0,0,0,0,0,0,0,0,0,0,0,0,0,0,0,0,0,0,1,1,0,0,0,0,0,0
0.009,3.27615,0.09646,0.00013,0.00063,0.00097,0.00077,0.00079,0.00096,0.00058,0.00068,0.00197,15.828185,10.765038,14.648296,10.697963,14.850754,9.210353,13.313776,8.803063,13.751738,8.143447,14.267205,8.008540,19.928843,8.406524,15.540629,6.697549,14.548052,3.902107,0,17.700576,5.916294,19.913292,4.587840,16.932492,5.161668,85.958741,96.375501,71.246213,137.864358,0,0,0,0,0,0,0,0,0,0,0,0,0,0,0,0,0,0,1,1,0,0,0,0,0,0
0.010,3.27708,0.09665,0.00013,0.00059,0.00105,0.00078,0.00081,0.00100,0.00062,0.00075,0.00208,15.825901,10.764735,14.647852,10.696226,14.846052,9.208908,13.304231,8.812210,13.739971,8.145727,14.255798,8.008889,19.931822,8.409063,15.571899,6.710318,14.513194,3.893897,0,17.698600,5.913035,19.923826,4.598275,16.932724,5.162617,86.183143,96.059833,71.264955,137.679724,0,0,0,0,0,0,0,0,0,0,0,0,0,0,0,0,0,0,1,1,0,0,0,0,0,0
0.011,3.27742,0.09683,0.00013,0.00058,0.00114,0.00075,0.00079,0.00113,0.00062,0.00076,0.00195,15.823096,10.765420,14.647402,10.695177,14.841870,9.207589,13.295524,8.823258,13.728628,8.149129,14.244061,8.009968,19.931236,8.407402,15.604752,6.723454,14.484891,3.885587,0,17.690880,5.909903,19.940363,4.612147,16.934126,5.163563,86.382518,95.745024,71.313718,137.495989,0,0,0,0,0,0,0,0,0,0,0,0,0,0,0,0,0,0,1,1,0,0,0,0,0,0
0.012,3.27693,0.09663,0.00017,0.00059,0.00111,0.00077,0.00078,0.00118,0.00062,0.00079,0.00172,15.820020,10.767247,14.647007,10.694936,14.838239,9.206370,13.287953,8.836136,13.717793,8.153860,14.231899,8.011871,19.927305,8.400883,15.639328,6.736781,14.465572,3.878011,0,17.675776,5.907315,19.962117,4.629210,16.936767,5.164933,86.554084,95.438404,71.399486,137.302564,0,0,0,0,0,0,0,0,0,0,0,0,0,0,0,0,0,0,1,1,0,0,0,0,0,0
0.013,3.27669,0.09635,0.00002,0.00063,0.00096,0.00075,0.00076,0.00115,0.00064,0.00081,0.00165,15.817135,10.769627,14.646657,10.695067,14.835083,9.205203,13.281372,8.849437,13.707187,8.159392,14.219794,8.014184,19.924851,8.391639,15.674566,6.749692,14.451700,3.872075,0,17.655562,5.905743,19.984967,4.646753,16.939700,5.166876,86.699162,95.135836,71.523888,137.058439,0,0,0,0,0,0,0,0,0,0,0,0,0,0,0,0,0,0,1,1,0,0,0,0,0,0
0.014,3.27715,0.09627,0.00013,0.00064,0.00093,0.00079,0.00072,0.00108,0.00066,0.00079,0.00155,15.814921,10.771904,14.646336,10.695084,14.832317,9.204042,13.275592,8.861627,13.696499,8.165123,14.208284,8.016445,19.929135,8.382074,15.709287,6.761538,14.439172,3.868689,0,17.632882,5.905664,20.004478,4.661832,16.941882,5.169513,86.819460,94.832092,71.688050,136.719718,0,0,0,0,0,0,0,0,0,0,0,0,0,0,0,0,0,0,1,1,0,0,0,0,0,0
0.015,3.27746,0.09651,0.00025,0.00063,0.00094,0.00078,0.00076,0.00105,0.00065,0.00081,0.00139,15.813853,10.773423,14.646030,10.694504,14.829856,9.202838,13.270423,8.871189,13.685419,8.170455,14.197900,8.018197,19.945356,8.374572,15.742324,6.771676,14.423914,3.868753,0,17.610370,5.907548,20.016254,4.671531,16.942281,5.172962,86.916743,94.522004,71.893129,136.242804,0,0,0,0,0,0,0,0,0,0,0,0,0,0,0,0,0,0,1,1,0,0,0,0,0,0
0.016,3.27725,0.09667,0.00027,0.00064,0.00094,0.00077,0.00079,0.00109,0.00065,0.00077,0.00143,15.813995,10.773900,14.645718,10.693161,14.827615,9.201588,13.265701,8.877850,13.673897,8.174948,14.188803,8.019286,19.974291,8.370480,15.773147,6.779915,14.404004,3.872194,0,17.589856,5.911326,20.019102,4.674886,16.940706,5.177164,86.996944,94.204685,72.142778,135.606285,0,0,0,0,0,0,0,0,0,0,0,0,0,0,0,0,0,0,1,1,0,0,0,0,0,0
0.017,3.27716,0.09655,0.00015,0.00064,0.00092,0.00074,0.00077,0.00112,0.00066,0.00073,0.00137,15.814721,10.773657,14.645381,10.691418,14.825511,9.200360,13.261302,8.883413,13.662312,8.178421,14.180538,8.020070,20.009338,8.369408,15.802290,6.786813,14.381107,3.877321,0,17.571825,5.916033,20.017166,4.674201,16.938371,5.181764,87.072950,93.886388,72.444807,134.825741,0,0,0,0,0,0,0,0,0,0,0,0,0,0,0,0,0,0,1,1,0,0,0,0,0,0
0.018,3.27741,0.09624,0.00025,0.00065,0.00094,0.00073,0.00072,0.00110,0.00065,0.00069,0.00167,15.815339,10.773078,14.644994,10.689686,14.823461,9.199230,13.257104,8.889879,13.651086,8.180716,14.172591,8.020953,20.043196,8.370803,15.830390,6.793001,14.357231,3.882291,0,17.556637,5.920615,20.015099,4.672085,16.936621,5.186379,87.158305,93.574043,72.807422,133.920263,0,0,0,0,0,0,0,0,0,0,0,0,0,0,0,0,0,0,1,1,0,0,0,0,0,0
0.019,3.27734,0.09652,0.00000,0.00064,0.00090,0.00069,0.00069,0.00099,0.00062,0.00070,0.00166,15.815166,10.772542,14.644536,10.688375,14.821383,9.198273,13.252987,8.899228,13.640633,8.181680,14.164451,8.022336,20.068609,8.374110,15.858078,6.799105,14.334374,3.885274,0,17.544641,5.924027,20.017506,4.671126,16.936791,5.190626,87.266481,93.274592,73.238664,132.909161,0,0,0,0,0,0,0,0,0,0,0,0,0,0,0,0,0,0,1,1,0,0,0,0,0,0
0.020,3.27678,0.09682,0.00025,0.00063,0.00079,0.00071,0.00069,0.00098,0.00061,0.00066,0.00159,15.813933,10.772325,14.643941,10.687657,14.819200,9.197529,13.248883,8.911978,13.630852,8.181373,14.155729,8.024284,20.081744,8.378838,15.885752,6.805601,14.314050,3.885498,0,17.535544,5.925717,20.025800,4.672238,16.939271,5.194211,87.405591,92.995746,73.734437,131.827897,0,0,0,0,0,0,0,0,0,0,0,0,0,0,0,0,0,0,1,1,0,0,0,0,0,0
0.021,3.27652,0.09660,0.00000,0.00063,0.00065,0.00070,0.00067,0.00088,0.00061,0.00070,0.00152,15.812071,10.772522,14.643071,10.687311,14.816845,9.196973,13.244808,8.926205,13.620789,8.180207,14.146248,8.026307,20.084476,8.384597,15.913410,6.812711,14.296960,3.883962,0,17.527975,5.925949,20.036064,4.673542,16.942876,5.196985,87.574804,92.746504,74.270404,130.738874,0,0,0,0,0,0,0,0,0,0,0,0,0,0,0,0,0,0,1,1,0,0,0,0,0,0
0.022,3.27695,0.09625,0.00029,0.00063,0.00064,0.00067,0.00064,0.00089,0.00058,0.00076,0.00154,15.810078,10.773214,14.641781,10.687078,14.814251,9.196577,13.240788,8.939755,13.609407,8.178631,14.135848,8.027862,20.079222,8.391009,15.941019,6.820629,14.283728,3.881831,0,17.520463,5.925068,20.043875,4.672893,16.946272,5.198811,87.772444,92.535986,74.820308,129.707054,0,0,0,0,0,0,0,0,0,0,0,0,0,0,0,0,0,0,1,1,0,0,0,0,0,0
0.023,3.27764,0.09646,0.00027,0.00062,0.00066,0.00068,0.00067,0.00089,0.00057,0.00086,0.00162,15.808447,10.774479,14.639932,10.686700,14.811354,9.196313,13.236847,8.950494,13.595684,8.177090,14.124375,8.028409,20.068389,8.397694,15.968538,6.829547,14.274963,3.880259,0,17.511551,5.923416,20.044854,4.668170,16.948138,5.199562,87.996783,92.373209,75.357949,128.796983,0,0,0,0,0,0,0,0,0,0,0,0,0,0,0,0,0,0,1,1,0,0,0,0,0,0
0.024,3.27819,0.09678,-0.00004,0.00064,0.00066,0.00066,0.00068,0.00085,0.00057,0.00093,0.00178,15.807420,10.776299,14.637613,10.686104,14.808118,9.196188,13.232956,8.957647,13.579539,8.175928,14.111938,8.027805,20.053940,8.404227,15.995825,6.839306,14.270241,3.879652,0,17.500773,5.921271,20.037881,4.658955,16.947880,5.199517,88.242393,92.259363,75.861285,128.042881,0,0,0,0,0,0,0,0,0,0,0,0,0,0,0,0,0,0,1,1,0,0,0,0,0,0
0.025,3.27834,0.09657,0.00025,0.00064,0.00066,0.00066,0.00068,0.00079,0.00058,0.00101,0.00177,15.806825,10.778502,14.635301,10.685522,14.804555,9.196266,13.228998,8.962705,13.562471,8.175316,14.099091,8.026565,20.037082,8.410112,16.022557,6.849158,14.267415,3.879161,0,17.489322,5.918806,20.027272,4.647671,16.946128,5.199644,88.497677,92.182594,76.315213,127.428383,0,0,0,0,0,0,0,0,0,0,0,0,0,0,0,0,0,1,1,1,0,0,0,0,0,0
0.026,3.27802,0.09643,0.00002,0.00062,0.00069,0.00065,0.00065,0.00074,0.00057,0.00105,0.00180,15.806448,10.780897,14.633511,10.685213,14.800684,9.196618,13.224848,8.967379,13.546127,8.175410,14.086428,8.025266,20.018954,8.414844,16.048394,6.858299,14.264173,3.877821,0,17.478545,5.916180,20.017858,4.637008,16.943626,5.200975,88.750451,92.129809,76.705287,126.932327,0,0,0,0,0,0,0,0,0,0,0,0,0,0,0,0,0,0,1,1,0,0,0,0,0,0
0.027,3.27737,0.09657,0.00015,0.00060,0.00068,0.00070,0.00065,0.00076,0.00055,0.00105,0.00187,15.806077,10.783296,14.632750,10.685438,14.796522,9.197312,13.220381,8.973363,13.532138,8.176364,14.074539,8.024482,20.000702,8.417925,16.072999,6.865935,14.258220,3.874678,0,17.469779,5.913553,20.014423,4.629634,16.941114,5.204531,88.988583,92.087961,77.017320,126.533547,0,0,0,0,0,0,0,0,0,0,0,0,0,0,0,0,0,0,1,1,0,0,0,0,0,0
0.028,3.27671,0.09681,-0.00012,0.00059,0.00066,0.00073,0.00066,0.00078,0.00056,0.00105,0.00161,15.805560,10.785533,14.633062,10.686303,14.792132,9.198366,13.215549,8.981331,13.521142,8.178160,14.063541,8.024564,19.984067,8.419382,16.096144,6.871769,14.248645,3.869614,0,17.463506,5.910942,20.018427,4.626446,16.939046,5.210642,89.203835,92.047233,77.256117,126.210671,0,0,0,0,0,0,0,0,0,0,0,0,0,0,0,0,0,0,1,1,0,0,0,0,0,0
0.029,3.27656,0.09689,-0.00017,0.00061,0.00065,0.00077,0.00066,0.00081,0.00058,0.00105,0.00169,15.804854,10.787484,14.633719,10.687672,14.787644,9.199709,13.210430,8.990260,13.512113,8.180493,14.052764,8.025490,19.971786,8.420114,16.117780,6.876341,14.236836,3.863906,0,17.458777,5.908133,20.025781,4.625389,16.937395,5.218482,89.394455,92.003200,77.458156,125.941982,0,0,0,0,0,0,0,0,0,0,0,0,0,0,0,0,0,0,1,1,0,0,0,0,0,0
0.030,3.27696,0.09675,0.00013,0.00061,0.00066,0.00072,0.00064,0.00082,0.00057,0.00099,0.00181,15.803921,10.789029,14.633920,10.689380,14.783198,9.201261,13.205114,8.998961,13.503869,8.183032,14.041466,8.027202,19.966686,8.421102,16.137879,6.880270,14.224397,3.858964,0,17.454510,5.904886,20.031870,4.624128,16.936089,5.227117,89.559310,91.951949,77.662922,125.705732,0,0,0,0,0,0,0,0,0,0,0,0,0,0,0,0,0,0,1,1,0,0,0,0,0,0
0.031,3.27709,0.09665,0.00029,0.00063,0.00067,0.00072,0.00068,0.00081,0.00058,0.00093,0.00204,15.802727,10.790048,14.632869,10.691266,14.778933,9.202943,13.199691,9.006258,13.495232,8.185451,14.028909,8.029640,19.971562,8.423312,16.156411,6.884166,14.212924,3.856185,0,17.449627,5.900969,20.032119,4.620346,16.935056,5.235615,89.697287,91.889572,77.909689,125.480222,0,0,0,0,0,0,0,0,0,0,0,0,0,0,0,0,0,0,1,1,0,0,0,0,0,0
0.032,3.27673,0.09699,-0.00015,0.00061,0.00067,0.00075,0.00072,0.00070,0.00060,0.00085,0.00223,15.801292,10.790560,14.630272,10.693211,14.774974,9.204648,13.194286,9.011732,13.485455,8.187732,14.014885,8.032622,19.986525,8.426518,16.173436,6.887932,14.203252,3.856029,0,17.443471,5.896540,20.024988,4.613175,16.934092,5.243428,89.808995,91.812535,78.222052,125.247500,0,0,0,0,0,0,0,0,0,0,0,0,0,0,0,0,0,0,1,1,0,0,0,0,0,0
0.033,3.27679,0.09714,0.00000,0.00057,0.00068,0.00072,0.00068,0.00081,0.00061,0.00074,0.00217,15.799732,10.790817,14.626669,10.695168,14.771428,9.206226,13.189083,9.016226,13.474514,8.190375,14.000062,8.035758,20.007212,8.428504,16.189159,6.890295,14.194942,3.857391,0,17.436084,5.892413,20.013997,4.604160,16.932783,5.250644,89.897904,91.717933,78.597460,124.995859,0,0,0,0,0,0,0,0,0,0,0,0,0,0,0,0,0,0,1,1,0,0,0,0,0,0
0.034,3.27753,0.09690,0.00012,0.00055,0.00068,0.00073,0.00069,0.00090,0.00060,0.00067,0.00226,15.798173,10.791089,14.622678,10.697100,14.768400,9.207523,13.184273,9.020703,13.462448,8.193931,13.985194,8.038639,20.028836,8.426867,16.203802,6.889872,14.187438,3.859019,0,17.427575,5.889465,20.003143,4.595073,16.930691,5.257412,89.967761,91.602919,79.030884,124.714190,0,0,0,0,0,0,0,0,0,0,0,0,0,0,0,0,0,0,1,1,0,0,0,0,0,0
0.035,3.27789,0.09669,-0.00013,0.00054,0.00063,0.00071,0.00066,0.00091,0.00060,0.00062,0.00231,15.796738,10.791646,14.618916,10.698967,14.765993,9.208386,13.180043,9.026117,13.449302,8.198940,13.971025,8.040862,20.046640,8.419221,16.217583,6.885292,14.180183,3.859669,0,17.418053,5.888562,19.996391,4.587678,16.927389,5.263881,90.022347,91.464725,79.517139,124.391462,0,0,0,0,0,0,0,0,0,0,0,0,0,0,0,0,0,0,1,1,0,0,0,0,0,0
0.036,3.27745,0.09720,-0.00002,0.00053,0.00062,0.00072,0.00063,0.00090,0.00060,0.00056,0.00220,15.795552,10.792592,14.616007,10.700684,14.764221,9.208770,13.176505,9.032803,13.435263,8.205454,13.957741,8.042362,20.057931,8.404539,16.230577,6.876154,14.172890,3.858695,0,17.407556,5.889929,19.995054,4.582918,16.923086,5.270158,90.068177,91.306404,80.039532,124.022836,0,0,0,0,0,0,0,0,0,0,0,0,0,0,0,0,0,0,1,1,0,0,0,0,0,0
0.037,3.27709,0.09733,0.00004,0.00055,0.00058,0.00065,0.00060,0.00082,0.00064,0.00059,0.00217,15.794739,10.793755,14.614579,10.702092,14.762956,9.208811,13.173640,9.040053,13.420755,8.212702,13.944599,8.043639,20.063465,8.384063,16.242621,6.863679,14.165718,3.856452,0,17.396008,5.892721,19.996031,4.580372,16.919055,5.276289,90.116325,91.140712,80.562184,123.613786,0,0,0,0,0,0,0,0,0,0,0,0,0,0,0,0,0,0,1,1,0,0,0,0,0,0
0.038,3.27730,0.09709,0.00000,0.00057,0.00056,0.00059,0.00058,0.00081,0.00064,0.00061,0.00226,15.794424,10.794935,14.615262,10.703026,14.762055,9.208662,13.171418,9.047067,13.406225,8.219836,13.930764,8.045248,20.064326,8.359247,16.253530,6.849240,14.158867,3.853388,0,17.383323,5.895990,19.995800,4.579490,16.916666,5.282311,90.178300,90.981329,81.047392,123.170769,0,0,0,0,0,0,0,0,0,0,0,0,0,0,0,0,0,0,1,1,0,0,0,0,0,0
0.039,3.27770,0.09714,-0.00012,0.00057,0.00059,0.00058,0.00071,0.00082,0.00062,0.00060,0.00218,15.794729,10.795937,14.618675,10.703323,14.761372,9.208477,13.169807,9.053047,13.392124,8.226012,13.915419,8.047740,20.061586,8.331550,16.263128,6.834209,14.152534,3.849951,0,17.369416,5.898795,19.990863,4.579720,16.917278,5.288263,90.265547,90.841856,81.457823,122.700345,0,0,0,0,0,0,0,0,0,0,0,0,0,0,0,0,0,0,1,1,0,0,0,0,0,0
0.040,3.27784,0.09755,-0.00013,0.00060,0.00057,0.00059,0.00074,0.00088,0.00059,0.00061,0.00208,15.795692,10.796737,14.624716,10.703022,14.760801,9.208353,13.168718,9.057668,13.379003,8.230744,13.898984,8.051218,20.055528,8.302631,16.271889,6.819758,14.146688,3.846615,0,17.354467,5.900632,19.979473,4.580492,16.921183,5.294328,90.384989,90.730262,81.783107,122.216829,0,0,0,0,0,0,0,0,0,0,0,0,0,0,0,0,0,0,1,1,0,0,0,0,0,0
0.041,3.27737,0.09752,0.00027,0.00060,0.00059,0.00060,0.00074,0.00087,0.00059,0.00062,0.00201,15.797204,10.797597,14.632083,10.702500,14.760290,9.208304,13.167957,9.061389,13.367587,8.234141,13.883938,8.055051,20.045124,8.274483,16.281375,6.806729,14.140919,3.843890,0,17.339094,5.901731,19.962796,4.581201,16.926894,5.300925,90.536008,90.645122,82.057858,121.747469,0,0,0,0,0,0,0,0,0,0,0,0,0,0,0,0,0,0,1,1,0,0,0,0,0,0
0.042,3.27644,0.09735,0.00002,0.00059,0.00059,0.00059,0.00071,0.00094,0.00060,0.00063,0.00196,15.799145,10.798808,14.639359,10.702168,14.759792,9.208331,13.167324,9.064744,13.358615,8.236368,13.872958,8.058533,20.029217,8.249132,16.293248,6.795935,14.134783,3.842288,0,17.323958,5.902389,19.942277,4.581240,16.932757,5.308495,90.717270,90.584119,82.320953,121.320741,0,0,0,0,0,0,0,0,0,0,0,0,0,0,0,0,0,0,1,1,0,0,0,0,0,0
0.043,3.27607,0.09714,0.00002,0.00062,0.00057,0.00062,0.00073,0.00084,0.00058,0.00060,0.00200,15.801392,10.800655,14.645135,10.702432,14.759262,9.208438,13.166618,9.068266,13.352814,8.237595,13.868680,8.060969,20.006678,8.228588,16.309146,6.788175,14.127834,3.842317,0,17.309712,5.902904,19.919359,4.580012,16.937130,5.317470,90.927434,90.544980,82.611078,120.964830,0,0,0,0,0,0,0,0,0,0,0,0,0,0,0,0,0,0,1,1,0,0,0,0,0,0
0.044,3.27661,0.09740,0.00002,0.00065,0.00058,0.00061,0.00074,0.00075,0.00058,0.00058,0.00190,15.803785,10.803150,14.648825,10.703401,14.758649,9.208602,13.165730,9.072356,13.349762,8.238322,13.870974,8.062153,19.978218,8.213711,16.328738,6.783449,14.119712,3.843861,0,17.296639,5.903582,19.895425,4.577645,16.939239,5.327635,91.164748,90.528598,82.952740,120.686570,0,0,0,0,0,0,0,0,0,0,0,0,0,0,0,0,0,0,1,1,0,0,0,0,0,0
0.045,3.27729,0.09755,0.00002,0.00068,0.00062,0.00094,0.00078,0.00082,0.00058,0.00055,0.00183,15.806101,10.805845,14.651200,10.704693,14.757898,9.208760,13.164696,9.077197,13.347125,8.239597,13.875092,8.062700,19.947616,8.203447,16.348404,6.780419,14.110197,3.845772,0,17.284395,5.904740,19.871756,4.575477,16.939757,5.337696,91.426772,90.541147,83.346798,120.457187,0,0,0,0,0,0,0,0,0,0,0,0,0,0,0,0,0,0,1,1,0,0,0,0,0,0
0.046,3.27749,0.09739,0.00015,0.00069,0.00064,0.00100,0.00084,0.00089,0.00057,0.00054,0.00186,15.808111,10.808250,14.653163,10.705879,14.756950,9.208848,13.163568,9.082951,13.342387,8.242520,13.875846,8.063301,19.918945,8.196556,16.364218,6.777620,14.099082,3.846805,0,17.272580,5.906696,19.849624,4.574964,16.939498,5.346257,91.711003,90.589304,83.791866,120.244527,0,0,0,0,0,0,0,0,0,0,0,0,0,0,0,0,0,0,1,1,0,0,0,0,0,0
0.047,3.27710,0.09702,0.00013,0.00068,0.00069,0.00104,0.00086,0.00100,0.00058,0.00054,0.00196,15.809588,10.809877,14.655613,10.706533,14.755749,9.208799,13.162398,9.089773,13.333058,8.248176,13.868099,8.064644,19.896240,8.191808,16.372279,6.773604,14.086167,3.845730,0,17.260796,5.909762,19.830286,4.577541,16.939266,5.351932,92.014923,90.679683,84.286476,120.016577,0,0,0,0,0,0,0,0,0,0,0,0,0,0,0,0,0,0,1,1,0,0,0,0,0,0
0.048,3.27637,0.09723,0.00015,0.00065,0.00069,0.00107,0.00087,0.00102,0.00057,0.00052,0.00194,15.810519,10.810565,14.659085,10.706505,14.754269,9.208597,13.161185,9.097301,13.318569,8.256471,13.850242,8.066929,19.880972,8.188349,16.370876,6.768031,14.071813,3.842466,0,17.249015,5.913721,19.814026,4.583389,16.939415,5.354311,92.335079,90.814434,84.822936,119.751705,0,0,0,0,0,0,0,0,0,0,0,1,0,0,0,0,0,0,1,1,0,0,0,0,0,0
0.049,3.27605,0.09747,-0.00013,0.00063,0.00065,0.00106,0.00076,0.00099,0.00057,0.00049,0.00195,15.811243,10.810691,14.663513,10.706103,14.752541,9.208309,13.159845,9.104311,13.301551,8.265343,13.826553,8.069554,19.870332,8.185957,16.361945,6.762411,14.057318,3.838848,0,17.237825,5.917477,19.799496,4.590591,16.939537,5.354605,92.666458,90.988261,85.383179,119.445591,0,0,0,0,0,0,0,0,0,0,0,0,0,0,0,0,0,0,1,1,0,0,0,0,0,0
0.050,3.27644,0.09730,0.00002,0.00062,0.00069,0.00106,0.00073,0.00092,0.00058,0.00051,0.00190,15.812135,10.810688,14.668773,10.705680,14.750596,9.208011,13.158284,9.109497,13.284941,8.272546,13.801871,8.071836,19.861103,8.184472,16.347768,6.758429,14.044069,3.836893,0,17.227869,5.919849,19.785195,4.597034,16.939155,5.354178,93.003899,91.195160,85.948154,119.095556,0,0,0,0,0,0,0,0,0,0,0,0,0,0,0,0,0,0,1,1,0,0,0,0,0,0
0.051,3.27696,0.09693,0.00015,0.00060,0.00068,0.00106,0.00071,0.00094,0.00059,0.00049,0.00176,15.813567,10.810980,14.674740,10.705586,14.748470,9.207778,13.156409,9.111568,13.271649,8.275855,13.780999,8.073101,19.850096,8.183731,16.330624,6.757757,14.033438,3.838599,0,17.219785,5.919671,19.769638,4.600625,16.937796,5.354387,93.342217,91.429082,86.499026,118.699022,0,0,0,0,0,0,0,0,0,0,0,0,0,0,0,0,0,0,1,1,0,0,0,0,0,0
0.052,3.27722,0.09718,0.00000,0.00059,0.00069,0.00104,0.00068,0.00091,0.00058,0.00049,0.00163,15.815754,10.811722,14.681235,10.705957,14.746224,9.207652,13.154205,9.110327,13.262707,8.274606,13.766160,8.073047,19.835881,8.183515,16.312572,6.760993,14.025840,3.844371,0,17.213567,5.916700,19.752519,4.600978,16.935587,5.355922,93.674459,91.680691,87.033115,118.260723,0,0,0,0,0,0,0,0,0,0,0,0,0,0,0,0,0,0,1,1,0,0,0,0,0,0
0.053,3.27729,0.09739,0.00015,0.00060,0.00069,0.00104,0.00065,0.00101,0.00059,0.00050,0.00146,15.818648,10.812612,14.687988,10.706572,14.743964,9.207627,13.151786,9.107403,13.256021,8.270744,13.755276,8.072000,19.819968,8.183512,16.295308,6.766941,14.020087,3.851966,0,17.208135,5.912237,19.735494,4.600550,16.933643,5.358370,93.990726,91.935163,87.574683,117.797595,0,0,0,0,0,0,0,0,0,0,0,0,0,0,0,0,0,0,1,1,0,0,0,0,0,0
0.054,3.27728,0.09720,-0.00015,0.00060,0.00067,0.00103,0.00065,0.00102,0.00058,0.00049,0.00138,15.822174,10.813303,14.694721,10.707179,14.741800,9.207692,13.149279,9.104598,13.249196,8.266461,13.745861,8.070343,19.804146,8.183398,16.280490,6.774238,14.014839,3.858889,0,17.202309,5.907730,19.720406,4.602070,16.933177,5.361213,94.280840,92.177153,88.150547,117.327729,0,0,0,0,0,0,0,0,0,0,0,0,0,0,0,0,0,0,1,1,0,0,0,0,0,0
0.055,3.27730,0.09698,0.00012,0.00055,0.00065,0.00072,0.00058,0.00096,0.00057,0.00053,0.00127,15.826259,10.813456,14.701158,10.707525,14.739841,9.207832,13.146809,9.103700,13.239858,8.263934,13.735445,8.068460,19.790188,8.182854,16.269760,6.781523,14.008770,3.862664,0,17.194923,5.904617,19.709082,4.608235,16.935384,5.363933,94.534691,92.391382,88.787183,116.869178,0,0,0,0,0,0,0,0,0,0,0,0,0,0,0,0,0,0,1,1,0,0,0,0,0,0
0.056,3.27734,0.09705,-0.00002,0.00051,0.00064,0.00060,0.00055,0.00089,0.00058,0.00067,0.00124,15.830721,10.812964,14.707073,10.707528,14.738126,9.207986,13.144477,9.105431,13.227025,8.264201,13.722745,8.066604,19.778773,8.181766,16.263464,6.787723,14.001424,3.862255,0,17.185711,5.903689,19.702013,4.619531,16.940412,5.366252,94.747204,92.567226,89.486080,116.436989,0,0,0,0,0,0,0,0,0,0,0,0,0,0,0,0,0,0,1,1,0,0,0,0,0,0
0.057,3.27722,0.09711,0.00015,0.00050,0.00061,0.00059,0.00058,0.00081,0.00056,0.00074,0.00108,15.835202,10.812121,14.712334,10.707388,14.736574,9.208011,13.142348,9.108733,13.212039,8.266399,13.708458,8.064812,19.768747,8.180365,16.259780,6.792247,13.993796,3.859028,0,17.175914,5.904653,19.697466,4.632758,16.946656,5.368280,94.921704,92.701831,90.207045,116.041201,0,0,0,0,0,0,0,0,0,0,0,0,0,0,0,0,0,0,1,1,0,0,0,0,0,0
0.058,3.27690,0.09726,-0.00013,0.00049,0.00059,0.00059,0.00057,0.00076,0.00057,0.00084,0.00101,15.839329,10.811255,14.716818,10.707330,14.735095,9.207757,13.140479,9.112382,13.196463,8.269488,13.693471,8.063102,19.758785,8.178915,16.256684,6.794547,13.987021,3.854574,0,17.166919,5.907113,19.693497,4.644367,16.952346,5.370168,95.062313,92.793080,90.905934,115.691378,0,0,0,0,0,0,0,0,0,0,0,0,0,0,0,0,0,0,1,1,0,0,0,0,0,0
0.059,3.27660,0.09697,0.00000,0.00048,0.00060,0.00061,0.00058,0.00081,0.00058,0.00090,0.00094,15.842730,10.810692,14.720399,10.707578,14.733596,9.207074,13.138929,9.115161,13.181848,8.272431,13.678662,8.061490,19.747572,8.177677,16.252158,6.794087,13.982213,3.850480,0,17.160097,5.910671,19.688175,4.650838,16.955726,5.372064,95.173149,92.838929,91.538920,115.397530,0,0,0,0,0,0,0,0,0,0,0,0,0,0,0,0,0,0,1,1,0,0,0,0,0,0
0.060,3.27653,0.09675,-0.00013,0.00047,0.00063,0.00060,0.00062,0.00081,0.00055,0.00092,0.00092,15.845260,10.810521,14.723013,10.708098,14.732009,9.205940,13.137653,9.116588,13.169014,8.274642,13.664438,8.059998,19.734588,8.176746,16.244833,6.791129,13.978939,3.847929,0,17.155869,5.914708,19.680376,4.650961,16.956161,5.374026,95.257921,92.842719,92.085703,115.202686,0,0,0,0,0,0,0,0,0,0,0,0,0,0,0,0,0,0,1,1,0,0,0,0,0,0
0.061,3.27679,0.09709,0.00013,0.00049,0.00065,0.00059,0.00061,0.00078,0.00055,0.00092,0.00088,15.847146,10.810434,14.724688,10.708425,14.730301,9.204545,13.136434,9.117399,13.157551,8.276282,13.650417,8.058649,19.720640,8.175942,16.234420,6.787265,13.974192,3.847429,0,17.153072,5.918237,19.670327,4.647375,16.954882,5.375957,95.319662,92.816776,92.565220,115.204944,0,0,0,0,0,0,0,0,0,0,0,0,0,0,0,0,0,0,1,1,0,0,0,0,0,0
0.062,3.27725,0.09735,0.00002,0.00050,0.00075,0.00061,0.00066,0.00078,0.00054,0.00093,0.00089,15.848653,10.810087,14.725464,10.708056,14.728441,9.203100,13.135041,9.118446,13.146937,8.277587,13.636143,8.057470,19.706662,8.175056,16.220732,6.784212,13.964718,3.849422,0,17.150390,5.920236,19.658382,4.643085,16.953301,5.377750,95.361339,92.774276,93.000129,115.507623,0,0,0,0,0,0,0,0,0,0,0,0,0,0,0,0,0,0,1,1,0,0,0,0,0,0
0.063,3.27743,0.09722,0.00002,0.00050,0.00076,0.00061,0.00066,0.00067,0.00054,0.00096,0.00094,15.850048,10.809137,14.725381,10.706494,14.726400,9.201815,13.133242,9.120575,13.136651,8.278789,13.621155,8.056480,19.693585,8.173885,16.203590,6.783672,13.947302,3.854344,0,17.146520,5.919695,19.644903,4.641070,16.952817,5.379298,95.385903,92.728310,93.413031,116.213565,0,0,0,0,0,0,0,0,0,0,0,0,0,0,0,0,0,0,1,1,0,0,0,0,0,0
0.064,3.27718,0.09701,-0.00015,0.00051,0.00084,0.00062,0.00068,0.00067,0.00056,0.00097,0.00091,15.851648,10.807484,14.724710,10.703743,14.724210,9.200794,13.130959,9.124028,13.126375,8.280186,13.604762,8.055310,19.682101,8.172447,16.183535,6.786016,13.921492,3.861870,0,17.140909,5.916469,19.630666,4.642513,16.954046,5.380681,95.395055,92.685558,93.822053,117.390283,0,0,0,0,0,0,0,0,0,0,0,0,0,0,0,0,0,0,1,1,0,0,0,0,0,0
0.065,3.27693,0.09748,0.00025,0.00050,0.00095,0.00063,0.00071,0.00076,0.00057,0.00093,0.00092,15.853861,10.805428,14.724095,10.700651,14.722000,9.199968,13.128363,9.128050,13.116131,8.282179,13.585887,8.052941,19.672503,8.171138,16.162301,6.789404,13.891441,3.870413,0,17.134255,5.911860,19.617144,4.645600,16.956305,5.382289,95.388411,92.642013,94.237874,119.046367,0,0,0,0,0,0,0,0,0,0,0,0,0,0,0,0,0,0,1,1,0,0,0,0,0,0
0.066,3.27694,0.09763,0.00015,0.00051,0.00104,0.00066,0.00074,0.00079,0.00058,0.00083,0.00088,15.857102,10.803310,14.724221,10.698142,14.719909,9.199250,13.125648,9.131790,13.105973,8.285179,13.563415,8.048291,19.665050,8.170384,16.141738,6.791784,13.861743,3.878267,0,17.127376,5.907307,19.605874,4.648232,16.958786,5.384543,95.365389,92.592654,94.670464,121.184819,0,0,0,0,0,0,0,0,0,0,0,0,0,0,0,0,0,0,1,1,0,0,0,0,0,0
0.067,3.27698,0.09737,0.00002,0.00054,0.00104,0.00066,0.00070,0.00077,0.00056,0.00077,0.00092,15.861782,10.801463,14.725761,10.697134,14.718076,9.198554,13.123011,9.134404,13.095953,8.289595,13.536242,8.040295,19.659987,8.170612,16.123679,6.791121,13.836952,3.883740,0,17.121086,5.904237,19.598375,4.648326,16.960686,5.387857,95.325467,92.532523,95.129706,123.807459,0,0,0,0,0,0,0,0,0,0,0,0,0,0,0,0,0,0,1,1,0,0,0,0,0,0
0.068,3.27690,0.09750,-0.00013,0.00054,0.00105,0.00065,0.00069,0.00077,0.00054,0.00068,0.00099,15.867855,10.799923,14.728716,10.697829,14.716555,9.197828,13.120598,9.135730,13.086022,8.295588,13.504041,8.028889,19.656737,8.171903,16.108826,6.786630,13.819008,3.886262,0,17.115865,5.903228,19.594690,4.644949,16.961679,5.392207,95.272472,92.461431,95.618991,126.829075,0,0,0,0,0,0,0,0,0,0,0,0,0,0,0,0,0,0,1,1,0,0,0,0,0,0
0.069,3.27680,0.09795,-0.00012,0.00057,0.00105,0.00066,0.00071,0.00072,0.00054,0.00063,0.00105,15.874518,10.798228,14.731966,10.699246,14.715257,9.197070,13.118485,9.136736,13.075963,8.302913,13.467778,8.015688,19.653347,8.173774,16.095994,6.779607,13.805481,3.887134,0,17.111640,5.903444,19.592404,4.639087,16.962230,5.396834,95.217495,92.387136,96.130883,130.019291,0,0,0,0,0,0,0,0,0,0,0,0,0,0,1,0,0,0,1,1,0,0,0,0,0,0
0.070,3.27676,0.09787,-0.00013,0.00058,0.00107,0.00067,0.00071,0.00082,0.00057,0.00060,0.00111,15.880893,10.795868,14.734286,10.700292,14.714082,9.196286,13.116736,9.138499,13.065543,8.311283,13.428544,8.002465,19.647738,8.175685,16.083818,6.771544,13.793529,3.887834,0,17.108282,5.903916,19.588867,4.631907,16.962881,5.400911,95.172310,92.318152,96.656922,133.133965,0,0,0,0,0,0,0,0,0,0,0,0,0,0,0,0,0,0,1,1,0,0,0,0,0,0
0.071,3.27688,0.09773,-0.00017,0.00064,0.00126,0.00109,0.00072,0.00089,0.00059,0.00060,0.00115,15.886115,10.792337,14.734461,10.699881,14.712929,9.195480,13.115416,9.142084,13.054533,8.320413,13.387435,7.990983,19.637849,8.177099,16.070943,6.763932,13.780331,3.889829,0,17.105667,5.903683,19.581454,4.624573,16.964168,5.403621,95.148609,92.262957,97.188653,135.929909,0,0,0,0,0,0,0,0,0,0,0,0,0,0,0,0,0,0,1,1,0,0,0,0,0,0
0.072,3.27709,0.09782,0.00000,0.00071,0.00119,0.00122,0.00071,0.00095,0.00057,0.00062,0.00114,15.889934,10.787601,14.732310,10.697705,14.711703,9.194670,13.114477,9.147761,13.042922,8.330030,13.346029,7.982221,19.623267,8.177654,16.056725,6.757959,13.764717,3.893711,0,17.103713,5.902604,19.569328,4.617897,16.966331,5.404787,95.151837,92.227411,97.718331,138.234570,0,0,0,0,0,0,0,0,0,0,0,0,0,0,0,0,0,0,1,1,0,0,0,0,0,0
0.073,3.27709,0.09806,-0.00013,0.00072,0.00124,0.00120,0.00070,0.00099,0.00055,0.00061,0.00118,15.893135,10.782405,14.729368,10.694742,14.710316,9.193899,13.113682,9.154469,13.031070,8.339885,13.306706,7.975852,19.606320,8.177273,16.041696,6.754308,13.748270,3.898609,0,17.102417,5.901897,19.554635,4.612106,16.969117,5.405305,95.177023,92.213010,98.239384,139.993193,0,0,0,0,0,0,0,0,0,0,0,0,0,0,0,0,0,0,1,1,0,0,0,0,0,0
0.074,3.27686,0.09806,0.00002,0.00070,0.00120,0.00120,0.00076,0.00097,0.00058,0.00061,0.00123,15.896599,10.777570,14.727332,10.692095,14.708682,9.193208,13.112777,9.161024,13.019371,8.349728,13.271922,7.971427,19.589598,8.175910,16.026505,6.753615,13.732833,3.903517,0,17.101780,5.902911,19.539801,4.607370,16.972225,5.406173,95.218206,92.220834,98.745354,141.162199,0,0,0,0,0,0,0,0,0,0,0,0,0,0,0,0,0,0,1,1,0,0,0,0,0,0
0.075,3.27689,0.09790,-0.00012,0.00076,0.00111,0.00120,0.00073,0.00086,0.00058,0.00061,0.00124,15.901200,10.773907,14.727884,10.690858,14.706717,9.192642,13.111511,9.166249,13.008213,8.359311,13.244114,7.968494,19.575670,8.173518,16.011800,6.756506,13.720236,3.907432,0,17.101827,5.906990,19.527238,4.603864,16.975357,5.408382,95.269452,92.251959,99.229834,141.699022,0,0,0,0,0,0,0,0,0,0,0,0,0,0,0,0,0,0,1,1,0,0,0,0,0,0
0.076,3.27731,0.09791,-0.00015,0.00078,0.00104,0.00121,0.00069,0.00097,0.00059,0.00058,0.00128,15.907193,10.771651,14.731537,10.691370,14.704407,9.192189,13.109749,9.169609,12.997743,8.368199,13.224265,7.966614,19.565743,8.170174,15.998352,6.762709,13.711209,3.909686,0,17.104043,5.915158,19.518256,4.601900,16.978329,5.412331,95.326772,92.307072,99.690318,141.635882,0,0,0,0,0,0,0,0,0,0,0,0,0,0,0,0,0,0,1,1,0,0,0,0,0,0
0.077,3.27765,0.09828,0.00013,0.00078,0.00106,0.00121,0.00067,0.00098,0.00062,0.00061,0.00125,15.913800,10.770073,14.736857,10.692720,14.701858,9.191755,13.107559,9.171640,12.987698,8.375656,13.210928,7.965360,19.558748,8.166159,15.987134,6.770460,13.704652,3.910171,0,17.112355,5.927904,19.512319,4.602026,16.981155,5.417441,95.389419,92.386215,100.130805,141.129739,0,0,0,0,0,0,0,0,0,0,0,0,0,0,0,0,0,0,1,1,0,0,0,0,0,0
0.078,3.27770,0.09838,0.00002,0.00082,0.00107,0.00121,0.00068,0.00097,0.00064,0.00061,0.00118,15.920145,10.768352,14.742223,10.693875,14.699188,9.191234,13.105026,9.172980,12.977777,8.380917,13.202428,7.964311,19.553399,8.161772,15.979140,6.777855,13.699293,3.908833,0,17.130919,5.945665,19.508719,4.604811,16.983865,5.423039,95.456953,92.489364,100.555911,140.349379,0,0,0,0,0,0,0,0,0,0,0,0,0,0,0,0,0,0,1,1,0,0,0,0,0,0
0.079,3.27780,0.09807,0.00002,0.00083,0.00169,0.00160,0.00064,0.00095,0.00065,0.00061,0.00121,15.925361,10.765675,14.746031,10.693814,14.696515,9.190523,13.102235,9.174262,12.967681,8.383226,13.197091,7.963047,19.548416,8.157315,15.975350,6.783002,13.693868,3.905626,0,17.163784,5.968833,19.506741,4.610808,16.986488,5.428453,95.528921,92.616482,100.970321,139.463103,0,0,0,0,0,0,0,0,0,0,0,0,0,0,0,0,0,0,1,1,0,0,0,0,0,0
0.080,3.27813,0.09814,-0.00012,0.00089,0.00215,0.00172,0.00067,0.00085,0.00066,0.00063,0.00115,15.929121,10.761714,14.747736,10.692168,14.693902,9.189615,13.099290,9.175849,12.957326,8.382563,13.193441,7.961420,19.542835,8.153199,15.975658,6.785162,13.687784,3.901182,0,17.206807,5.994413,19.505348,4.619407,16.989017,5.433079,95.603875,92.766291,101.383865,138.603082,0,0,0,0,0,0,0,0,0,0,0,0,0,0,0,0,0,0,1,1,0,0,0,0,0,0
0.081,3.27841,0.09851,0.00015,0.00084,0.00220,0.00129,0.00065,0.00087,0.00064,0.00062,0.00108,15.931999,10.756958,14.748565,10.689660,14.691328,9.188663,13.096327,9.177653,12.946991,8.380138,13.190324,7.959740,19.536228,8.150021,15.978154,6.785507,13.681569,3.897258,0,17.242188,6.013759,19.502960,4.628062,16.991380,5.436434,95.678706,92.935441,101.814953,137.841240,0,0,0,0,0,0,0,0,0,0,0,0,0,0,0,0,0,0,1,1,0,0,0,0,0,0
0.082,3.27842,0.09843,0.00002,0.00076,0.00223,0.00114,0.00065,0.00081,0.00066,0.00060,0.00110,15.934658,10.751968,14.749912,10.687117,14.688761,9.187833,13.093484,9.179541,12.936985,8.377276,13.186617,7.958357,19.528215,8.148393,15.980755,6.785394,13.675860,3.895723,0,17.250831,6.017689,19.497944,4.634041,16.993502,5.438046,95.750145,93.120389,102.282808,137.243783,0,0,0,0,0,0,0,0,0,0,0,0,0,0,0,0,0,0,1,1,0,0,0,0,0,0
0.083,3.27804,0.09803,0.00004,0.00076,0.00216,0.00113,0.00065,0.00076,0.00067,0.00057,0.00108,15.937753,10.747305,14.753160,10.685358,14.686171,9.187294,13.090898,9.181382,12.927615,8.375299,13.181204,7.957620,19.518423,8.148919,15.981390,6.786167,13.671279,3.898420,0,17.214077,5.997256,19.488686,4.634642,16.995306,5.437453,95.814911,93.317527,102.806513,136.876067,0,0,0,0,0,0,0,0,0,0,0,0,0,0,0,0,0,0,1,1,0,0,0,0,0,0
0.084,3.27736,0.09827,-0.00002,0.00083,0.00214,0.00113,0.00061,0.00077,0.00064,0.00061,0.00109,15.941477,10.743126,14.758817,10.684730,14.683538,9.187082,13.088586,9.183180,12.918902,8.375281,13.173417,7.957655,19.506894,8.151521,15.978733,6.788344,13.667555,3.905657,0,17.145575,5.960809,19.474755,4.629307,16.996836,5.435052,95.868643,93.518714,103.394719,136.740725,0,0,0,0,0,0,0,0,0,0,0,0,0,0,0,0,0,0,1,1,0,0,0,0,0,0
0.085,3.27689,0.09850,-0.00013,0.00111,0.00212,0.00115,0.00064,0.00078,0.00065,0.00073,0.00108,15.945257,10.738923,14.765940,10.684789,14.680856,9.187026,13.086371,9.185161,12.910392,8.377889,13.163332,7.958221,19.494368,8.154986,15.972704,6.791069,13.662925,3.915170,0,17.112852,5.945541,19.457701,4.621058,16.998335,5.432674,95.905184,93.708239,104.038680,136.735774,0,0,0,0,0,0,0,0,0,0,0,0,0,0,0,0,0,0,1,1,0,0,0,0,0,0
0.086,3.27681,0.09827,0.00002,0.00120,0.00234,0.00115,0.00065,0.00062,0.00064,0.00084,0.00112,15.948447,10.734125,14.773443,10.685016,14.678122,9.186932,13.084056,9.187573,12.901583,8.383748,13.151094,7.959041,19.481650,8.157991,15.963343,6.793354,13.655483,3.924456,0,17.188545,5.991385,19.439257,4.613257,17.000062,5.432285,95.918204,93.869675,104.728000,136.749308,0,0,0,0,0,0,0,0,0,0,0,0,0,0,0,0,0,0,1,1,0,0,0,0,0,0
0.087,3.27681,0.09798,0.00013,0.00132,0.00281,0.00117,0.00066,0.00061,0.00063,0.00081,0.00114,15.950406,10.728168,14.780250,10.684894,14.675335,9.186608,13.081443,9.190661,12.891979,8.393472,13.136858,7.959840,19.469537,8.159226,15.950695,6.794219,13.643348,3.931031,0,17.444257,6.137686,19.421153,4.609236,17.002277,5.435833,95.901474,93.986726,105.452198,136.670031,0,0,0,0,0,0,0,0,0,0,0,0,0,0,0,0,0,0,1,1,0,0,0,0,0,0
0.088,3.27666,0.09831,0.00023,0.00134,0.00325,0.00116,0.00064,0.00063,0.00062,0.00080,0.00117,15.950980,10.720968,14.785828,10.684149,14.672584,9.185994,13.078480,9.194529,12.881364,8.406844,13.121147,7.960584,19.458317,8.158199,15.935255,6.793274,13.626244,3.934002,0,17.875269,6.380758,19.404551,4.610262,17.005042,5.443889,95.856213,94.052894,106.194691,136.431741,0,0,0,0,0,0,0,0,0,0,0,0,0,0,0,0,0,0,1,1,0,0,0,0,0,0
0.089,3.27647,0.09834,0.00015,0.00143,0.00294,0.00084,0.00065,0.00064,0.00062,0.00098,0.00113,15.950821,10.713249,14.790550,10.682906,14.670104,9.185249,13.075342,9.199042,12.869991,8.422259,13.105110,7.961636,19.447424,8.155782,15.918270,6.791115,13.606580,3.935128,0,18.349565,6.645135,19.389670,4.614149,17.008091,5.454734,95.796060,94.078020,106.928708,136.043435,0,0,0,0,0,0,0,0,0,0,0,0,0,0,0,0,0,0,1,1,0,0,0,0,0,0
0.090,3.27643,0.09828,0.00013,0.00170,0.00241,0.00063,0.00061,0.00062,0.00062,0.00113,0.00116,15.950659,10.705807,14.794875,10.681329,14.668150,9.184549,13.072230,9.204044,12.858157,8.437983,13.089954,7.963398,19.436211,8.152975,15.901058,6.788430,13.587018,3.936420,0,18.723056,6.848544,19.376641,4.618386,17.011131,5.466432,95.735829,94.073495,107.626514,135.521248,0,0,0,0,0,0,0,0,0,0,0,0,0,0,0,0,0,0,1,1,0,0,0,0,0,0
0.091,3.27687,0.09800,-0.00025,0.00237,0.00233,0.00063,0.00061,0.00057,0.00060,0.00114,0.00116,15.951223,10.699437,14.799260,10.679583,14.666969,9.184075,13.069344,9.209380,12.846162,8.452294,13.076879,7.966269,19.424038,8.150776,15.884926,6.785904,13.570202,3.939866,0,18.853005,6.909500,19.365587,4.620482,17.013867,5.477060,95.690235,94.050667,108.260482,134.881353,0,0,0,0,0,0,0,0,0,0,0,0,0,0,0,0,0,0,1,1,0,0,0,0,0,0
0.092,3.27765,0.09813,0.00002,0.00253,0.00260,0.00064,0.00055,0.00056,0.00059,0.00116,0.00120,15.952993,10.694524,14.803954,10.677856,14.666665,9.183941,13.066921,9.214933,12.834448,8.464541,13.066642,7.970524,19.410676,8.149753,15.870507,6.783901,13.557322,3.945778,0,18.696386,6.804561,19.356217,4.619477,17.016167,5.485693,95.666358,94.017845,108.810789,134.142877,0,0,0,0,0,0,0,0,0,0,0,0,0,0,0,0,0,0,1,1,0,0,0,0,0,0
0.093,3.27783,0.09836,-0.00017,0.00253,0.00269,0.00064,0.00057,0.00056,0.00059,0.00116,0.00123,15.956045,10.690774,14.808860,10.676376,14.667087,9.184160,13.065261,9.220657,12.823704,8.475866,13.059252,7.976234,19.396585,8.149760,15.857302,6.782253,13.547144,3.951672,0,18.376481,6.607099,19.347537,4.616958,17.018164,5.493080,95.658556,93.978262,109.270634,133.329873,0,0,0,0,0,0,0,0,0,0,0,0,0,0,0,0,0,0,1,1,0,0,0,0,0,0
0.094,3.27714,0.09826,0.00002,0.00251,0.00270,0.00066,0.00054,0.00055,0.00059,0.00111,0.00129,15.960414,10.687829,14.813850,10.675375,14.668064,9.184738,13.064669,9.226509,12.814638,8.487576,13.054651,7.983449,19.382289,8.150588,15.844706,6.780740,13.538204,3.954800,0,18.032347,6.399667,19.338489,4.614755,17.020015,5.500126,95.659976,93.934669,109.634453,132.466865,0,0,0,0,0,0,0,0,0,0,0,0,0,0,0,0,0,0,1,1,0,0,0,0,0,0
0.095,3.27659,0.09785,-0.00012,0.00221,0.00270,0.00064,0.00051,0.00053,0.00058,0.00099,0.00173,15.966136,10.685334,14.818795,10.675082,14.669426,9.185677,13.065443,9.232447,12.807952,8.500965,13.052776,7.992215,19.368308,8.152023,15.832117,6.779147,13.529052,3.952443,0,17.802057,6.264213,19.328027,4.614685,17.021880,5.507729,95.663781,93.889743,109.896815,131.578252,0,0,0,0,0,0,0,0,0,0,0,0,0,0,0,0,0,0,1,1,0,0,0,0,0,0
0.096,3.27664,0.09788,0.00012,0.00207,0.00257,0.00063,0.00047,0.00055,0.00055,0.00089,0.00186,15.973017,10.683049,14.823598,10.675565,14.671057,9.186955,13.067546,9.238421,12.803820,8.516173,13.053402,8.002478,19.354811,8.153837,15.819321,6.777553,13.519026,3.944081,0,17.751174,6.238100,19.315845,4.617427,17.023805,5.516300,95.664192,93.840595,110.062100,130.679585,0,0,0,0,0,0,0,0,0,0,0,0,0,0,0,0,0,0,1,1,0,0,0,0,0,0
0.097,3.27662,0.09808,0.00000,0.00196,0.00209,0.00061,0.00047,0.00054,0.00054,0.00091,0.00187,15.980495,10.680929,14.828218,10.676618,14.672932,9.188506,13.070370,9.244364,12.801533,8.531420,13.056026,8.014003,19.341385,8.155775,15.806743,6.776529,13.508789,3.932869,0,17.824325,6.284322,19.302875,4.621772,17.025659,5.525432,95.657192,93.775052,110.151062,129.771653,0,0,0,0,0,0,0,0,0,0,0,0,0,0,0,0,0,0,1,1,0,0,0,0,0,0
0.098,3.27624,0.09795,0.00002,0.00192,0.00157,0.00066,0.00047,0.00052,0.00057,0.00088,0.00194,15.987969,10.678947,14.832618,10.678008,14.675037,9.190260,13.073255,9.250206,12.800298,8.544740,13.060121,8.026544,19.327559,8.157576,15.794869,6.776690,13.499128,3.922305,0,17.954666,6.358821,19.290170,4.626329,17.027292,5.534643,95.638935,93.680060,110.186002,128.853844,0,0,0,0,0,0,0,0,0,0,0,0,0,0,0,0,0,0,1,1,0,0,0,0,0,0
0.099,3.27607,0.09750,0.00027,0.00184,0.00138,0.00065,0.00047,0.00051,0.00054,0.00071,0.00193,15.994844,10.677079,14.836761,10.679507,14.677358,9.192148,13.075548,9.255882,12.799325,8.554187,13.065157,8.039847,19.312874,8.158984,15.784181,6.778642,13.490827,3.915862,0,18.075755,6.417822,19.278771,4.629717,17.028554,5.543452,95.605565,93.542667,110.189273,127.925531,0,0,0,0,0,0,0,0,0,0,0,0,0,0,0,0,0,0,1,1,0,0,0,0,0,0
0.100,3.27638,0.09756,0.00002,0.00152,0.00128,0.00067,0.00048,0.00052,0.00053,0.00054,0.00191,16.000795,10.675408,14.840651,10.680996,14.679969,9.194082,13.077049,9.261381,12.798016,8.559090,13.070444,8.053474,19.297487,8.159835,15.774712,6.782196,13.484331,3.914834,0,18.150822,6.438381,19.269105,4.631166,17.029395,5.551603,95.552828,93.357321,110.186752,126.985084,0,0,0,0,0,0,0,0,0,0,0,0,0,0,0,0,0,0,1,1,0,0,0,0,0,0
0.101,3.27677,0.09778,0.00017,0.00081,0.00105,0.00069,0.00051,0.00051,0.00055,0.00055,0.00188,16.005952,10.674199,14.844353,10.682548,14.683091,9.195941,13.078314,9.266791,12.796095,8.560908,13.075027,8.066676,19.282597,8.160125,15.765754,6.785837,13.479525,3.916887,0,18.192589,6.432301,19.260568,4.630930,17.029924,5.559216,95.475801,93.130818,110.210198,126.029198,0,0,0,0,0,0,0,0,0,0,0,0,0,0,0,0,0,0,1,1,0,0,0,0,0,0
0.102,3.27701,0.09754,-0.00017,0.00060,0.00071,0.00068,0.00055,0.00051,0.00055,0.00051,0.00184,16.010486,10.673734,14.847941,10.684251,14.686959,9.197603,13.079972,9.272210,12.793314,8.561298,13.077926,8.078674,19.269497,8.159864,15.756524,6.787926,13.476238,3.919344,0,18.218468,6.414679,19.252459,4.629359,17.030268,5.566443,95.369496,92.871124,110.291926,125.054410,0,0,0,0,0,0,0,0,0,0,0,0,0,0,0,0,0,0,1,1,0,0,0,0,0,0
0.103,3.27718,0.09724,0.00012,0.00058,0.00061,0.00069,0.00057,0.00057,0.00057,0.00050,0.00186,16.014569,10.674289,14.851489,10.686192,14.691806,9.198948,13.082648,9.277737,12.789431,8.561909,13.078171,8.088694,19.259465,8.159063,15.746250,6.786838,13.474298,3.919547,0,18.245771,6.400521,19.244082,4.626805,17.030552,5.573438,95.229038,92.586235,110.464027,124.057362,0,0,0,0,0,0,0,0,0,0,0,0,0,0,0,0,0,0,1,1,0,0,0,0,0,0
0.104,3.27731,0.09688,0.00013,0.00060,0.00065,0.00071,0.00060,0.00064,0.00055,0.00053,0.00181,16.018389,10.675790,14.855030,10.688326,14.697682,9.199933,13.086711,9.283619,12.784505,8.563591,13.075687,8.096465,19.252633,8.157764,15.734726,6.782132,13.473289,3.916386,0,18.284350,6.397923,19.234987,4.623775,17.030906,5.580383,95.057639,92.286413,110.741929,123.042572,0,0,0,0,0,0,0,0,0,0,0,0,0,0,0,0,0,0,1,1,0,0,0,0,0,0
0.105,3.27723,0.09688,0.00002,0.00057,0.00067,0.00068,0.00057,0.00066,0.00055,0.00054,0.00134,16.022154,10.677575,14.858531,10.690387,14.704327,9.200651,13.092107,9.290349,12.779094,8.565860,13.071886,8.102552,19.247217,8.156067,15.722688,6.775341,13.472386,3.911329,0,18.331607,6.403461,19.225140,4.621031,17.031464,5.587504,94.872009,91.985695,111.113273,122.027689,0,0,0,0,0,0,0,0,0,0,0,0,0,0,0,0,0,0,1,1,0,0,0,0,0,0
0.106,3.27696,0.09693,0.00002,0.00057,0.00062,0.00066,0.00056,0.00067,0.00058,0.00053,0.00117,16.026079,10.678924,14.861955,10.692089,14.711456,9.201207,13.098741,9.298443,12.773808,8.568105,13.068321,8.107600,19.241252,8.154075,15.710963,6.768187,13.470727,3.906090,0,18.383764,6.412621,19.214547,4.619361,17.032363,5.595030,94.690137,91.698475,111.563063,121.031610,0,0,0,0,0,0,0,0,0,0,0,0,0,0,0,0,0,0,1,1,0,0,0,0,0,0
0.107,3.27681,0.09677,0.00000,0.00053,0.00065,0.00066,0.00059,0.00068,0.00055,0.00050,0.00115,16.030374,10.679127,14.865266,10.693146,14.718781,9.201706,13.106515,9.308409,12.769248,8.569720,13.066532,8.112244,19.232792,8.151895,15.700368,6.762378,13.467457,3.902371,0,18.437057,6.420911,19.203212,4.619543,17.033737,5.603190,94.529855,91.438971,112.076264,120.073252,0,0,0,0,0,0,0,0,0,0,0,0,0,0,0,0,0,0,1,1,0,0,0,0,0,0
0.108,3.27690,0.09629,0.00002,0.00054,0.00065,0.00062,0.00060,0.00067,0.00053,0.00050,0.00107,16.035111,10.678033,14.868594,10.693516,14.726188,9.202186,13.115182,9.320118,12.765632,8.570463,13.067042,8.116622,19.221354,8.149805,15.690978,6.758756,13.462201,3.900974,0,18.488565,6.425780,19.191190,4.621583,17.035694,5.611979,94.397392,91.208182,112.634920,119.173116,0,0,0,0,0,0,0,0,0,0,0,0,0,0,0,0,0,0,1,1,0,0,0,0,0,0
0.109,3.27699,0.09599,0.00017,0.00058,0.00066,0.00060,0.00059,0.00069,0.00052,0.00053,0.00106,16.040131,10.676424,14.872348,10.693547,14.733840,9.202579,13.124246,9.332375,12.762540,8.570697,13.068680,8.120032,19.208886,8.148375,15.681634,6.756718,13.455391,3.901205,0,18.536776,6.427907,19.178616,4.624203,17.038291,5.621013,94.279632,90.985063,113.216206,118.354342,0,0,0,0,0,0,0,0,0,0,0,0,0,0,0,0,0,0,1,1,0,0,0,0,0,0
0.110,3.27700,0.09628,0.00017,0.00077,0.00069,0.00056,0.00057,0.00068,0.00052,0.00056,0.00110,16.045254,10.675168,14.876962,10.693630,14.741926,9.202805,13.133188,9.343884,12.759488,8.570840,13.070114,8.121693,19.197573,8.148198,15.671059,6.755521,13.447532,3.902228,0,18.580313,6.428277,19.165634,4.626003,17.041584,5.629869,94.161620,90.746480,113.796834,117.640321,0,0,0,0,0,0,0,0,0,0,0,0,0,0,0,0,0,0,1,1,0,0,0,0,0,0
0.111,3.27725,0.09619,0.00015,0.00098,0.00083,0.00055,0.00053,0.00069,0.00054,0.00063,0.00126,16.050298,10.675127,14.882865,10.694149,14.750636,9.202787,13.141494,9.353358,12.755998,8.571308,13.070020,8.120835,19.189577,8.149862,15.657989,6.754430,13.439129,3.903208,0,18.617815,6.427872,19.152387,4.625595,17.045620,5.638128,94.028419,90.469426,114.353747,117.054149,0,0,0,0,0,0,0,0,0,0,0,0,0,0,0,0,0,0,1,1,0,0,0,0,0,0
0.112,3.27772,0.09594,0.00000,0.00175,0.00119,0.00056,0.00051,0.00069,0.00055,0.00073,0.00135,16.055021,10.676580,14.890022,10.695191,14.760100,9.202508,13.149105,9.360014,12.751868,8.572186,13.067712,8.117376,19.185714,8.153220,15.642019,6.753015,13.430478,3.903496,0,18.649047,6.427372,19.139061,4.622520,17.050036,5.645648,93.866279,90.140406,114.880843,116.597329,0,0,0,0,0,0,0,0,0,0,0,0,0,0,0,0,0,0,1,1,0,0,0,0,0,0
0.113,3.27787,0.09564,0.00013,0.00236,0.00124,0.00055,0.00051,0.00067,0.00056,0.00107,0.00134,16.059079,10.678832,14.897632,10.696344,14.770352,9.202060,13.156716,9.363911,12.747353,8.573006,13.063562,8.112386,19.184552,8.156905,15.624180,6.751357,13.421529,3.902755,0,18.675659,6.426951,19.125913,4.617861,17.053782,5.652748,93.663434,89.761782,115.400301,116.235343,0,0,0,0,0,0,0,0,0,0,0,0,0,0,0,0,0,0,1,1,0,0,0,0,0,0
0.114,3.27747,0.09562,0.00013,0.00365,0.00130,0.00053,0.00050,0.00059,0.00054,0.00163,0.00153,16.062117,10.681096,14.904819,10.697149,14.781415,9.201543,13.165093,9.365192,12.742755,8.573249,13.058045,8.107042,19.184445,8.159435,15.605639,6.749589,13.412199,3.900674,0,18.699479,6.426737,19.113205,4.612852,17.055741,5.659790,93.408304,89.337422,115.936979,115.930256,0,0,0,0,0,0,0,0,0,0,0,0,0,0,0,0,0,0,1,1,0,0,0,0,0,0
0.115,3.27703,0.09574,-0.00002,0.00405,0.00128,0.00055,0.00056,0.00060,0.00055,0.00195,0.00186,16.063788,10.682591,14.910715,10.697152,14.793310,9.201057,13.174997,9.363999,12.738372,8.572403,13.051632,8.102517,19.183742,8.159342,15.587559,6.747841,13.402409,3.896954,0,18.722324,6.426856,19.101196,4.608716,17.054810,5.667130,93.089423,88.871208,116.515550,115.644252,0,0,0,0,0,0,0,0,0,0,0,0,0,0,0,0,0,0,1,1,0,0,0,0,0,0
0.116,3.27690,0.09590,-0.00002,0.00445,0.00141,0.00056,0.00057,0.00057,0.00053,0.00211,0.00224,16.064113,10.683044,14.915044,10.696287,14.806029,9.200708,13.186687,9.360687,12.734383,8.570422,13.044629,8.099471,19.180431,8.156281,15.570832,6.746267,13.392287,3.891924,0,18.745189,6.427356,19.089760,4.606144,17.050921,5.674582,92.703714,88.368004,117.146718,115.348150,0,0,0,0,0,0,0,0,0,0,0,0,0,0,0,0,0,0,1,1,0,0,0,0,0,0
0.117,3.27704,0.09572,0.00013,0.00506,0.00144,0.00055,0.00055,0.00058,0.00055,0.00221,0.00290,16.063730,10.683023,14.918509,10.695131,14.819508,9.200610,13.199586,9.355965,12.730762,8.568039,13.037065,8.097713,19.171898,8.151778,15.555900,6.745054,13.382312,3.886965,0,18.767700,6.428159,19.078132,4.604934,17.045732,5.681056,92.262087,87.834313,117.817895,115.027173,0,0,0,0,0,0,0,0,0,0,0,0,0,0,0,0,0,0,1,1,0,0,0,0,0,0
0.118,3.27727,0.09538,0.00004,0.00547,0.00162,0.00059,0.00056,0.00059,0.00057,0.00234,0.00320,16.063335,10.683180,14.921909,10.694325,14.833678,9.200878,13.213040,9.350574,12.727468,8.566060,13.028941,8.096970,19.155471,8.147534,15.543162,6.744393,13.372993,3.883558,0,18.789353,6.429173,19.065489,4.604799,17.041065,5.685376,91.776780,87.276792,118.514283,114.667915,0,0,0,0,0,0,0,0,0,0,0,0,0,0,0,0,0,0,1,1,0,0,0,0,0,0
0.119,3.27721,0.09562,0.00004,0.00743,0.00173,0.00059,0.00058,0.00060,0.00062,0.00262,0.00353,16.063619,10.684161,14.926034,10.694504,14.848473,9.201625,13.226397,9.345249,12.724457,8.565284,13.020266,8.096968,19.128516,8.145240,15.533011,6.744476,13.364838,3.883170,0,18.809649,6.430306,19.051017,4.605450,17.038725,5.686386,91.260031,86.702201,119.221116,114.257380,0,0,0,0,0,0,0,0,0,0,0,0,0,0,0,0,0,0,1,1,0,0,0,0,0,0
0.120,3.27683,0.09595,0.00000,0.00818,0.00186,0.00063,0.00060,0.00060,0.00073,0.00371,0.00390,16.064895,10.686326,14.931204,10.695919,14.863942,9.202939,13.239438,9.340404,12.721733,8.565827,13.011469,8.097304,19.091227,8.145570,15.525391,6.745512,13.358141,3.886237,0,18.828494,6.431596,19.034658,4.606390,17.039450,5.684194,90.724074,86.124813,119.925907,113.813236,0,0,0,0,0,0,0,0,0,0,0,0,0,0,0,0,0,0,1,1,0,0,0,0,0,0
0.121,3.27669,0.09599,-0.00002,0.00818,0.00184,0.00064,0.00061,0.00063,0.00078,0.00499,0.00442,16.066845,10.689561,14.936953,10.698192,14.880334,9.204858,13.252660,9.335910,12.719377,8.566675,13.003681,8.097357,19.048511,8.147504,15.519504,6.747738,13.352839,3.891471,0,18.846469,6.433293,19.017621,4.606781,17.042193,5.681022,90.181138,85.571424,120.619971,113.404286,0,0,0,0,0,0,0,0,0,0,0,0,0,0,0,0,0,0,1,1,0,0,0,0,0,0
0.122,3.27699,0.09563,0.00015,0.00855,0.00161,0.00066,0.00059,0.00065,0.00103,0.00550,0.00462,16.069087,10.693705,14.942738,10.700881,14.897915,9.207417,13.266626,9.331588,12.717477,8.566703,12.998099,8.096485,19.005724,8.149864,15.514478,6.751397,13.348833,3.897422,0,18.864219,6.435665,19.001233,4.605751,17.045739,5.679291,89.643452,85.070021,121.294983,113.104186,0,0,0,0,0,0,0,0,0,0,0,0,0,0,0,0,0,0,1,1,0,0,0,0,0,0
0.123,3.27711,0.09586,-0.00027,0.00974,0.00166,0.00072,0.00061,0.00067,0.00118,0.00608,0.00497,16.071245,10.698598,14.948019,10.703548,14.916942,9.210649,13.281899,9.327260,12.716119,8.564804,12.995904,8.094058,18.968196,8.151474,15.509445,6.756720,13.346021,3.902651,0,18.882382,6.438976,18.986814,4.602439,17.048881,5.681402,89.123368,84.648365,121.942425,112.986358,0,0,0,0,0,0,0,0,0,0,0,0,0,0,0,0,0,0,1,1,0,0,0,0,0,0
0.124,3.27680,0.09638,0.00000,0.00923,0.00158,0.00073,0.00060,0.00065,0.00146,0.00614,0.00521,16.073054,10.703998,14.952420,10.706065,14.936934,9.214518,13.298838,9.323032,12.715349,8.561018,12.996995,8.090077,18.939356,8.151615,15.503706,6.763327,13.343808,3.906537,0,18.901156,6.442983,18.975122,4.596964,17.050953,5.688034,88.642351,84.317462,122.539469,113.107164,0,0,0,0,0,0,0,0,0,0,0,0,0,0,0,0,0,0,1,1,0,0,0,0,0,0
0.125,3.27643,0.09637,0.00013,0.00943,0.00158,0.00074,0.00057,0.00064,0.00164,0.00648,0.00505,16.074435,10.709526,14.955835,10.708819,14.956178,9.218875,13.317468,9.319480,12.715145,8.557303,12.999136,8.085604,18.919472,8.150322,15.496843,6.769814,13.340780,3.909822,0,18.920000,6.446595,18.965975,4.591073,17.052202,5.697003,88.237066,84.060383,123.039417,113.494511,0,0,0,0,0,0,0,0,0,0,0,0,0,0,0,0,0,0,1,1,0,0,0,0,0,0
0.126,3.27621,0.09621,0.00002,0.00945,0.00145,0.00077,0.00058,0.00069,0.00183,0.00737,0.00549,16.075327,10.714793,14.958186,10.712245,14.972846,9.223558,13.337779,9.317224,12.715478,8.555798,12.999887,8.081801,18.908510,8.147701,15.488466,6.774679,13.335447,3.913377,0,18.938302,6.448646,18.959106,4.586668,17.052959,5.705850,87.945618,83.857546,123.393307,114.173605,0,0,0,0,0,0,0,0,0,0,0,0,1,0,0,0,0,0,1,1,0,0,0,0,0,0
0.127,3.27598,0.09637,0.00000,0.00962,0.00143,0.00080,0.00056,0.00070,0.00233,0.00851,0.00575,16.075670,10.719412,14.959393,10.716772,14.985120,9.228406,13.359749,9.316885,12.716321,8.558631,12.996834,8.079826,18.906407,8.143861,15.478191,6.776435,13.326342,3.918063,0,18.955460,6.447979,18.954233,4.585635,17.053552,5.712138,87.805810,83.689495,123.552396,115.169679,0,0,0,0,0,0,0,0,0,0,0,0,0,0,0,0,0,0,1,0,0,0,0,0,0,0
0.128,3.27581,0.09671,0.00012,0.01007,0.00135,0.00078,0.00059,0.00073,0.00257,0.00965,0.00574,16.075426,10.723251,14.959451,10.722431,14.991969,9.233263,13.382122,9.319350,12.717828,8.567167,12.989345,8.080467,18.911073,8.139054,15.466132,6.774599,13.313735,3.924052,0,18.971439,6.444336,18.950316,4.588589,17.054121,5.714855,87.833140,83.545865,123.484050,116.509805,0,0,1,0,0,0,0,0,0,0,0,0,0,0,0,0,0,0,1,0,0,0,0,0,0,0
0.129,3.27631,0.09684,0.00013,0.00849,0.00128,0.00077,0.00057,0.00076,0.00271,0.01047,0.00619,16.074599,10.726601,14.958476,10.728584,14.993675,9.237981,13.401593,9.325941,12.720452,8.581491,12.979764,8.083900,18.917031,8.133778,15.453239,6.770370,13.300794,3.930359,0,18.987152,6.438957,18.945047,4.594030,17.054492,5.715368,88.005902,83.431455,123.182497,118.224129,0,0,0,0,0,0,0,0,0,0,0,0,0,0,0,0,0,0,1,0,0,0,0,0,0,0
0.130,3.27738,0.09664,0.00027,0.00790,0.00132,0.00078,0.00056,0.00076,0.00278,0.01002,0.00612,16.073192,10.729794,14.956593,10.734530,14.990642,9.242413,13.414663,9.338021,12.724676,8.601572,12.970718,8.090240,18.918484,8.128552,15.440540,6.765101,13.290961,3.935889,0,19.003603,6.433222,18.935998,4.600257,17.054459,5.715271,88.298861,83.352503,122.644519,120.343086,0,0,0,0,0,0,0,0,0,0,0,0,0,0,0,0,0,0,1,0,0,0,0,0,0,0
0.131,3.27766,0.09643,0.00000,0.00865,0.00149,0.00077,0.00060,0.00075,0.00293,0.01028,0.00710,16.071214,10.733159,14.953932,10.739575,14.983283,9.246415,13.417869,9.356929,12.730989,8.627363,12.964817,8.099592,18.909694,8.123894,15.429048,6.760143,13.287660,3.939560,0,19.021785,6.428506,18.920773,4.605580,17.053824,5.716142,88.686667,83.315269,121.866814,122.896749,0,0,0,0,0,0,0,0,0,0,0,0,0,0,0,0,0,0,1,0,0,0,0,0,0,0
0.132,3.27672,0.09677,0.00015,0.00782,0.00170,0.00076,0.00060,0.00076,0.00289,0.01059,0.00774,16.068838,10.736917,14.950738,10.743440,14.972412,9.249976,13.410488,9.382146,12.740385,8.657930,12.963483,8.111213,18.889332,8.120301,15.418916,6.756436,13.292895,3.941039,0,19.041929,6.425611,18.899393,4.609040,17.052687,5.718607,89.135327,83.327619,120.840270,125.888477,0,0,0,0,0,0,0,0,0,0,0,0,0,0,0,0,0,0,1,0,0,0,0,0,0,0
0.133,3.27593,0.09687,-0.00027,0.00661,0.00169,0.00071,0.00059,0.00075,0.00308,0.01014,0.00779,16.066511,10.741101,14.947451,10.746541,14.959518,9.253308,13.396367,9.410055,12.754701,8.690860,12.966158,8.122946,18.863414,8.118231,15.408852,6.754233,13.306304,3.941244,0,19.062990,6.424388,18.875909,4.610899,17.051652,5.721699,89.596437,83.400095,119.546083,129.277072,0,0,0,0,0,0,0,0,0,0,0,0,0,0,0,0,0,0,1,0,0,0,0,0,0,0
0.134,3.27610,0.09662,0.00013,0.00572,0.00169,0.00069,0.00059,0.00073,0.00307,0.00957,0.00737,16.064710,10.745727,14.944531,10.749360,14.946154,9.256647,13.379786,9.436746,12.775854,8.723598,12.972095,8.132501,18.838657,8.118139,15.397426,6.753724,13.327301,3.941213,0,19.083806,6.424598,18.854756,4.611534,17.051370,5.724301,90.020227,83.543496,117.964529,133.017110,0,0,0,0,0,0,0,0,0,0,0,0,0,0,0,0,0,0,1,0,0,0,0,0,0,0
0.135,3.27671,0.09611,-0.00002,0.00497,0.00167,0.00068,0.00061,0.00075,0.00302,0.00898,0.00730,16.063902,10.750809,14.942431,10.752374,14.933863,9.260224,13.364996,9.458338,12.805735,8.753595,12.980552,8.137612,18.821722,8.120473,15.383224,6.755091,13.355286,3.941965,0,19.103225,6.426003,18.840326,4.611327,17.052485,5.725307,90.357226,83.768367,116.076174,137.063088,0,0,0,0,0,0,0,0,0,0,0,0,0,0,0,0,0,0,1,0,0,0,0,0,0,0
0.136,3.27725,0.09644,0.00012,0.00487,0.00168,0.00064,0.00061,0.00072,0.00311,0.00823,0.00709,16.064170,10.756187,14.941262,10.755853,14.923662,9.264191,13.354208,9.473169,12.844386,8.778709,12.991167,8.137957,18.815319,8.125272,15.365923,6.757965,13.388744,3.943152,0,19.120931,6.428483,18.833906,4.610827,17.054936,5.724423,90.579999,84.066637,113.883020,141.363655,0,0,0,0,0,0,0,0,0,0,0,0,0,0,0,0,0,0,1,0,0,0,0,0,0,0
0.137,3.27744,0.09655,-0.00013,0.00574,0.00169,0.00063,0.00062,0.00070,0.00276,0.00762,0.00624,16.064944,10.761412,14.940554,10.759709,14.915684,9.268560,13.346229,9.483277,12.888762,8.797480,13.004204,8.136453,18.815560,8.131884,15.347019,6.761056,13.424634,3.942151,0,19.138008,6.432117,18.831604,4.610869,17.057496,5.722711,90.697873,84.399194,111.422822,145.857706,0,0,0,0,0,0,0,0,0,0,0,0,0,0,0,0,0,0,1,0,0,0,0,0,0,0
0.138,3.27717,0.09637,0.00000,0.00549,0.00173,0.00065,0.00058,0.00065,0.00250,0.00653,0.00592,16.065595,10.766006,14.939785,10.763824,14.909978,9.273331,13.339542,9.491049,12.935526,8.808511,13.019991,8.136325,18.817934,8.139593,15.328180,6.762989,13.459768,3.936118,0,19.155670,6.437001,18.829038,4.612314,17.058828,5.721361,90.723658,84.723978,108.736725,150.483211,0,0,0,0,0,0,0,0,0,0,0,0,0,0,0,0,0,0,1,0,0,0,0,0,0,0
0.139,3.27667,0.09614,0.00000,0.00567,0.00178,0.00064,0.00060,0.00061,0.00269,0.00575,0.00538,16.065500,10.769497,14.938436,10.768081,14.906589,9.278502,13.332646,9.498860,12.981366,8.810441,13.038858,8.140775,18.817959,8.147686,15.311064,6.762401,13.490992,3.922251,0,19.175120,6.443226,18.821861,4.616011,17.057604,5.721556,90.670205,84.999186,105.865311,155.177121,0,0,0,0,0,0,0,0,0,0,0,0,0,0,0,0,0,0,1,0,0,0,0,0,0,0
0.140,3.27625,0.09599,0.00013,0.00600,0.00162,0.00061,0.00060,0.00061,0.00306,0.00542,0.00504,16.064408,10.771852,14.936314,10.772476,14.905304,9.284020,13.325228,9.508103,13.024766,8.804417,13.061622,8.151504,18.813242,8.155506,15.296670,6.759037,13.517572,3.900570,0,19.196610,6.450485,18.808478,4.621939,17.053385,5.723755,90.553345,85.201926,102.807649,159.801337,0,0,0,0,0,0,0,0,0,0,0,0,0,0,0,0,0,0,1,0,0,0,0,0,0,0
0.141,3.27630,0.09619,0.00027,0.00702,0.00145,0.00061,0.00057,0.00058,0.00322,0.00407,0.00351,16.062698,10.773767,14.933764,10.777195,14.905471,9.289742,13.318956,9.518536,13.067213,8.795776,13.089906,8.167704,18.804881,8.162499,15.284893,6.754483,13.542816,3.875800,0,19.218808,6.457801,18.791884,4.628628,17.047208,5.727221,90.393872,85.340842,99.493568,164.092574,0,0,0,0,0,0,0,0,0,0,0,0,0,0,0,0,0,0,1,0,0,0,0,0,0,0
0.142,3.27688,0.09626,-0.00012,0.01190,0.00117,0.00062,0.00061,0.00060,0.00343,0.00362,0.00286,16.060804,10.776008,14.931185,10.782442,14.906399,9.295520,13.315686,9.529761,13.110474,8.790248,13.125409,8.188332,18.794305,8.168122,15.275521,6.750499,13.570412,3.853115,0,19.240232,6.464134,18.775506,4.634466,17.040251,5.731099,90.213053,85.427571,95.846330,167.775680,0,0,0,0,0,0,0,0,0,0,0,0,0,0,0,0,0,0,1,0,0,0,0,0,0,0
0.143,3.27739,0.09613,0.00000,0.01327,0.00105,0.00067,0.00065,0.00063,0.00358,0.00403,0.00241,16.059159,10.779332,14.928968,10.788419,14.907402,9.301202,13.317251,9.541379,13.156305,8.793524,13.169800,8.212335,18.782932,8.171835,15.268341,6.748832,13.604021,3.837641,0,19.259408,6.468457,18.762742,4.637858,17.033686,5.734541,90.032103,85.473735,91.790321,170.576445,0,0,0,0,0,0,0,0,0,0,0,0,0,0,0,0,0,0,1,0,0,0,0,0,0,0
0.144,3.27750,0.09578,0.00015,0.01439,0.00107,0.00068,0.00065,0.00065,0.00352,0.00432,0.00248,16.057870,10.783962,14.927219,10.795062,14.908085,9.306615,13.323632,9.552831,13.205339,8.808059,13.222403,8.238270,18.771455,8.173511,15.262741,6.750225,13.645245,3.830958,0,19.275501,6.470503,18.754652,4.638137,17.028157,5.737105,89.868498,85.489919,87.332874,172.290491,0,0,0,0,0,0,0,0,0,0,0,0,0,0,0,0,0,0,1,0,0,0,0,0,0,0
0.145,3.27739,0.09584,0.00000,0.01451,0.00118,0.00066,0.00061,0.00067,0.00426,0.00453,0.00262,16.056500,10.789225,14.925556,10.801867,14.908546,9.311549,13.331731,9.563297,13.256343,8.830916,13.278639,8.264034,18.759354,8.173713,15.257457,6.753743,13.692249,3.828737,0,19.288741,6.471279,18.748400,4.636188,17.023430,5.739017,89.733477,85.484980,82.619660,172.829906,0,0,0,0,0,0,0,0,0,0,0,0,0,0,0,0,0,0,1,0,0,0,0,0,0,0
0.146,3.27724,0.09612,0.00012,0.01444,0.00154,0.00069,0.00061,0.00065,0.00441,0.00439,0.00217,16.054563,10.794365,14.923552,10.808289,14.908929,9.315790,13.338157,9.571932,13.307908,8.858647,13.333558,8.287462,18.745995,8.173068,15.251158,6.758292,13.742873,3.826084,0,19.299459,6.471912,18.740779,4.633046,17.019186,5.740572,89.637684,85.467609,77.809474,172.117824,0,0,0,0,0,0,0,0,0,0,0,0,0,0,0,0,0,0,1,0,0,0,0,0,0,0
0.147,3.27709,0.09610,0.00002,0.01272,0.00156,0.00066,0.00062,0.00065,0.00427,0.00369,0.00200,16.051575,10.798628,14.920787,10.813785,14.909375,9.319125,13.339553,9.577889,13.358628,8.887804,13.382258,8.306407,18.730753,8.172199,15.242528,6.762782,13.794961,3.818160,0,19.307992,6.473521,18.728613,4.629739,17.015109,5.742059,89.591636,85.446436,73.060984,170.081097,0,0,0,0,0,0,0,0,0,0,0,0,0,0,0,0,0,0,1,0,0,0,0,0,0,0
0.148,3.27699,0.09565,0.00004,0.01217,0.00148,0.00064,0.00062,0.00067,0.00455,0.00356,0.00206,16.047387,10.801696,14.917186,10.818049,14.909855,9.321492,13.334986,9.580329,13.407586,8.914984,13.423534,8.320059,18.713705,8.171384,15.231237,6.766405,13.846778,3.803812,0,19.315138,6.476718,18.710793,4.627149,17.010959,5.743664,89.596108,85.425383,68.523575,166.920768,0,0,0,0,0,0,0,0,0,0,0,0,0,0,0,0,0,0,1,0,0,0,0,0,0,0
0.149,3.27699,0.09560,0.00015,0.01186,0.00159,0.00061,0.00061,0.00073,0.00484,0.00322,0.00245,16.042403,10.803963,14.913258,10.821166,14.910052,9.323071,13.327576,9.578424,13.454673,8.936861,13.462340,8.329837,18.696099,8.170328,15.218595,6.768821,13.897287,3.788043,0,19.322461,6.481264,18.689670,4.625901,17.006622,5.745396,89.635638,85.400528,64.331148,163.295193,0,0,0,0,0,0,0,0,0,0,0,0,0,0,0,0,0,0,1,0,0,0,0,0,0,0
0.150,3.27709,0.09596,0.00013,0.01099,0.00167,0.00064,0.00060,0.00074,0.00467,0.00307,0.00257,16.037084,10.805897,14.909566,10.823259,14.909625,9.324070,13.320824,9.571345,13.499856,8.950115,13.504217,8.337373,18.679296,8.168681,15.206069,6.769736,13.945518,3.776439,0,19.331599,6.486837,18.667920,4.626598,17.001995,5.747246,89.693220,85.367206,60.616135,159.906106,0,0,0,0,0,0,0,0,0,0,0,0,0,0,0,0,0,0,1,0,0,0,0,0,0,0
0.151,3.27713,0.09599,0.00021,0.00972,0.00173,0.00064,0.00063,0.00073,0.00501,0.00303,0.00262,16.031883,10.807957,14.906665,10.824451,14.908236,9.324692,13.318197,9.558284,13.543096,8.951477,13.554639,8.344289,18.664642,8.166097,15.195114,6.768863,13.990515,3.774532,0,19.344172,6.493118,18.648199,4.629830,16.996978,5.749207,89.751768,85.320807,57.509248,157.449125,0,0,0,0,0,0,0,0,0,0,0,0,0,0,0,0,0,0,1,0,0,0,0,0,0,0
0.152,3.27713,0.09593,-0.00002,0.00526,0.00179,0.00065,0.00060,0.00070,0.00521,0.00256,0.00244,16.027036,10.810357,14.904666,10.824926,14.905863,9.325106,13.320585,9.539812,13.583859,8.941353,13.614349,8.351607,18.652595,8.162643,15.186344,6.766431,14.032378,3.783943,0,19.360480,6.499625,18.631690,4.635376,16.991565,5.751288,89.788145,85.261000,55.014334,156.169138,0,0,0,0,0,0,0,0,0,0,0,0,0,0,0,0,0,0,1,0,0,0,0,0,0,0
0.153,3.27741,0.09563,0.00004,0.00362,0.00197,0.00058,0.00055,0.00067,0.00490,0.00165,0.00229,16.022414,10.812892,14.902936,10.824967,14.903017,9.325415,13.324580,9.518802,13.620781,8.926281,13.676201,8.359341,18.642130,8.159070,15.178969,6.763532,14.072965,3.799765,0,19.378619,6.505615,18.617112,4.641656,16.985908,5.753529,89.769119,85.194582,52.923640,155.559258,0,0,0,0,0,0,0,0,0,0,0,0,0,0,0,0,0,0,1,0,0,0,0,0,0,0
0.154,3.27796,0.09569,0.00004,0.00244,0.00239,0.00061,0.00056,0.00067,0.00500,0.00132,0.00222,16.017851,10.815320,14.900769,10.824864,14.900257,9.325716,13.326363,9.498348,13.652420,8.913383,13.732296,8.367415,18.632080,8.156193,15.172064,6.761340,14.114303,3.816475,0,19.396479,6.510322,18.602951,4.646963,16.980172,5.755971,89.660502,85.129029,51.009347,155.041298,0,0,0,0,0,0,0,0,0,0,0,0,0,0,0,0,0,0,1,0,0,0,0,0,0,0
0.155,3.27821,0.09601,-0.00027,0.00291,0.00241,0.00064,0.00061,0.00065,0.00441,0.00105,0.00197,16.013180,10.817398,14.897467,10.824909,14.898144,9.326105,13.322162,9.481513,13.677362,8.909716,13.774814,8.375747,18.621289,8.154821,15.164712,6.761019,14.158391,3.828592,0,19.411964,6.512984,18.587708,4.649602,16.974522,5.758655,89.428247,85.071688,49.045611,154.042411,0,0,0,0,0,0,0,0,0,0,0,0,0,0,0,0,0,0,1,0,0,0,0,0,0,0
0.156,3.27788,0.09612,0.00013,0.00362,0.00209,0.00064,0.00061,0.00066,0.00409,0.00093,0.00187,16.008180,10.818947,14.892745,10.825253,14.897266,9.326589,13.311283,9.469272,13.696120,8.917704,13.801516,8.384175,18.609248,8.155143,15.156335,6.762924,14.205225,3.833880,0,19.424216,6.513452,18.570909,4.648838,16.969032,5.761583,89.048704,85.020409,46.952471,152.383558,0,0,0,0,0,0,0,0,0,0,0,0,0,0,0,0,0,0,1,0,0,0,0,0,0,0
0.157,3.27723,0.09580,0.00000,0.00410,0.00202,0.00067,0.00058,0.00067,0.00440,0.00090,0.00189,16.002528,10.819893,14.887013,10.825817,14.898255,9.327023,13.298173,9.459112,13.712425,8.932049,13.819476,8.392392,18.596530,8.156324,15.146929,6.766067,14.251459,3.835518,0,19.434436,6.512589,18.553792,4.645539,16.963621,5.764690,88.515567,84.957208,44.893276,150.542529,0,0,0,0,0,0,0,0,0,0,0,0,0,0,0,0,0,0,1,0,0,0,0,0,0,0
0.158,3.27664,0.09561,0.00000,0.00556,0.00218,0.00072,0.00061,0.00064,0.00434,0.00090,0.00177,15.995898,10.820174,14.880746,10.826502,14.901749,9.327251,13.287767,9.448189,13.730313,8.946716,13.836651,8.400080,18.583808,8.157427,15.136540,6.769330,14.293430,3.837196,0,19.444021,6.511356,18.537756,4.640721,16.958192,5.767902,87.824175,84.862598,43.054453,149.059411,0,0,0,0,0,0,0,0,0,0,0,0,0,0,0,0,0,0,1,0,0,0,0,0,0,0
0.159,3.27658,0.09601,0.00013,0.00631,0.00220,0.00074,0.00061,0.00061,0.00396,0.00092,0.00132,15.987962,10.819726,14.874413,10.827207,14.908382,9.327118,13.284960,9.433684,13.753781,8.955710,13.860942,8.406919,18.571753,8.157526,15.125218,6.771604,14.327513,3.842579,0,19.454352,6.510707,18.524185,4.635401,16.952649,5.771148,86.970019,84.717338,41.621212,148.470223,0,0,0,0,0,0,0,0,0,0,0,0,0,0,0,0,0,0,1,0,0,0,0,0,0,0
0.160,3.27709,0.09609,0.00029,0.00706,0.00214,0.00073,0.00063,0.00059,0.00367,0.00085,0.00106,15.978561,10.818602,14.868184,10.827758,14.918554,9.326684,13.291605,9.414477,13.783797,8.955678,13.896210,8.412416,18.560545,8.156241,15.112947,6.772345,14.352798,3.853425,0,19.465679,6.511251,18.513224,4.630381,16.946725,5.774379,85.959804,84.520455,40.689009,149.010998,0,0,0,0,0,0,0,0,0,0,0,0,0,0,0,0,0,0,1,0,0,0,0,0,0,0
0.161,3.27751,0.09589,0.00000,0.00951,0.00215,0.00079,0.00061,0.00061,0.00318,0.00073,0.00108,15.967821,10.817039,14.861729,10.827863,14.932275,9.326372,13.304492,9.392284,13.816285,8.947678,13.939581,8.415792,18.549552,8.154113,15.099608,6.771954,14.372914,3.868311,0,19.476361,6.513017,18.502960,4.626109,16.939872,5.777586,84.818942,84.301436,40.203606,150.417431,0,0,0,0,0,0,0,0,0,0,0,0,0,0,0,0,0,0,1,0,0,0,0,0,0,0
0.162,3.27754,0.09577,0.00013,0.00897,0.00204,0.00079,0.00062,0.00060,0.00278,0.00070,0.00110,15.955890,10.815292,14.854667,10.827217,14.949517,9.326637,13.319929,9.369093,13.846687,8.933186,13.987538,8.416240,18.538067,8.151767,15.085075,6.770919,14.391917,3.885513,0,19.484580,6.515978,18.491281,4.623001,16.931515,5.780760,83.574617,84.092659,40.096566,152.377757,0,0,0,0,0,0,0,0,0,0,0,0,0,0,0,0,0,0,1,0,0,0,0,0,0,0
0.163,3.27766,0.09616,0.00015,0.00886,0.00193,0.00080,0.00062,0.00060,0.00270,0.00062,0.00112,15.942924,10.813616,14.846625,10.825522,14.970247,9.327933,13.334258,9.346865,13.870498,8.913678,14.036590,8.412964,18.525386,8.149826,15.069222,6.769728,14.413843,3.903312,0,19.488541,6.520105,18.476102,4.621464,16.921096,5.783897,82.254133,83.926431,40.299072,154.580807,0,0,0,0,0,0,0,0,0,0,0,0,0,0,0,0,0,0,1,0,0,0,0,0,0,0
0.164,3.27803,0.09634,0.00002,0.00881,0.00175,0.00077,0.00060,0.00059,0.00248,0.00060,0.00116,15.929389,10.812180,14.837510,10.822862,14.994036,9.330458,13.346494,9.325875,13.886891,8.890609,14.084847,8.405881,18.511197,8.148771,15.052242,6.768654,14.441174,3.920474,0,19.488352,6.525240,18.457055,4.621462,16.909230,5.786984,80.893429,83.829913,40.714139,156.758956,0,0,0,0,0,0,0,0,0,0,0,0,0,0,0,0,0,0,1,0,0,0,0,0,0,0
0.165,3.27820,0.09639,-0.00013,0.01107,0.00169,0.00078,0.00059,0.00059,0.00232,0.00057,0.00121,15.916275,10.811009,14.827700,10.819964,15.019793,9.333987,13.360103,9.303583,13.901175,8.865396,14.133098,8.396093,18.495841,8.148848,15.034857,6.767618,14.473805,3.936569,0,19.487291,6.531010,18.436638,4.622211,16.898494,5.790000,79.542858,83.821675,41.197814,158.717218,0,0,0,0,0,0,0,0,0,0,0,0,0,0,0,0,0,0,1,0,0,0,0,0,0,0
0.166,3.27785,0.09628,0.00000,0.01136,0.00170,0.00077,0.00059,0.00058,0.00244,0.00055,0.00126,15.904620,10.810116,14.817621,10.817612,15.046364,9.338253,13.378977,9.277181,13.919240,8.839450,14.182385,8.384819,18.479722,8.150279,15.017838,6.766507,14.511381,3.951244,0,19.488937,6.537017,18.417621,4.622859,16.891648,5.792924,78.254135,83.919475,41.601685,160.267493,0,0,0,0,0,0,0,0,0,0,0,0,0,0,0,0,0,0,1,0,0,0,0,0,0,0
0.167,3.27696,0.09643,0.00029,0.01126,0.00180,0.00079,0.00063,0.00063,0.00237,0.00057,0.00125,15.895452,10.809511,14.807693,10.816583,15.072598,9.342993,13.406957,9.243894,13.946922,8.814181,14.233736,8.373271,18.463240,8.153277,15.001951,6.765211,14.553538,3.964158,0,19.496829,6.542868,18.402752,4.622559,16.891420,5.795734,77.078748,84.140794,41.778225,161.223740,0,0,0,0,0,0,0,0,0,0,0,0,0,0,0,0,0,0,1,0,0,0,0,0,0,0
0.168,3.27591,0.09674,0.00002,0.00985,0.00185,0.00076,0.00060,0.00061,0.00227,0.00058,0.00122,15.888982,10.809069,14.798224,10.816976,15.097469,9.347848,13.444455,9.203469,13.985918,8.790684,14.287103,8.362359,18.446757,8.157570,14.987711,6.763859,14.598939,3.975818,0,19.511658,6.548142,18.392978,4.620852,16.897963,5.798316,76.051300,84.482828,41.645062,161.551576,0,0,0,0,0,0,0,0,0,0,0,0,0,0,0,0,0,0,1,0,0,0,0,0,0,0
0.169,3.27568,0.09679,-0.00012,0.00895,0.00188,0.00077,0.00062,0.00060,0.00219,0.00057,0.00125,15.884060,10.808437,14.789332,10.817761,15.120160,9.352317,13.486158,9.159849,14.031025,8.769534,14.340645,8.352489,18.430564,8.162066,14.975206,6.762975,14.644630,3.988149,0,19.529363,6.552378,18.386250,4.617928,16.907139,5.800402,75.178224,84.908939,41.228494,161.469567,0,0,0,0,0,0,0,0,0,0,0,0,0,0,0,0,0,0,1,0,0,0,0,0,0,0
0.170,3.27651,0.09641,-0.00015,0.00838,0.00209,0.00079,0.00063,0.00060,0.00222,0.00058,0.00127,15.879409,10.807243,14.781115,10.817801,15.139877,9.355881,13.526208,9.117379,14.076383,8.751253,14.392351,8.344019,18.414947,8.165600,14.964486,6.763121,14.687505,4.003206,0,19.545430,6.555109,18.380231,4.614039,16.914403,5.801711,74.463284,85.379280,40.565125,161.220273,0,0,0,0,0,0,0,0,0,0,0,0,0,0,0,0,0,0,1,0,0,0,0,0,0,0
0.171,3.27729,0.09647,-0.00029,0.00555,0.00218,0.00076,0.00065,0.00057,0.00211,0.00056,0.00148,15.873758,10.805117,14.773671,10.815967,15.155832,9.358026,13.558795,9.080368,14.116177,8.736363,14.440228,8.337308,18.400187,8.167013,14.955598,6.764853,14.724479,4.023026,0,19.555387,6.555881,18.372607,4.609440,16.915251,5.801965,73.910006,85.854197,39.691828,161.045152,0,0,0,0,0,0,0,0,0,0,0,0,0,0,0,0,0,0,1,0,0,0,0,0,0,0
0.172,3.27735,0.09689,-0.00002,0.00539,0.00219,0.00074,0.00064,0.00057,0.00216,0.00057,0.00171,15.866514,10.802078,14.767019,10.811874,15.167829,9.358565,13.581390,9.050616,14.147569,8.725092,14.483634,8.332964,18.386403,8.165954,14.948528,6.768309,14.754252,4.048059,0,19.557722,6.554920,18.362569,4.604589,16.908265,5.801284,73.504398,86.308247,38.665147,161.104713,0,0,0,0,0,0,0,0,0,0,0,0,0,0,0,0,0,0,1,0,0,0,0,0,0,0
0.173,3.27701,0.09688,-0.00013,0.00781,0.00231,0.00072,0.00064,0.00056,0.00213,0.00059,0.00190,15.858204,10.798792,14.761050,10.806369,15.176663,9.357849,13.596942,9.025735,14.172698,8.717186,14.524185,8.332000,18.373443,8.163412,14.943160,6.772925,14.778495,4.076112,0,19.555857,6.553588,18.351817,4.600287,16.897173,5.800446,73.203246,86.739688,37.574432,161.424440,0,0,0,0,0,0,0,0,0,0,0,0,0,0,0,0,0,0,1,0,0,0,0,0,0,0
0.174,3.27663,0.09655,0.00029,0.01190,0.00227,0.00073,0.00072,0.00056,0.00217,0.00061,0.00191,15.849462,10.795985,14.755642,10.800419,15.183222,9.356283,13.608917,9.002941,14.194174,8.712342,14.563707,8.335469,18.361127,8.160504,14.939368,6.778073,14.799161,4.104741,0,19.553685,6.553357,18.342289,4.597368,16.886191,5.800290,72.960567,87.149029,36.512150,162.017014,0,0,0,0,0,0,0,0,0,0,0,0,0,0,0,0,0,0,1,0,0,0,0,0,0,0
0.175,3.27655,0.09657,0.00015,0.01067,0.00254,0.00075,0.00074,0.00055,0.00216,0.00061,0.00187,15.840918,10.794375,14.750671,10.794982,15.188390,9.354270,13.620761,8.979470,14.214588,8.710252,14.604013,8.344407,18.349273,8.158337,14.937018,6.783124,14.818189,4.131514,0,19.555069,6.555682,18.335901,4.596655,16.879498,5.801647,72.730566,87.536649,35.570307,162.894779,0,0,0,0,0,0,0,0,0,0,0,0,0,0,0,0,0,0,1,0,0,0,0,0,0,0
0.176,3.27686,0.09704,-0.00027,0.00968,0.00262,0.00074,0.00076,0.00054,0.00189,0.00063,0.00189,15.832843,10.794092,14.745825,10.790417,15.192815,9.352125,13.634202,8.953983,14.235222,8.709910,14.645665,8.358412,18.337561,8.157410,14.935403,6.787540,14.836630,4.154925,0,19.561635,6.560806,18.332920,4.598335,16.878563,5.804631,72.481355,87.893621,34.807238,164.045408,0,0,0,0,0,0,0,0,0,0,0,0,0,0,0,0,0,0,1,0,0,0,0,0,0,0
0.177,3.27722,0.09698,0.00027,0.00954,0.00264,0.00074,0.00073,0.00051,0.00155,0.00061,0.00190,15.824903,10.794287,14.740484,10.786088,15.196749,9.350021,13.648107,8.927525,14.255170,8.709158,14.687144,8.374696,18.325431,8.157200,14.932864,6.790931,14.854046,4.175011,0,19.571287,6.566953,18.330863,4.601528,16.880344,5.808160,72.204244,88.195486,34.225120,165.415428,0,0,0,0,0,0,0,0,0,0,0,0,0,0,0,0,0,0,1,0,0,0,0,0,0,0
0.178,3.27737,0.09680,0.00004,0.01045,0.00255,0.00071,0.00072,0.00053,0.00155,0.00061,0.00190,15.816709,10.794017,14.733995,10.781261,15.200403,9.348115,13.661069,8.901363,14.273321,8.705727,14.726734,8.390240,18.312305,8.157089,14.927648,6.792923,14.869857,4.191953,0,19.581576,6.572154,18.326983,4.605255,16.881365,5.811039,71.892745,88.416314,33.820798,166.947461,0,0,0,0,0,0,0,0,0,0,0,0,0,0,0,0,0,0,1,0,0,0,0,0,0,0
0.179,3.27719,0.09677,0.00004,0.01123,0.00236,0.00075,0.00071,0.00051,0.00138,0.00059,0.00188,15.807880,10.792350,14.725718,10.775214,15.203993,9.346564,13.671698,8.876762,14.288582,8.697375,14.762741,8.402054,18.297614,8.156463,14.918026,6.793147,14.883498,4.205931,0,19.590067,6.574455,18.318566,4.608541,16.878186,5.812086,71.540452,88.530435,33.591013,168.584278,0,0,0,0,0,0,0,0,0,0,0,0,0,0,0,0,0,0,1,0,0,0,0,0,0,0
0.180,3.27680,0.09704,0.00013,0.01129,0.00213,0.00072,0.00066,0.00050,0.00151,0.00061,0.00184,15.798569,10.789037,14.715675,10.767855,15.207757,9.345514,13.679567,8.854701,14.301423,8.683691,14.795107,8.409017,18.281667,8.155108,14.903713,6.791824,14.895374,4.216671,0,19.595491,6.573122,18.304951,4.610852,16.869857,5.810938,71.147302,88.531232,33.524478,170.279709,0,0,0,0,0,0,0,0,0,0,0,0,0,0,0,0,0,0,1,0,0,0,0,0,0,0
0.181,3.27670,0.09722,0.00029,0.01161,0.00257,0.00068,0.00064,0.00053,0.00155,0.00061,0.00164,15.789824,10.784981,14.705001,10.760146,15.211972,9.345090,13.685863,8.835677,14.314913,8.667327,14.826498,8.413129,18.266235,8.153473,14.886838,6.790156,14.907507,4.223152,0,19.598521,6.569447,18.288912,4.612382,16.859573,5.808607,70.723804,88.443877,33.596528,172.006021,0,0,0,0,0,0,0,0,0,0,0,0,0,0,0,0,0,0,1,0,0,0,0,0,0,0
0.182,3.27708,0.09707,0.00040,0.01189,0.00276,0.00068,0.00068,0.00053,0.00147,0.00056,0.00129,15.782780,10.781188,14.694933,10.753149,15.216921,9.345415,13.691927,8.820145,14.332367,8.651222,14.859841,8.416684,18.253225,8.152069,14.869761,6.789438,14.922072,4.224279,0,19.600016,6.564916,18.273550,4.613398,16.850926,5.806233,70.281471,88.296552,33.781226,173.737232,0,0,0,0,0,0,0,0,0,0,0,0,0,0,0,0,0,0,1,0,0,0,0,0,0,0
0.183,3.27757,0.09684,0.00013,0.01015,0.00282,0.00069,0.00073,0.00051,0.00142,0.00056,0.00107,15.778554,10.778659,14.686703,10.747917,15.222884,9.346609,13.699089,8.808548,14.357063,8.638293,14.898027,8.421960,18.244524,8.151402,14.854821,6.790953,14.941228,4.218987,0,19.600829,6.561006,18.261935,4.614162,16.847471,5.804949,69.831721,88.117426,34.052708,175.446473,0,0,0,0,0,0,0,0,0,0,0,0,0,0,0,0,0,0,1,0,0,0,0,0,0,0
0.184,3.27786,0.09714,0.00004,0.00664,0.00301,0.00066,0.00071,0.00049,0.00138,0.00054,0.00105,15.777285,10.777738,14.680828,10.744834,15.229914,9.348650,13.708012,8.800734,14.389374,8.629609,14.941288,8.429720,18.240315,8.151661,14.842970,6.795075,14.965842,4.208214,0,19.601543,6.558559,18.255174,4.614822,16.850238,5.805235,69.378956,87.933431,34.390311,177.041566,0,0,0,0,0,0,0,0,0,0,0,0,0,0,0,0,0,0,1,0,0,0,0,0,0,0
0.185,3.27786,0.09734,0.00013,0.00521,0.00281,0.00060,0.00068,0.00050,0.00138,0.00055,0.00104,15.777471,10.777681,14.676640,10.743165,15.237688,9.351282,13.718246,8.795556,14.424830,8.623167,14.985430,8.438214,18.237947,8.152497,14.832844,6.800666,14.994630,4.196238,0,19.602289,6.557355,18.251089,4.615325,16.856037,5.806481,68.915878,87.769443,34.782058,178.321400,0,0,0,0,0,0,0,0,0,0,0,0,0,0,0,0,0,0,1,0,0,0,0,0,0,0
0.186,3.27756,0.09710,0.00000,0.00588,0.00280,0.00063,0.00065,0.00052,0.00154,0.00055,0.00104,15.777455,10.777639,14.673356,10.742073,15.245850,9.354221,13.729233,8.791771,14.458504,8.616666,15.025835,8.445451,18.234497,8.153513,14.822860,6.806442,15.026101,4.187654,0,19.603156,6.557077,18.247191,4.615603,16.861281,5.807975,68.434078,87.650139,35.216791,179.074535,0,0,0,0,0,0,0,0,0,0,0,0,0,0,0,0,0,0,1,0,0,0,0,0,0,0
0.187,3.27717,0.09673,-0.00002,0.00621,0.00298,0.00060,0.00067,0.00055,0.00165,0.00057,0.00103,15.775595,10.776767,14.670197,10.740721,15.254042,9.357187,13.740426,8.788135,14.485507,8.607829,15.057936,8.449456,18.227069,8.154312,14.811447,6.811127,15.058766,4.187014,0,19.604234,6.557406,18.241007,4.615588,16.862410,5.809008,67.925365,87.600206,35.683137,179.092387,0,0,0,0,0,0,0,0,0,0,0,0,0,0,0,0,0,0,1,0,0,0,0,0,0,0
0.188,3.27687,0.09711,0.00000,0.00570,0.00294,0.00063,0.00069,0.00054,0.00177,0.00058,0.00103,15.771275,10.774658,14.666560,10.738606,15.262046,9.359958,13.751705,8.783349,14.503863,8.595702,15.080660,8.449533,18.214544,8.154710,14.797820,6.813903,15.090973,4.195500,0,19.605696,6.558144,18.231182,4.615376,16.858022,5.809136,67.397412,87.644833,36.153542,178.377190,0,0,0,0,0,0,0,0,0,0,0,0,0,0,0,0,0,0,1,0,0,0,0,0,0,0
0.189,3.27686,0.09735,0.00000,0.00476,0.00296,0.00056,0.00070,0.00056,0.00187,0.00059,0.00108,15.765598,10.771626,14.662126,10.735770,15.269870,9.362407,13.763675,8.776020,14.516455,8.581546,15.098765,8.447110,18.198777,8.154870,14.782509,6.814723,15.120806,4.208674,0,19.607856,6.559293,18.218225,4.615330,16.850301,5.808352,66.884359,87.810048,36.573475,177.282795,0,0,0,0,0,0,0,0,0,0,0,0,0,0,0,0,0,0,1,0,0,0,0,0,0,0
0.190,3.27714,0.09710,0.00017,0.00473,0.00298,0.00057,0.00071,0.00060,0.00158,0.00061,0.00105,15.759828,10.768054,14.656607,10.732312,15.277545,9.364417,13.777011,8.764750,14.526629,8.566831,15.117565,8.443817,18.181902,8.154989,14.766172,6.813609,15.146323,4.221568,0,19.611041,6.560871,18.202823,4.615839,16.841778,5.806691,66.422853,88.121963,36.885845,176.196401,0,0,0,0,0,0,0,0,0,0,0,0,0,0,0,0,0,0,1,0,0,0,0,0,0,0
0.191,3.27730,0.09699,0.00000,0.00515,0.00236,0.00059,0.00072,0.00059,0.00145,0.00064,0.00100,15.755220,10.764325,14.649721,10.728326,15.285097,9.365870,13.792381,8.748149,14.537709,8.553020,15.142325,8.441275,18.166039,8.155263,14.749464,6.810592,15.165609,4.229253,0,19.615575,6.562896,18.185662,4.617287,16.834963,5.804195,66.049342,88.606347,37.034010,175.502505,0,0,0,0,0,0,0,0,0,0,0,0,0,0,0,0,0,0,1,0,0,0,0,0,0,0
0.192,3.27720,0.09735,0.00015,0.00476,0.00251,0.00059,0.00068,0.00057,0.00152,0.00065,0.00107,15.752349,10.760753,14.641606,10.723832,15.292355,9.366618,13.810123,8.725793,14.551624,8.540830,15.174821,8.440330,18.152294,8.155699,14.733119,6.806319,15.178669,4.229694,0,19.621514,6.565198,18.167642,4.619620,16.831148,5.801334,65.785423,89.263980,36.994497,175.386183,0,0,0,0,0,0,0,0,0,0,0,0,0,0,0,0,0,0,1,0,0,0,0,0,0,0
0.193,3.27714,0.09744,-0.00012,0.00540,0.00303,0.00056,0.00062,0.00057,0.00181,0.00065,0.00115,15.750659,10.757541,14.633108,10.718725,15.298812,9.366459,13.830023,8.698865,14.567972,8.529746,15.211010,8.440542,18.140072,8.155994,14.718003,6.802456,15.188713,4.225690,0,19.628467,6.567301,18.150004,4.622056,16.829589,5.799290,65.627921,90.053960,36.799148,175.699908,0,0,0,0,0,0,0,0,0,0,0,0,0,0,0,0,0,0,1,0,0,0,0,0,0,0
0.194,3.27724,0.09731,0.00002,0.00498,0.00268,0.00060,0.00062,0.00059,0.00181,0.00066,0.00113,15.749485,10.754878,14.625138,10.712887,15.303931,9.365189,13.851814,8.668699,14.586129,8.519135,15.246299,8.441346,18.128621,8.155817,14.704990,6.800771,15.199253,4.220496,0,19.635998,6.568695,18.134025,4.623743,16.829349,5.799317,65.571316,90.931434,36.485054,176.264605,0,0,0,0,0,0,0,0,0,0,0,0,0,0,0,0,0,0,1,0,0,0,0,0,0,0
0.195,3.27727,0.09702,0.00010,0.00527,0.00251,0.00065,0.00060,0.00058,0.00180,0.00066,0.00110,15.748168,10.752952,14.618601,10.706204,15.307178,9.362605,13.875220,8.636629,14.605470,8.508370,15.276126,8.442183,18.117195,8.154838,14.694950,6.803008,15.213771,4.217343,0,19.643673,6.568882,18.120969,4.623836,16.829494,5.802651,65.609940,91.851608,36.089392,176.901781,0,0,0,0,0,0,0,0,0,0,0,0,0,0,0,0,0,0,1,0,0,0,0,0,0,0
0.196,3.27711,0.09691,-0.00013,0.00443,0.00274,0.00066,0.00060,0.00056,0.00169,0.00065,0.00116,15.746371,10.751711,14.613905,10.698806,15.308303,9.358761,13.899218,8.604013,14.625220,8.497300,15.298368,8.442818,18.105656,8.153075,14.688153,6.809476,15.233373,4.217697,0,19.650944,6.567872,18.111202,4.622122,16.829446,5.809352,65.727564,92.774292,35.655757,177.475942,0,0,0,0,0,0,0,0,0,0,0,0,0,0,0,0,0,0,1,0,0,0,0,0,0,0
0.197,3.27694,0.09715,-0.00002,0.00392,0.00261,0.00067,0.00060,0.00056,0.00164,0.00066,0.00113,15.744296,10.750708,14.610630,10.691236,15.307530,9.354133,13.921539,8.572248,14.644356,8.486567,15.314972,8.443561,18.094874,8.151118,14.683879,6.818083,15.255207,4.220077,0,19.657071,6.566525,18.103590,4.619434,16.829213,5.817526,65.890337,93.666968,35.238451,177.923309,0,0,0,0,0,0,0,0,0,0,0,0,0,0,0,0,0,0,1,0,0,0,0,0,0,0
0.198,3.27682,0.09718,0.00013,0.00410,0.00272,0.00065,0.00058,0.00054,0.00151,0.00066,0.00116,15.742196,10.749455,14.608281,10.684074,15.305129,9.349241,13.939794,8.542733,14.661830,8.476888,15.328270,8.444774,18.085820,8.149610,14.681309,6.826512,15.276045,4.222721,0,19.661299,6.565784,18.096859,4.616703,16.828860,5.825091,66.062736,94.497847,34.892789,178.186902,0,0,0,0,0,0,0,0,0,0,0,0,0,0,0,0,0,0,1,0,0,0,0,0,0,0
0.199,3.27658,0.09681,0.00029,0.00479,0.00281,0.00068,0.00056,0.00055,0.00142,0.00064,0.00119,15.740324,10.747469,14.606359,10.677897,15.301367,9.344597,13.951623,8.516858,14.676607,8.468970,15.340581,8.446812,18.079448,8.149191,14.679624,6.832459,15.292689,4.223882,0,19.662881,6.566583,18.089740,4.614856,16.828451,5.829979,66.209494,95.235438,34.673595,178.210556,0,0,0,0,0,0,0,0,0,0,0,0,0,0,0,0,0,0,1,0,0,0,0,0,0,0
0.200,3.27630,0.09644,-0.00013,0.00556,0.00298,0.00067,0.00059,0.00052,0.00144,0.00061,0.00132,15.738752,10.744571,14.604444,10.673006,15.296496,9.340470,13.956455,8.495267,14.688421,8.462786,15.353352,8.449632,18.075816,8.150033,14.677816,6.834755,15.304015,4.222751,0,19.661766,6.569109,18.081510,4.614201,16.827939,5.831220,66.314118,95.870416,34.599420,177.997897,0,0,0,0,0,0,0,0,0,0,0,0,0,0,0,0,0,0,1,0,0,0,0,0,0,0
0.201,3.27651,0.09683,0.00002,0.00587,0.00307,0.00067,0.00061,0.00052,0.00149,0.00059,0.00141,15.737256,10.741082,14.602239,10.669243,15.290735,9.336715,13.956718,8.477361,14.698300,8.457087,15.366572,8.452527,18.073477,8.151528,14.674566,6.834117,15.312363,4.220084,0,19.659058,6.572314,18.072351,4.614016,16.827096,5.829669,66.391434,96.430419,34.628313,177.652276,0,0,0,0,0,0,0,0,0,0,0,0,0,0,0,0,0,0,1,0,0,0,0,0,0,0
0.202,3.27721,0.09696,-0.00012,0.00568,0.00304,0.00070,0.00063,0.00051,0.00139,0.00058,0.00150,15.735584,10.737373,14.599459,10.666408,15.284303,9.333149,13.955119,8.462420,14.707391,8.450507,15.380094,8.454727,18.070844,8.152996,14.668521,6.831444,15.320402,4.216783,0,19.655974,6.575030,18.062532,4.613485,16.825677,5.826355,66.459233,96.946590,34.712587,177.286507,0,0,0,0,0,0,0,0,0,0,0,0,0,0,0,0,0,0,1,0,0,0,0,0,0,0
0.203,3.27736,0.09661,0.00015,0.00502,0.00272,0.00070,0.00062,0.00056,0.00101,0.00060,0.00151,15.733485,10.733814,14.595824,10.664298,15.277417,9.329590,13.954347,8.449725,14.716834,8.441695,15.393768,8.455466,18.066342,8.153763,14.658349,6.827634,15.330780,4.213751,0,19.653721,6.576100,18.052321,4.611800,16.823439,5.822304,66.535189,97.449849,34.804718,177.012843,0,0,0,0,0,0,0,0,0,0,0,0,0,0,0,0,0,0,1,0,0,0,0,0,0,0
0.204,3.27665,0.09639,0.00029,0.00454,0.00276,0.00069,0.00059,0.00061,0.00101,0.00058,0.00166,15.730901,10.730642,14.591323,10.662675,15.270351,9.325953,13.955615,8.438487,14.727123,8.430418,15.407508,8.454413,18.059288,8.153498,14.643985,6.823675,15.344566,4.211587,0,19.653064,6.575085,18.041962,4.608924,16.820459,5.818295,66.627909,97.954642,34.869370,176.902400,0,0,0,0,0,0,0,0,0,0,0,0,0,0,0,0,0,0,1,0,0,0,0,0,0,0
0.205,3.27616,0.09646,0.00002,0.00562,0.00281,0.00066,0.00058,0.00059,0.00095,0.00059,0.00182,15.728089,10.727881,14.586399,10.661239,15.263466,9.322318,13.957668,8.427795,14.737683,8.418309,15.421327,8.451954,18.050488,8.152449,14.627479,6.820703,15.360201,4.210391,0,19.654021,6.572744,18.031654,4.606102,16.817344,5.814699,66.730888,98.447939,34.891524,176.957677,0,0,0,0,0,0,0,0,0,0,0,0,0,0,0,0,0,0,1,0,0,0,0,0,0,0
0.206,3.27646,0.09659,0.00000,0.00624,0.00274,0.00064,0.00059,0.00062,0.00094,0.00058,0.00190,15.725335,10.725531,14.581535,10.659684,15.257134,9.318782,13.959021,8.416730,14.747834,8.407179,15.435248,8.448547,18.040889,8.150918,14.611082,6.819870,15.375874,4.210217,0,19.656540,6.569949,18.021592,4.604700,16.814752,5.811846,66.836185,98.914103,34.858090,177.174666,0,0,0,0,0,0,0,0,0,0,0,0,0,0,0,0,0,0,1,0,0,0,0,0,0,0
0.207,3.27695,0.09662,0.00015,0.00743,0.00267,0.00067,0.00062,0.00058,0.00099,0.00060,0.00194,15.722924,10.723594,14.577214,10.657706,15.251725,9.315437,13.958202,8.404381,14.756906,8.398823,15.449288,8.444645,18.031433,8.149207,14.597025,6.822312,15.389788,4.211110,0,19.660569,6.567568,18.011968,4.606067,16.813332,5.810062,66.935905,99.337563,34.756318,177.548913,0,0,0,0,0,0,0,0,0,0,0,0,0,0,0,0,0,0,1,0,0,0,0,0,0,0
0.208,3.27713,0.09626,-0.00013,0.00732,0.00249,0.00064,0.00062,0.00060,0.00100,0.00058,0.00204,15.721012,10.722033,14.573698,10.655218,15.247513,9.312347,13.955021,8.390601,14.764800,8.393956,15.463181,8.440593,18.022679,8.147604,14.585954,6.828039,15.401078,4.212620,0,19.665961,6.566105,18.002548,4.610306,16.813270,5.809323,67.025376,99.707665,34.598362,178.043109,0,0,0,0,0,0,0,0,0,0,0,0,0,0,0,0,0,0,1,0,0,0,0,0,0,0
0.209,3.27684,0.09604,0.00010,0.00663,0.00241,0.00065,0.00063,0.00060,0.00098,0.00057,0.00208,15.719534,10.720745,14.570887,10.652486,15.244613,9.309517,13.951416,8.376513,14.772370,8.391491,15.476182,8.436557,18.014546,8.146374,14.575875,6.835190,15.410432,4.213461,0,19.672420,6.565453,17.992393,4.615433,16.813976,5.809023,67.105310,100.021951,34.437916,178.565144,0,0,0,0,0,0,0,0,0,0,0,0,0,0,0,0,0,0,1,0,0,0,0,0,0,0
0.210,3.27622,0.09627,0.00017,0.00585,0.00228,0.00067,0.00065,0.00060,0.00096,0.00059,0.00204,15.718408,10.719622,14.568645,10.649815,15.243126,9.306946,13.949527,8.363360,14.780563,8.390168,15.487502,8.432684,18.006896,8.145779,14.564541,6.841726,15.418686,4.212271,0,19.679633,6.565448,17.980500,4.619272,16.814785,5.808500,67.176926,100.278746,34.332616,179.017711,0,0,0,0,0,0,0,0,0,0,0,0,0,0,0,0,0,0,1,0,0,0,0,0,0,0
0.211,3.27587,0.09642,-0.00002,0.00560,0.00240,0.00068,0.00064,0.00061,0.00103,0.00057,0.00201,15.717548,10.718556,14.566839,10.647501,15.243148,9.304634,13.951473,8.352375,14.790313,8.388733,15.496362,8.429115,17.999582,8.146079,14.549730,6.845620,15.426673,4.207703,0,19.687287,6.565927,17.965877,4.619665,16.815039,5.807101,67.241502,100.476460,34.339653,179.304266,0,0,0,0,0,0,0,0,0,0,0,0,0,0,0,0,0,0,1,0,0,0,0,0,0,0
0.212,3.27612,0.09624,-0.00025,0.00578,0.00240,0.00065,0.00066,0.00061,0.00139,0.00060,0.00206,15.716863,10.717433,14.565343,10.645552,15.244499,9.302464,13.957800,8.344084,14.801696,8.386216,15.502731,8.425621,17.992208,8.147261,14.530907,6.845918,15.434936,4.199562,0,19.694988,6.566789,17.948520,4.616110,16.814605,5.804659,67.304596,100.620246,34.483570,179.384563,0,0,0,0,0,0,0,0,0,0,0,0,0,0,0,0,0,0,1,0,0,0,0,0,0,0
0.213,3.27672,0.09588,-0.00004,0.00583,0.00211,0.00067,0.00070,0.00058,0.00175,0.00064,0.00213,15.716250,10.716130,14.564056,10.643489,15.246542,9.300124,13.966424,8.337828,14.813358,8.382119,15.507828,8.421350,17.983948,8.148860,14.510352,6.843455,15.443540,4.189574,0,19.702216,6.568037,17.930076,4.610864,16.814224,5.801823,67.378904,100.726496,34.734451,179.312253,0,0,0,0,0,0,0,0,0,0,0,0,0,0,0,0,0,0,1,0,0,0,0,0,0,0
0.214,3.27735,0.09609,0.00002,0.00600,0.00231,0.00066,0.00071,0.00052,0.00167,0.00064,0.00197,15.715604,10.714525,14.562874,10.640785,15.248596,9.297287,13.975014,8.332836,14.823811,8.375989,15.512990,8.415393,17.973939,8.150372,14.490609,6.839233,15.452503,4.179649,0,19.708433,6.569682,17.912348,4.606446,16.814718,5.799321,67.477801,100.812666,35.057217,179.149893,0,0,0,0,0,0,0,0,0,0,0,0,0,0,0,0,0,0,1,0,0,0,0,0,0,0
0.215,3.27760,0.09644,0.00013,0.00492,0.00259,0.00068,0.00071,0.00053,0.00177,0.00062,0.00181,15.714822,10.712495,14.561697,10.636920,15.249982,9.293626,13.981254,8.328339,14.831578,8.367383,15.519542,8.406849,17.961319,8.151289,14.474207,6.834252,15.461841,4.171683,0,19.713110,6.571732,17.897123,4.605350,16.816901,5.797873,67.614522,100.896128,35.416912,178.959663,0,0,0,0,0,0,0,0,0,0,0,0,0,0,0,0,0,0,1,0,0,0,0,0,0,0
0.216,3.27736,0.09632,-0.00015,0.00525,0.00251,0.00068,0.00073,0.00050,0.00211,0.00063,0.00166,15.713924,10.710065,14.560589,10.631808,15.250293,9.289072,13.984176,8.323630,14.836263,8.356516,15.527856,8.395595,17.945496,8.151220,14.462230,6.829308,15.471383,4.166595,0,19.716061,6.573989,17.885116,4.608312,16.820877,5.797713,67.792207,100.987837,35.787757,178.775960,0,0,0,0,0,0,0,0,0,0,0,0,0,0,0,0,0,0,1,0,0,0,0,0,0,0
0.217,3.27706,0.09607,0.00015,0.00627,0.00242,0.00065,0.00070,0.00054,0.00221,0.00059,0.00160,15.713128,10.707509,14.559887,10.626081,15.249572,9.283983,13.985052,8.318111,14.839270,8.344705,15.536719,8.382803,17.926320,8.149957,14.453366,6.824860,15.480641,4.163680,0,19.717671,6.575906,17.875245,4.613129,16.825568,5.798260,67.997158,101.088051,36.159278,178.586837,0,0,0,0,0,0,0,0,0,0,0,0,0,0,0,0,0,0,1,0,0,0,0,0,0,0
0.218,3.27701,0.09613,0.00002,0.00643,0.00245,0.00073,0.00078,0.00054,0.00219,0.00058,0.00149,15.712676,10.705119,14.559950,10.620439,15.247906,9.278757,13.985365,8.311192,14.842171,8.333367,15.544764,8.369768,17.903688,8.147312,14.446073,6.821332,15.489098,4.162076,0,19.718382,6.576905,17.866261,4.617322,16.829784,5.798858,68.214076,101.196013,36.522453,178.375950,0,0,0,0,0,0,0,0,0,0,0,0,0,0,0,0,0,0,1,0,0,0,0,0,0,0
0.219,3.27721,0.09635,-0.00013,0.00651,0.00256,0.00072,0.00075,0.00054,0.00226,0.00058,0.00138,15.712806,10.703189,14.561136,10.615579,15.245382,9.273787,13.986588,8.302292,14.846524,8.323913,15.550640,8.357778,17.877508,8.143100,14.438814,6.819145,15.496244,4.160924,0,19.718638,6.576412,17.856922,4.618432,16.832344,5.798855,68.427675,101.310862,36.868207,178.127182,0,0,0,0,0,0,0,0,0,0,0,0,0,0,0,0,0,0,1,0,0,0,0,0,0,0
0.220,3.27747,0.09649,-0.00013,0.00751,0.00269,0.00072,0.00071,0.00056,0.00231,0.00057,0.00133,15.713648,10.701839,14.563398,10.611873,15.242152,9.269294,13.989264,8.291464,14.852815,8.316955,15.553903,8.347666,17.848874,8.137492,14.430563,6.818357,15.501992,4.159651,0,19.719005,6.574390,17.846519,4.615452,16.832752,5.797972,68.623293,101.424106,37.183623,177.840883,0,0,0,0,0,0,0,0,0,0,0,0,0,0,0,0,0,0,1,0,0,0,0,0,0,0
0.221,3.27732,0.09636,0.00017,0.00786,0.00290,0.00073,0.00067,0.00053,0.00223,0.00060,0.00131,15.715148,10.700906,14.566016,10.609153,15.238478,9.265198,13.992386,8.279814,14.859740,8.311777,15.555628,8.339502,17.820845,8.131246,14.421136,6.818421,15.506962,4.158150,0,19.720258,6.571692,17.835234,4.609802,16.831657,5.796557,68.787315,101.514529,37.449367,177.544878,0,0,0,0,0,0,0,0,0,0,0,0,0,0,0,0,0,0,1,0,0,0,0,0,0,0
0.222,3.27667,0.09604,0.00004,0.00847,0.00280,0.00073,0.00065,0.00055,0.00195,0.00058,0.00115,15.717238,10.700199,14.568209,10.607201,15.234630,9.261396,13.994803,8.268548,14.865824,8.307536,15.557034,8.333287,17.796671,8.125178,14.410429,6.818733,15.511840,4.156361,0,19.723190,6.569255,17.823333,4.603131,16.829817,5.795012,68.906223,101.559707,37.645500,177.269597,0,0,0,0,0,0,0,0,0,0,0,0,0,0,0,0,0,0,1,0,0,0,0,0,0,0
0.223,3.27608,0.09644,0.00002,0.00869,0.00309,0.00074,0.00065,0.00056,0.00150,0.00055,0.00103,15.719848,10.699527,14.569201,10.605797,15.230883,9.257784,13.995370,8.258866,14.869607,8.303399,15.559332,8.329018,17.779569,8.120098,14.398342,6.818695,15.517312,4.154224,0,19.728583,6.568007,17.811084,4.597080,16.827988,5.793741,68.966677,101.537473,37.752292,177.045345,0,0,0,0,0,0,0,0,0,0,0,0,0,0,0,0,0,0,1,0,0,0,0,0,0,0
0.224,3.27597,0.09673,-0.00012,0.00865,0.00313,0.00074,0.00065,0.00058,0.00148,0.00057,0.00098,15.722836,10.698809,14.568830,10.604733,15.227686,9.254415,13.993618,8.251445,14.870674,8.299115,15.563132,8.326609,17.770500,8.116410,14.384800,6.818028,15.523935,4.151676,0,19.736334,6.568259,17.798937,4.592687,16.826732,5.792907,68.968103,101.444660,37.765583,176.893254,0,0,0,0,0,0,0,0,0,0,0,0,0,0,0,0,0,0,1,0,0,0,0,0,0,0
0.225,3.27640,0.09659,0.00010,0.00820,0.00292,0.00072,0.00064,0.00059,0.00135,0.00059,0.00099,15.725943,10.698143,14.567948,10.603827,15.225777,9.251606,13.990205,8.246093,14.870351,8.295408,15.568044,8.325831,17.766656,8.113838,14.369783,6.816993,15.532053,4.148654,0,19.744860,6.569295,17.787635,4.589981,16.826294,5.792281,68.931232,101.309793,37.707179,176.819163,0,0,0,0,0,0,0,0,0,0,0,0,0,0,0,0,0,0,1,0,0,0,0,0,0,0
0.226,3.27711,0.09646,0.00002,0.00761,0.00303,0.00074,0.00061,0.00058,0.00101,0.00060,0.00100,15.728899,10.697643,14.567506,10.602893,15.225927,9.249700,13.985894,8.242536,14.870133,8.293094,15.573584,8.326441,17.764876,8.112045,14.353271,6.815900,15.541988,4.145093,0,19.752439,6.570299,17.777953,4.588897,16.826890,5.791597,68.878814,101.164399,37.601350,176.827458,0,0,0,0,0,0,0,0,0,0,0,0,0,0,0,0,0,0,1,0,0,0,0,0,0,0
0.227,3.27746,0.09690,0.00004,0.00659,0.00317,0.00073,0.00061,0.00056,0.00082,0.00061,0.00100,15.731438,10.697423,14.568446,10.601750,15.228889,9.249031,13.981452,8.240501,14.871498,8.292977,15.579269,8.328193,17.762007,8.110694,14.335250,6.815056,15.554053,4.140930,0,19.757372,6.570464,17.770651,4.589366,16.828732,5.790590,68.833296,101.039475,37.472192,176.922244,0,0,0,0,0,0,0,0,0,0,0,0,0,0,0,0,0,0,1,0,0,0,0,0,0,0
0.228,3.27720,0.09714,0.00013,0.01004,0.00315,0.00069,0.00055,0.00054,0.00087,0.00060,0.00092,15.733565,10.697500,14.571114,10.600360,15.234547,9.249458,13.977878,8.239860,14.875077,8.295183,15.584817,8.330696,17.755755,8.109581,14.315921,6.814463,15.567739,4.136212,0,19.759639,6.569663,17.765455,4.591000,16.831925,5.789245,68.794699,100.926627,37.331219,177.087010,0,0,0,0,0,0,0,0,0,0,0,0,0,0,0,0,0,0,1,0,0,0,0,0,0,0
0.229,3.27693,0.09689,0.00002,0.01019,0.00311,0.00068,0.00059,0.00054,0.00095,0.00060,0.00091,15.735739,10.697729,14.574861,10.598918,15.241327,9.250047,13.976560,8.240732,14.880075,8.298695,15.590277,8.333315,17.745249,8.108722,14.295840,6.813610,15.581172,4.131176,0,19.762026,6.568904,17.760366,4.592885,16.836393,5.787953,68.725645,100.751768,37.168949,177.270851,0,0,0,0,0,0,0,0,0,0,0,0,0,0,0,0,0,0,1,0,0,0,0,0,0,0
0.230,3.27695,0.09681,0.00037,0.00963,0.00316,0.00068,0.00063,0.00053,0.00089,0.00060,0.00090,15.738462,10.697951,14.578942,10.597643,15.247514,9.249790,13.978921,8.243258,14.885564,8.302389,15.595731,8.335391,17.729759,8.108154,14.275599,6.811940,15.592346,4.126075,0,19.767580,6.569299,17.753224,4.594054,16.842043,5.787149,68.585207,100.434581,36.973910,177.419603,0,0,0,0,0,0,0,0,0,0,0,0,0,0,0,0,0,0,1,0,0,0,0,0,0,0
0.231,3.27695,0.09716,0.00002,0.01016,0.00290,0.00068,0.00064,0.00054,0.00084,0.00059,0.00089,15.742233,10.698006,14.582622,10.596751,15.251425,9.247692,13.986355,8.247568,14.890626,8.305148,15.601263,8.336273,17.708570,8.107914,14.255789,6.808902,15.599282,4.121160,0,19.779315,6.571947,17.741887,4.593554,16.848778,5.787259,68.332386,99.895410,36.735149,177.479488,0,0,0,0,0,0,0,0,0,0,0,0,0,0,0,0,0,0,1,0,0,0,0,0,0,0
0.232,3.27678,0.09724,0.00013,0.00986,0.00297,0.00069,0.00066,0.00052,0.00081,0.00060,0.00096,15.747149,10.697848,14.585657,10.596184,15.253425,9.243964,13.998014,8.253038,14.895068,8.306349,15.607199,8.335798,17.682514,8.107937,14.236956,6.804438,15.601920,4.116633,0,19.797581,6.576751,17.725788,4.591235,16.856257,5.788342,67.920803,99.103342,36.479832,177.425461,0,0,0,0,0,0,0,0,0,0,0,0,0,0,0,0,0,0,1,0,0,0,0,0,0,0
0.233,3.27666,0.09720,0.00000,0.00984,0.00289,0.00071,0.00073,0.00051,0.00084,0.00059,0.00096,15.752648,10.697619,14.588626,10.595424,15.257307,9.240825,14.009310,8.257778,14.899905,8.306199,15.614268,8.334624,17.654991,8.107990,14.219566,6.799309,15.603400,4.112612,0,19.818283,6.581623,17.706983,4.588297,16.863732,5.789841,67.295104,98.108768,36.298715,177.280391,0,0,0,0,0,0,0,0,0,0,0,0,0,0,0,0,0,0,1,0,0,0,0,0,0,0
0.234,3.27668,0.09709,0.00013,0.00995,0.00284,0.00068,0.00075,0.00050,0.00088,0.00058,0.00105,15.758101,10.697477,14.592186,10.593913,15.267182,9.240685,14.015301,8.259781,14.906269,8.304980,15.623237,8.333486,17.629643,8.107824,14.204082,6.794359,15.607162,4.109204,0,19.836906,6.584284,17.687776,4.586063,16.870415,5.791141,66.399083,96.969788,36.288581,177.071695,0,0,0,0,0,0,0,0,0,0,0,0,0,0,0,0,0,0,1,0,0,0,0,0,0,0
0.235,3.27665,0.09739,0.00015,0.01031,0.00304,0.00070,0.00078,0.00050,0.00093,0.00056,0.00110,15.762887,10.697579,14.596986,10.591099,15.287132,9.245938,14.011139,8.257073,14.915283,8.302978,15.634868,8.333115,17.610086,8.107191,14.190956,6.790422,15.616616,4.106516,0,19.848978,6.582485,17.670452,4.585846,16.875530,5.791634,65.177533,95.744802,36.545570,176.826670,0,0,0,0,0,0,0,0,0,0,0,0,0,0,0,0,0,0,1,0,0,0,0,0,0,0
0.236,3.27656,0.09766,0.00000,0.01019,0.00296,0.00069,0.00077,0.00051,0.00095,0.00055,0.00111,15.766739,10.697948,14.603049,10.586949,15.318663,9.257892,13.998790,8.250199,14.927517,8.300614,15.649404,8.333854,17.597651,8.106028,14.180173,6.787965,15.632584,4.104293,0,19.853311,6.576019,17.655871,4.587976,16.879047,5.791251,63.648787,94.514107,37.118300,176.563976,0,0,0,0,0,0,0,0,0,0,0,0,0,0,0,0,0,0,1,0,0,0,0,0,0,0
0.237,3.27680,0.09758,0.00013,0.00913,0.00293,0.00070,0.00075,0.00049,0.00096,0.00056,0.00106,15.769983,10.698385,14.609354,10.582302,15.358989,9.276045,13.991590,8.243902,14.942618,8.298538,15.666232,8.335407,17.589868,8.104579,14.170924,6.786841,15.651579,4.101692,0,19.854195,6.568083,17.642513,4.591143,16.882188,5.790823,61.953836,93.394529,37.976122,176.287859,0,0,0,0,0,0,0,0,0,0,0,0,0,0,0,0,0,0,1,0,0,0,0,0,0,0
0.238,3.27736,0.09743,-0.00012,0.00491,0.00298,0.00068,0.00075,0.00049,0.00092,0.00059,0.00115,15.772999,10.698669,14.614781,10.578076,15.404917,9.299722,14.003954,8.243326,14.960144,8.297424,15.684654,8.337414,17.583905,8.103116,14.162330,6.786841,15.669707,4.097809,0,19.856436,6.562197,17.628636,4.593883,16.886291,5.791265,60.245307,92.506356,39.080872,176.001204,0,0,0,0,0,0,0,0,0,0,0,0,0,0,0,0,0,0,1,0,0,0,0,0,0,0
0.239,3.27757,0.09776,0.00000,0.00459,0.00317,0.00067,0.00079,0.00048,0.00077,0.00058,0.00117,15.776169,10.698584,14.618220,10.575184,15.453255,9.328234,14.050135,8.253553,14.979652,8.297936,15.703977,8.339521,17.576949,8.101906,14.153513,6.787759,15.683116,4.091754,0,19.864781,6.561832,17.612515,4.594747,16.892680,5.793483,58.675121,91.968642,40.393769,175.706948,0,0,0,0,0,0,0,0,0,0,0,0,0,0,0,1,0,0,1,0,0,0,0,0,0,0
0.240,3.27721,0.09801,0.00002,0.00448,0.00312,0.00065,0.00076,0.00049,0.00077,0.00061,0.00123,15.779786,10.698100,14.619407,10.574003,15.500796,9.359771,14.132316,8.275342,15.000551,8.300147,15.723578,8.341481,17.567529,8.100996,14.143996,6.789263,15.691170,4.083421,0,19.879375,6.566640,17.593912,4.593302,16.901720,5.797608,57.343221,91.809210,41.830501,175.412090,0,0,0,0,0,0,0,0,0,0,0,0,0,0,0,0,0,0,1,0,0,0,0,0,0,0
0.241,3.27695,0.09777,0.00000,0.00336,0.00326,0.00062,0.00077,0.00048,0.00079,0.00057,0.00130,15.783996,10.697507,14.619481,10.574020,15.544308,9.390659,14.232556,8.302232,15.022002,8.303147,15.742963,8.343238,17.556414,8.100058,14.133960,6.790825,15.698598,4.074019,0,19.892691,6.569915,17.575069,4.590813,16.912171,5.802479,56.262866,91.903723,43.230826,175.130410,0,0,0,0,0,0,0,0,0,0,0,0,0,0,0,0,0,0,1,0,0,0,0,0,0,0
0.242,3.27703,0.09746,0.00027,0.00326,0.00350,0.00062,0.00076,0.00047,0.00081,0.00056,0.00140,15.788934,10.697123,14.619714,10.574636,15.580559,9.417047,14.331006,8.327080,15.043146,8.305933,15.761648,8.344753,17.544584,8.098726,14.123650,6.791895,15.710639,4.064879,0,19.896473,6.564344,17.558459,4.588710,16.922638,5.806815,55.439091,92.113415,44.427297,174.876329,0,0,0,0,0,0,0,0,0,0,0,0,0,0,0,0,0,0,1,0,0,0,0,0,0,0
0.243,3.27687,0.09784,0.00004,0.00293,0.00350,0.00060,0.00069,0.00048,0.00085,0.00055,0.00145,15.794728,10.697264,14.621368,10.575255,15.606349,9.435118,14.407951,8.342799,15.063126,8.307509,15.779154,8.345989,17.533012,8.096641,14.113307,6.791929,15.732478,4.057324,0,19.882651,6.542762,17.546535,4.588405,16.931740,5.809341,54.876475,92.300261,45.254031,174.663942,0,0,0,0,0,0,0,0,0,0,0,0,0,0,0,0,0,0,1,0,0,0,0,0,0,0
0.244,3.27634,0.09792,0.00002,0.00295,0.00356,0.00062,0.00063,0.00047,0.00088,0.00055,0.00149,15.801170,10.697969,14.624917,10.575458,15.620957,9.443614,14.453725,8.346436,15.081616,8.307571,15.795459,8.347108,17.522222,8.093669,14.103010,6.790754,15.765374,4.051940,0,19.856669,6.508805,17.540067,4.590399,16.938770,5.809490,54.546093,92.381098,45.660382,174.483413,0,0,0,0,0,0,0,0,0,0,0,0,0,0,0,0,0,0,1,0,0,0,0,0,0,0
0.245,3.27630,0.09762,-0.00025,0.00298,0.00344,0.00059,0.00066,0.00049,0.00094,0.00056,0.00142,15.807486,10.698821,14.629516,10.575114,15.627795,9.445546,14.475416,8.341939,15.099164,8.306959,15.811301,8.348605,17.511980,8.090062,14.092564,6.788814,15.804042,4.048081,0,19.846516,6.484126,17.537018,4.593670,16.944151,5.807868,54.363135,92.364263,45.787906,174.284990,0,0,0,0,0,0,0,0,0,0,0,0,0,0,0,0,0,0,1,0,0,0,0,0,0,0
0.246,3.27695,0.09730,0.00012,0.00355,0.00329,0.00063,0.00072,0.00048,0.00090,0.00056,0.00149,15.812850,10.699359,14.634199,10.574125,15.630669,9.444332,14.481702,8.333910,15.116402,8.306622,15.827488,8.351007,17.501984,8.086103,14.081748,6.786616,15.842577,4.044986,0,19.882319,6.492086,17.535085,4.597048,16.948416,5.805194,54.237491,92.266771,45.796387,174.015132,0,0,0,0,0,0,0,0,0,0,0,0,0,0,0,0,0,0,1,0,0,0,0,0,0,0
0.247,3.27729,0.09761,0.00013,0.00359,0.00317,0.00063,0.00076,0.00050,0.00087,0.00057,0.00192,15.816445,10.699126,14.638003,10.572392,15.633363,9.443368,14.481226,8.326924,15.133957,8.307498,15.844827,8.354831,17.491932,8.082077,14.070342,6.784659,15.875115,4.041898,0,19.993515,6.555530,17.531978,4.599376,16.952091,5.802182,54.079595,92.105633,45.844654,173.620637,0,0,0,0,0,0,0,0,0,0,0,0,0,0,0,0,0,0,1,0,0,0,0,0,0,0
0.248,3.27695,0.09757,0.00013,0.00361,0.00328,0.00065,0.00077,0.00052,0.00086,0.00055,0.00214,15.818092,10.698046,14.640492,10.570044,15.638155,9.444671,14.480107,8.323656,15.151902,8.309706,15.863815,8.360099,17.481798,8.078167,14.058296,6.783243,15.899034,4.038189,0,20.158659,6.659429,17.526579,4.600281,16.955512,5.799310,53.840165,91.897396,46.020876,173.073116,0,0,0,0,0,0,0,0,0,0,0,0,0,0,0,0,0,0,1,0,0,0,0,0,0,0
0.249,3.27690,0.09745,0.00015,0.00362,0.00369,0.00062,0.00075,0.00053,0.00084,0.00052,0.00239,15.818672,10.696672,14.642104,10.567586,15.644815,9.447957,14.480255,8.323611,15.169395,8.311990,15.884443,8.365999,17.472013,8.074387,14.045841,6.782326,15.917114,4.033454,0,20.271439,6.725579,17.519710,4.600702,16.958691,5.796657,53.537101,91.657848,46.295374,172.385568,0,0,0,0,0,0,0,0,0,0,0,0,0,0,0,0,0,0,1,0,0,0,0,0,0,0
0.250,3.27751,0.09727,0.00015,0.00331,0.00383,0.00063,0.00072,0.00050,0.00083,0.00051,0.00239,15.819168,10.695619,14.643362,10.565558,15.652872,9.452719,14.483179,8.325990,15.185507,8.312969,15.906649,8.371638,17.463053,8.070736,14.033233,6.781837,15.932647,4.027306,0,20.217493,6.669783,17.512381,4.601700,16.961609,5.794267,53.194673,91.402698,46.627293,171.574918,0,0,0,0,0,0,0,0,0,0,0,0,0,0,0,0,0,0,1,0,0,0,0,0,0,0
0.251,3.27795,0.09712,0.00015,0.00299,0.00388,0.00066,0.00069,0.00050,0.00082,0.00052,0.00230,15.820556,10.695499,14.644785,10.564497,15.661862,9.458459,14.490374,8.329998,15.199324,8.311273,15.930376,8.376144,17.455383,8.067214,14.020729,6.781701,15.948900,4.019371,0,19.883878,6.408898,17.505591,4.604328,16.964250,5.792181,52.836911,91.147589,46.975933,170.658490,0,0,0,0,0,0,0,0,0,0,0,0,0,0,0,0,0,0,1,0,0,0,0,0,0,0
0.252,3.27776,0.09740,0.00000,0.00231,0.00352,0.00065,0.00071,0.00049,0.00081,0.00052,0.00227,15.823187,10.696638,14.646721,10.564598,15.671583,9.464981,14.502192,8.334823,15.211049,8.306750,15.955742,8.379862,17.448886,8.063892,14.008542,6.781730,15.967208,4.010041,0,19.262273,5.937406,17.499630,4.608991,16.966637,5.790391,52.470002,90.903015,47.312156,169.683132,0,0,0,0,0,0,0,0,0,0,0,0,0,0,0,0,0,0,1,0,0,0,0,0,0,0
0.253,3.27730,0.09746,0.00013,0.00215,0.00371,0.00066,0.00076,0.00050,0.00074,0.00052,0.00217,15.826376,10.698896,14.649233,10.565490,15.682274,9.472599,14.517079,8.339630,15.222745,8.301268,15.983155,8.385174,17.442472,8.060962,13.996809,6.781545,15.985684,4.000981,0,18.518853,5.379264,17.493600,4.615011,16.968863,5.788802,52.070373,90.670886,47.626105,168.744934,0,0,0,0,0,0,0,0,0,0,0,0,0,0,0,0,0,0,1,0,0,0,0,0,0,0
0.254,3.27697,0.09713,-0.00015,0.00196,0.00345,0.00067,0.00078,0.00052,0.00069,0.00051,0.00206,15.829336,10.702087,14.652359,10.566748,15.694216,9.481675,14.533301,8.343580,15.236656,8.296890,16.013052,8.394655,17.434959,8.058629,13.985662,6.780751,16.002137,3.993980,0,17.836344,4.870710,17.486492,4.621610,16.971030,5.787313,51.611630,90.452298,47.909755,167.944652,0,0,0,0,0,0,0,0,0,0,0,0,0,0,0,0,0,0,1,0,0,0,0,0,0,0
0.255,3.27707,0.09676,-0.00002,0.00181,0.00336,0.00066,0.00074,0.00051,0.00060,0.00051,0.00209,15.831289,10.706022,14.656131,10.567948,15.707687,9.492569,14.549143,8.345847,15.255006,8.295659,16.045852,8.410844,17.425175,8.057093,13.975230,6.778955,16.014407,3.990804,0,17.395925,4.546830,17.477310,4.628009,16.973238,5.785820,51.067632,90.248509,48.155476,167.382199,0,0,0,0,0,0,0,0,0,0,0,0,0,0,0,0,0,0,1,0,0,0,0,0,0,0
0.256,3.27750,0.09704,0.00012,0.00190,0.00407,0.00063,0.00077,0.00050,0.00057,0.00052,0.00207,15.832008,10.710380,14.660424,10.568902,15.722732,9.505428,14.564359,8.346394,15.278711,8.298410,16.080759,8.433588,17.412773,8.056392,13.965452,6.776072,16.022709,3.991666,0,17.264833,4.457877,17.465870,4.633488,16.975657,5.784123,50.431169,90.072818,48.384984,167.094960,0,0,0,0,0,0,0,0,0,0,0,0,0,0,0,0,0,0,1,0,0,0,0,0,0,0
0.257,3.27750,0.09707,0.00025,0.00193,0.00410,0.00067,0.00080,0.00050,0.00056,0.00052,0.00177,15.832179,10.714620,14.664844,10.569805,15.739009,9.520050,14.581152,8.346507,15.306510,8.303953,16.114951,8.458248,17.398781,8.056290,13.955954,6.772528,16.031219,3.994186,0,17.320258,4.512617,17.453343,4.637430,16.978569,5.781860,49.726600,89.958603,48.668938,167.016039,0,0,0,0,0,0,0,0,0,0,0,0,0,0,0,0,0,0,1,0,0,0,0,0,0,0
0.258,3.27687,0.09668,0.00002,0.00195,0.00454,0.00066,0.00085,0.00052,0.00053,0.00053,0.00158,15.832577,10.718179,14.668971,10.570891,15.756141,9.536201,14.601959,8.347597,15.336935,8.310908,16.145410,8.479758,17.384356,8.056523,13.946330,6.768797,16.044486,3.995735,0,17.421368,4.606395,17.441033,4.639226,16.982268,5.778653,48.981279,89.941150,49.082639,167.068646,0,0,0,0,0,0,0,0,0,0,0,0,0,0,0,0,0,0,1,0,0,0,0,0,0,0
0.259,3.27649,0.09634,0.00000,0.00196,0.00402,0.00069,0.00084,0.00051,0.00056,0.00056,0.00129,15.833968,10.720501,14.672389,10.572390,15.773748,9.553641,14.629193,8.351054,15.368526,8.317901,16.169148,8.493095,17.370650,8.056830,13.936181,6.765355,16.067015,3.993711,0,17.428718,4.635535,17.430229,4.638280,16.987041,5.774133,48.222554,90.055427,49.700425,167.176568,0,0,0,0,0,0,0,0,0,0,0,0,0,0,0,0,0,0,1,0,0,0,0,0,0,0
0.260,3.27683,0.09636,0.00004,0.00196,0.00374,0.00071,0.00094,0.00053,0.00056,0.00058,0.00131,15.836573,10.721517,14.675009,10.574416,15.791464,9.572000,14.663758,8.356837,15.400366,8.323907,16.185255,8.496308,17.358272,8.056914,13.925478,6.762649,16.099756,3.987233,0,17.305317,4.568651,17.421352,4.634987,16.992885,5.768542,47.477485,90.313286,50.525580,167.305944,0,0,0,0,0,0,0,0,0,0,0,0,0,0,0,0,0,0,1,0,0,0,0,0,0,0
0.261,3.27748,0.09642,-0.00015,0.00190,0.00368,0.00071,0.00099,0.00053,0.00057,0.00058,0.00130,15.839693,10.721978,14.677276,10.576879,15.808941,9.590683,14.704033,8.362518,15.432451,8.328489,16.196286,8.492577,17.346929,8.056422,13.914813,6.761089,16.137740,3.978290,0,17.185059,4.494925,17.413374,4.631390,16.999306,5.763137,46.772645,90.688013,51.442883,167.493551,0,0,0,0,0,0,0,0,0,0,0,0,0,0,0,0,0,0,1,0,0,0,0,0,0,0
0.262,3.27798,0.09643,0.00013,0.00189,0.00389,0.00074,0.00097,0.00054,0.00057,0.00059,0.00122,15.842546,10.722709,14.679692,10.579672,15.825833,9.609076,14.748158,8.365441,15.464862,8.331265,16.205125,8.485567,17.336243,8.054996,13.904836,6.761080,16.175433,3.969145,0,17.218043,4.514975,17.405129,4.629689,17.005764,5.759273,46.134562,91.149238,52.325869,167.782868,0,0,0,0,0,0,0,0,0,0,0,0,0,0,0,0,0,0,1,0,0,0,0,0,0,0
0.263,3.27797,0.09624,0.00027,0.00187,0.00365,0.00072,0.00093,0.00054,0.00058,0.00058,0.00125,15.844355,10.724529,14.682753,10.582691,15.841795,9.626566,14.794274,8.362981,15.497678,8.331866,16.214646,8.478927,17.325837,8.052284,13.896190,6.763017,16.207348,3.962048,0,17.552706,4.728328,17.395459,4.632058,17.011725,5.758288,45.589568,91.666649,53.049219,168.216757,0,0,0,0,0,0,0,0,0,0,0,0,0,0,0,0,0,0,1,0,0,0,0,0,0,0
0.264,3.27745,0.09597,0.00012,0.00187,0.00384,0.00073,0.00099,0.00055,0.00060,0.00059,0.00133,15.844872,10.727831,14.686724,10.585937,15.856597,9.642800,14.840520,8.354906,15.530993,8.330858,16.227043,8.475046,17.315378,8.048397,13.888986,6.766656,16.231245,3.958384,0,18.214628,5.154062,17.383884,4.638614,17.017008,5.760304,45.149590,92.214187,53.572005,168.792708,0,0,0,0,0,0,0,0,0,0,0,0,0,0,0,0,0,0,1,0,0,0,0,0,0,0
0.265,3.27707,0.09624,-0.00002,0.00175,0.00406,0.00074,0.00103,0.00055,0.00060,0.00056,0.00132,15.844723,10.732288,14.691486,10.589594,15.870196,9.657859,14.885033,8.344964,15.564922,8.330366,16.243371,8.474211,17.304610,8.044217,13.882450,6.770687,16.250302,3.958089,0,19.024489,5.677081,17.371048,4.646050,17.022029,5.763412,44.802522,92.772884,53.994047,169.432537,0,0,0,0,0,0,0,0,0,0,0,0,0,0,0,0,0,0,1,0,0,0,0,0,0,0
0.266,3.27710,0.09651,0.00013,0.00096,0.00357,0.00073,0.00100,0.00055,0.00061,0.00056,0.00127,15.844621,10.737510,14.696886,10.593859,15.882567,9.671862,14.925951,8.337283,15.599579,8.332664,16.264578,8.476511,17.293287,8.040702,13.875721,6.773698,16.268213,3.960961,0,19.783535,6.169561,17.357703,4.650732,17.027257,5.765511,44.533981,93.324447,54.428514,170.050878,0,0,0,0,0,0,0,0,0,0,0,0,0,0,0,0,0,0,1,0,0,0,0,0,0,0
0.267,3.27710,0.09626,0.00015,0.00073,0.00350,0.00068,0.00092,0.00055,0.00059,0.00055,0.00124,15.845270,10.743103,14.702765,10.598930,15.893687,9.684928,14.961429,8.335950,15.635074,8.339991,16.291587,8.482014,17.281166,8.038799,13.867948,6.774292,16.288643,3.966794,0,20.294548,6.504658,17.344596,4.649064,17.033158,5.764519,44.329618,93.850651,54.987972,170.562952,0,0,0,0,0,0,0,0,0,0,0,0,0,0,0,0,0,0,1,0,0,0,0,0,0,0
0.268,3.27692,0.09596,0.00013,0.00063,0.00295,0.00067,0.00087,0.00055,0.00063,0.00054,0.00125,15.846944,10.748763,14.708803,10.604687,15.903571,9.696982,14.991019,8.342017,15.670998,8.352085,16.323344,8.489389,17.268408,8.038919,13.858838,6.772258,16.313136,3.974874,0,20.473689,6.627795,17.332118,4.640217,17.039806,5.759778,44.177586,94.338237,55.740279,170.926883,0,0,0,0,0,0,0,0,0,0,0,0,0,0,0,0,0,0,1,0,0,0,0,0,0,0
0.269,3.27710,0.09616,0.00015,0.00060,0.00284,0.00067,0.00084,0.00055,0.00062,0.00053,0.00123,15.849195,10.754324,14.714407,10.610492,15.912297,9.707624,15.016597,8.351474,15.706081,8.364516,16.355501,8.494965,17.255855,8.040573,13.849031,6.769363,16.339708,3.983647,0,20.426223,6.604917,17.320060,4.627979,17.046619,5.753005,44.070217,94.782233,56.678735,171.172356,0,0,0,0,0,0,0,0,0,0,0,0,0,0,0,0,0,0,1,0,0,0,0,0,0,0
0.270,3.27774,0.09641,-0.00010,0.00056,0.00285,0.00063,0.00076,0.00057,0.00066,0.00051,0.00122,15.851507,10.759635,14.718956,10.615655,15.919953,9.716427,15.040262,8.359829,15.738969,8.372454,16.383401,8.494848,17.244411,8.043187,13.839254,6.767561,16.366036,3.991480,0,20.275350,6.513404,17.308159,4.616571,17.052958,5.746144,44.000239,95.178456,57.789566,171.335843,0,0,0,0,0,0,0,0,0,0,0,0,0,0,0,0,0,0,1,0,0,0,0,0,0,0
0.271,3.27806,0.09638,0.00012,0.00053,0.00261,0.00069,0.00073,0.00055,0.00067,0.00052,0.00124,15.853372,10.764547,14.721841,10.619492,15.926626,9.722966,15.064093,8.362629,15.768334,8.371117,16.402445,8.485183,17.234966,8.046189,13.830231,6.768788,16.389815,3.996756,0,20.143523,6.430173,17.296154,4.610185,17.058185,5.741124,43.960378,95.522675,59.058427,171.454239,0,0,0,0,0,0,0,0,0,0,0,0,0,0,0,0,0,0,1,0,0,0,0,0,0,0
0.272,3.27766,0.09614,0.00013,0.00053,0.00225,0.00066,0.00070,0.00058,0.00066,0.00052,0.00124,15.854778,10.768975,14.723117,10.621745,15.932588,9.727229,15.088885,8.358181,15.794542,8.359033,16.412654,8.464784,17.227520,8.049213,13.822410,6.773634,16.409970,3.999223,0,20.098095,6.397996,17.284018,4.610529,17.062127,5.738844,43.943243,95.807530,60.428857,171.595359,0,0,0,0,0,0,0,0,0,0,0,0,0,0,0,0,0,0,1,0,0,0,0,0,0,0
0.273,3.27689,0.09611,0.00000,0.00052,0.00221,0.00064,0.00068,0.00058,0.00067,0.00055,0.00127,15.856547,10.772943,14.723952,10.622863,15.938421,9.729891,15.113286,8.349399,15.820782,8.340256,16.421746,8.436926,17.220585,8.052235,13.815783,6.780452,16.427475,4.000902,0,20.114517,6.402703,17.272114,4.615171,17.065385,5.738487,43.941250,96.020431,61.774145,171.878601,0,0,0,0,0,0,0,0,0,0,0,0,0,0,0,0,0,0,1,0,0,0,0,0,0,0
0.274,3.27617,0.09643,-0.00012,0.00053,0.00193,0.00063,0.00064,0.00060,0.00065,0.00056,0.00122,15.859577,10.776486,14.725621,10.623363,15.944735,9.731689,15.135742,8.339630,15.850515,8.319362,16.438169,8.405302,17.212530,8.055263,13.810298,6.787377,16.443499,4.004029,0,20.159525,6.424718,17.260843,4.621288,17.068630,5.739070,43.946799,96.148294,62.960919,172.428254,0,0,0,0,0,0,0,0,0,0,0,0,0,0,0,0,0,0,1,0,0,0,0,0,0,0
0.275,3.27589,0.09656,0.00013,0.00053,0.00167,0.00065,0.00056,0.00059,0.00068,0.00058,0.00146,15.864759,10.779638,14.729387,10.623758,15.952136,9.733357,15.154716,8.332201,15.887163,8.300899,16.470287,8.373587,17.201735,8.058313,13.805897,6.792562,16.459203,4.010815,0,20.200048,6.444581,17.250601,4.626077,17.072530,5.739618,43.952388,96.178265,63.857193,173.366802,0,0,0,0,0,0,0,0,0,0,0,0,0,0,0,0,0,0,1,0,0,0,0,0,0,0
0.276,3.27613,0.09638,-0.00002,0.00057,0.00134,0.00068,0.00055,0.00067,0.00071,0.00059,0.00174,15.872253,10.782417,14.735762,10.624348,15.960840,9.735318,15.169956,8.328697,15.931333,8.287263,16.520209,8.343737,17.187289,8.061879,13.802255,6.795066,16.475115,4.021654,0,20.217367,6.451232,17.241437,4.628233,17.077366,5.739468,43.958064,96.114455,64.433293,174.683675,0,0,0,0,0,0,0,0,0,0,0,0,0,0,0,0,0,0,1,0,0,0,0,0,0,0
0.277,3.27644,0.09624,0.00031,0.00056,0.00124,0.00068,0.00053,0.00068,0.00073,0.00056,0.00160,15.881002,10.784812,14.744007,10.625074,15.970420,9.737470,15.183356,8.327810,15.978941,8.277264,16.579607,8.314846,17.169466,8.067260,13.798598,6.795473,16.490713,4.033907,0,20.216696,6.447616,17.232823,4.628947,17.082779,5.738485,43.976456,95.989276,64.830188,176.146375,0,0,0,0,0,0,0,0,0,0,0,0,0,0,0,0,0,0,1,0,0,0,0,0,0,0
0.278,3.27665,0.09657,0.00029,0.00055,0.00123,0.00068,0.00054,0.00069,0.00074,0.00060,0.00160,15.889837,10.786810,14.753265,10.625841,15.980387,9.739665,15.197010,8.327951,16.025457,8.269372,16.639162,8.285741,17.148654,8.075831,13.794108,6.794508,16.505373,4.044648,0,20.205517,6.438008,17.224174,4.629650,17.088347,5.736583,44.021389,95.837822,65.205031,177.501361,0,0,0,0,0,0,0,0,0,0,0,0,0,0,0,0,0,0,1,0,0,0,0,0,0,0
0.279,3.27721,0.09682,0.00042,0.00056,0.00118,0.00071,0.00054,0.00073,0.00090,0.00063,0.00168,15.897597,10.788399,14.762682,10.626558,15.990252,9.741751,15.212996,8.327547,16.066378,8.262056,16.689618,8.255252,17.125251,8.088935,13.787976,6.792893,16.518479,4.050974,0,20.191278,6.426666,17.214913,4.631757,17.093652,5.733677,44.106631,95.695028,65.713972,178.496379,0,0,0,0,0,0,0,0,0,0,0,0,0,0,0,0,0,0,1,0,0,0,0,0,0,0
0.280,3.27807,0.09663,0.00029,0.00057,0.00113,0.00072,0.00053,0.00077,0.00096,0.00066,0.00171,15.903979,10.789652,14.771732,10.627184,15.999577,9.743477,15.231815,8.325884,16.099138,8.253714,16.726078,8.222823,17.100439,8.105799,13.779968,6.791148,16.529815,4.051706,0,20.178660,6.416578,17.204802,4.635796,17.098586,5.729892,44.241913,95.583933,66.439274,178.974433,0,0,0,0,0,0,0,0,0,0,0,0,0,0,0,0,0,0,1,0,0,0,0,0,0,0
0.281,3.27830,0.09639,0.00002,0.00058,0.00115,0.00067,0.00054,0.00082,0.00096,0.00067,0.00210,15.910109,10.790784,14.780437,10.627763,16.008008,9.744428,15.251353,8.323680,16.124407,8.242625,16.750919,8.188910,17.076714,8.122112,13.770808,6.789450,16.539839,4.048542,0,20.167732,6.408620,17.194177,4.640800,17.103556,5.725695,44.430232,95.507741,67.339954,178.937401,0,0,0,0,0,0,0,0,0,0,0,0,0,0,0,0,0,0,1,0,0,0,0,0,0,0
0.282,3.27765,0.09677,-0.00004,0.00059,0.00122,0.00070,0.00054,0.00082,0.00098,0.00071,0.00253,15.917246,10.792024,14.788870,10.628348,16.015197,9.744172,15.269243,8.321792,16.143160,8.227061,16.767211,8.154067,17.056695,8.133229,13.761313,6.787944,16.549070,4.043452,0,20.158124,6.403466,17.183427,4.645667,17.109017,5.721588,44.673942,95.467774,68.363344,178.402228,0,0,0,0,0,0,0,0,0,0,0,0,0,0,0,0,0,0,1,0,0,0,0,0,0,0
