"Time"	"1 Synch"	"2 Trdml"	"3 Platform"
0.000	3.27662	0.10178	1.48361
0.001	3.27671	0.10181	1.48402
0.002	3.27702	0.10143	1.48241
0.003	3.27733	0.10162	1.48631
0.004	3.27751	0.10178	1.48135
0.005	3.27761	0.10159	1.48076
0.006	3.27767	0.10139	1.48344
0.007	3.27754	0.10174	1.48518
0.008	3.27724	0.10157	1.48109
0.009	3.27715	0.10113	1.48340
0.010	3.27742	0.10148	1.48500
0.011	3.27759	0.10150	1.48152
0.012	3.27732	0.10098	1.48639
0.013	3.27667	0.10097	1.48422
0.014	3.27598	0.10117	1.48453
0.015	3.27601	0.10084	1.48247
0.016	3.27700	0.10046	1.48367
0.017	3.27784	0.10073	1.48311
0.018	3.27780	0.10065	1.48438
0.019	3.27734	0.10031	1.48308
0.020	3.27699	0.10009	1.48366
0.021	3.27703	0.10020	1.48387
0.022	3.27748	0.10017	1.48302
0.023	3.27775	0.09984	1.48360
0.024	3.27754	0.09958	1.48216
0.025	3.27724	0.09985	1.48405
0.026	3.27709	0.09983	1.48610
0.027	3.27671	0.09949	1.48424
0.028	3.27600	0.09952	1.48445
0.029	3.27558	0.09990	1.48506
0.030	3.27584	0.09968	1.48128
0.031	3.27652	0.09920	1.48355
0.032	3.27727	0.09950	1.48386
0.033	3.27783	0.09969	1.48456
0.034	3.27802	0.09929	1.48001
0.035	3.27782	0.09911	1.48418
0.036	3.27738	0.09942	1.48399
0.037	3.27711	0.09934	1.48364
0.038	3.27726	0.09911	1.48358
0.039	3.27746	0.09927	1.48676
0.040	3.27741	0.09953	1.48666
0.041	3.27703	0.09950	1.48347
0.042	3.27649	0.09930	1.48398
0.043	3.27642	0.09952	1.48206
0.044	3.27699	0.09970	1.48792
0.045	3.27727	0.09948	1.48274
0.046	3.27677	0.09932	1.48471
0.047	3.27633	0.09968	1.48479
0.048	3.27652	0.09973	1.48325
0.049	3.27688	0.09938	1.48378
0.050	3.27705	0.09955	1.48262
0.051	3.27715	0.09978	1.48280
0.052	3.27727	0.09973	1.48367
0.053	3.27726	0.09950	1.48738
0.054	3.27714	0.09999	1.48592
0.055	3.27739	0.10006	1.48384
0.056	3.27806	0.09959	1.48372
0.057	3.27810	0.09983	1.48232
0.058	3.27709	0.10007	1.48344
0.059	3.27629	0.09981	1.48318
0.060	3.27645	0.09949	1.48451
0.061	3.27667	0.09982	1.48300
0.062	3.27641	0.09986	1.48343
0.063	3.27644	0.09955	1.48364
0.064	3.27714	0.09953	1.48444
0.065	3.27762	0.09979	1.48425
0.066	3.27735	0.09983	1.48434
0.067	3.27691	0.09954	1.48581
0.068	3.27679	0.09970	1.48575
0.069	3.27684	0.09990	1.48438
0.070	3.27688	0.09982	1.48495
0.071	3.27679	0.09944	1.48070
0.072	3.27661	0.09968	1.48337
0.073	3.27674	0.09988	1.48451
0.074	3.27733	0.09961	1.48358
0.075	3.27779	0.09951	1.48473
0.076	3.27778	0.09995	1.47934
0.077	3.27754	0.09990	1.48293
0.078	3.27738	0.09946	1.48265
0.079	3.27749	0.09994	1.48335
0.080	3.27783	0.10007	1.48253
0.081	3.27784	0.09967	1.47401
0.082	3.27728	0.09977	1.48480
0.083	3.27675	0.10017	1.48238
0.084	3.27668	0.09997	1.48389
0.085	3.27687	0.09977	1.48335
0.086	3.27707	0.10010	1.48247
0.087	3.27712	0.10021	1.48163
0.088	3.27700	0.10005	1.48360
0.089	3.27700	0.10002	1.48143
0.090	3.27732	0.10027	1.48393
0.091	3.27786	0.10023	1.48447
0.092	3.27838	0.09997	1.48401
0.093	3.27847	0.10012	1.48471
0.094	3.27799	0.10032	1.48486
0.095	3.27753	0.10012	1.48329
0.096	3.27746	0.09990	1.48517
0.097	3.27741	0.10029	1.48161
0.098	3.27715	0.10031	1.48410
0.099	3.27696	0.10000	1.48300
0.100	3.27703	0.10022	1.48528
0.101	3.27714	0.10047	1.48389
0.102	3.27717	0.10030	1.48488
0.103	3.27734	0.10002	1.48322
0.104	3.27770	0.10044	1.48239
0.105	3.27790	0.10042	1.48492
0.106	3.27771	0.09993	1.48639
0.107	3.27737	0.10020	1.48201
0.108	3.27709	0.10043	1.48332
0.109	3.27697	0.10012	1.48195
0.110	3.27703	0.10003	1.48297
0.111	3.27715	0.10037	1.48483
0.112	3.27728	0.10028	1.48495
0.113	3.27749	0.10001	1.48325
0.114	3.27772	0.10038	1.48096
0.115	3.27747	0.10052	1.48705
0.116	3.27665	0.10028	1.48154
0.117	3.27621	0.10013	1.48515
0.118	3.27667	0.10026	1.48282
0.119	3.27719	0.10023	1.48413
0.120	3.27718	0.09994	1.48401
0.121	3.27693	0.09971	1.48038
0.122	3.27678	0.09997	1.48378
0.123	3.27687	0.09994	1.48499
0.124	3.27720	0.09960	1.48322
0.125	3.27747	0.09980	1.48392
0.126	3.27749	0.10011	1.48546
0.127	3.27742	0.09987	1.48567
0.128	3.27741	0.09959	1.48595
0.129	3.27745	0.10005	1.48276
0.130	3.27752	0.10009	1.48361
0.131	3.27761	0.09962	1.48341
0.132	3.27763	0.09980	1.48537
0.133	3.27734	0.10007	1.48164
0.134	3.27672	0.09974	1.48495
0.135	3.27634	0.09950	1.48318
0.136	3.27651	0.09991	1.48239
0.137	3.27667	0.09990	1.48294
0.138	3.27650	0.09971	1.48096
0.139	3.27636	0.09966	1.48203
0.140	3.27654	0.09993	1.48164
0.141	3.27690	0.09986	1.48503
0.142	3.27720	0.09959	1.48312
0.143	3.27704	0.09966	1.48293
0.144	3.27632	0.09987	1.48378
0.145	3.27566	0.09975	1.48265
0.146	3.27556	0.09936	1.48325
0.147	3.27605	0.09971	1.48364
0.148	3.27692	0.09991	1.48529
0.149	3.27750	0.09963	1.48515
0.150	3.27739	0.09943	1.48259
0.151	3.27686	0.09973	1.48322
0.152	3.27638	0.09968	1.48387
0.153	3.27668	0.09909	1.48358
0.154	3.27786	0.09925	1.48457
0.155	3.27852	0.09946	1.48277
0.156	3.27786	0.09917	1.48267
0.157	3.27678	0.09881	1.48396
0.158	3.27617	0.09899	1.48523
0.159	3.27631	0.09910	1.48494
0.160	3.27706	0.09906	1.48477
0.161	3.27743	0.09868	1.48544
0.162	3.27694	0.09887	1.48486
0.163	3.27648	0.09904	1.48375
0.164	3.27658	0.09890	1.47855
0.165	3.27665	0.09854	1.48358
0.166	3.27638	0.09882	1.48186
0.167	3.27644	0.09900	1.48419
0.168	3.27714	0.09875	1.48305
0.169	3.27762	0.09859	1.48329
0.170	3.27737	0.09898	1.48230
0.171	3.27689	0.09903	1.48216
0.172	3.27665	0.09861	1.48363
0.173	3.27671	0.09882	1.48299
0.174	3.27699	0.09914	1.48416
0.175	3.27713	0.09903	1.48334
0.176	3.27695	0.09887	1.48120
0.177	3.27682	0.09931	1.48381
0.178	3.27701	0.09932	1.48216
0.179	3.27736	0.09913	1.48267
0.180	3.27769	0.09904	1.48392
0.181	3.27793	0.09937	1.48395
0.182	3.27799	0.09940	1.48491
0.183	3.27785	0.09905	1.48257
0.184	3.27751	0.09925	1.48349
0.185	3.27703	0.09954	1.47975
0.186	3.27661	0.09952	1.48355
0.187	3.27678	0.09935	1.48219
0.188	3.27756	0.09974	1.48436
0.189	3.27786	0.09984	1.49202
0.190	3.27713	0.09956	1.48355
0.191	3.27645	0.09964	1.48587
0.192	3.27654	0.10000	1.48427
0.193	3.27688	0.09990	1.48267
0.194	3.27707	0.09949	1.48141
0.195	3.27737	0.09996	1.48453
0.196	3.27786	0.10007	1.48361
0.197	3.27802	0.09971	1.48215
0.198	3.27758	0.09979	1.48499
0.199	3.27704	0.10008	1.48448
0.200	3.27684	0.09990	1.48343
0.201	3.27705	0.09955	1.48445
0.202	3.27749	0.09985	1.48372
0.203	3.27753	0.09987	1.48502
0.204	3.27694	0.09963	1.48233
0.205	3.27648	0.09930	1.48262
0.206	3.27665	0.09954	1.48323
0.207	3.27705	0.09963	1.48236
0.208	3.27724	0.09939	1.48300
0.209	3.27706	0.09920	1.48409
0.210	3.27658	0.09951	1.48500
0.211	3.27638	0.09940	1.48354
0.212	3.27673	0.09911	1.48216
0.213	3.27721	0.09888	1.48122
0.214	3.27748	0.09917	1.48131
0.215	3.27761	0.09905	1.48465
0.216	3.27764	0.09860	1.48315
0.217	3.27756	0.09863	1.48282
0.218	3.27731	0.09889	1.48430
0.219	3.27688	0.09872	1.48242
0.220	3.27642	0.09838	1.48358
0.221	3.27643	0.09856	1.48375
0.222	3.27703	0.09870	1.48489
0.223	3.27747	0.09860	1.48222
0.224	3.27733	0.09828	1.48508
0.225	3.27711	0.09841	1.48177
0.226	3.27714	0.09865	1.48375
0.227	3.27710	0.09860	1.48427
0.228	3.27685	0.09829	1.48228
0.229	3.27688	0.09858	1.48126
0.230	3.27739	0.09889	1.48183
0.231	3.27777	0.09869	1.48569
0.232	3.27761	0.09854	1.48531
0.233	3.27720	0.09911	1.48315
0.234	3.27681	0.09915	1.48303
0.235	3.27645	0.09892	1.48369
0.236	3.27625	0.09943	1.49023
0.237	3.27668	0.09976	1.48378
0.238	3.27769	0.09949	1.48247
0.239	3.27798	0.09945	1.47836
0.240	3.27698	0.09981	1.48253
0.241	3.27614	0.09970	1.48540
0.242	3.27637	0.09943	1.48239
0.243	3.27691	0.09980	1.48291
0.244	3.27710	0.09990	1.48201
0.245	3.27714	0.09972	1.48320
0.246	3.27727	0.09978	1.48210
0.247	3.27748	0.10006	1.48347
0.248	3.27771	0.10008	1.48567
0.249	3.27771	0.09991	1.48343
0.250	3.27744	0.10012	1.48341
0.251	3.27728	0.10029	1.48264
0.252	3.27736	0.10012	1.48169
0.253	3.27720	0.09986	1.48759
0.254	3.27659	0.10019	1.48129
0.255	3.27618	0.10022	1.48344
0.256	3.27637	0.09983	1.48238
0.257	3.27673	0.09988	1.48491
0.258	3.27693	0.10018	1.48412
0.259	3.27698	0.10005	1.48410
0.260	3.27705	0.09961	1.48300
0.261	3.27738	0.10002	1.48282
0.262	3.27789	0.10014	1.48380
0.263	3.27778	0.09972	1.48386
0.264	3.27682	0.09964	1.48334
0.265	3.27640	0.09999	1.48227
0.266	3.27721	0.09979	1.48209
0.267	3.27797	0.09951	1.48369
0.268	3.27782	0.09963	1.48384
0.269	3.27758	0.09983	1.48347
0.270	3.27774	0.09968	1.48636
0.271	3.27767	0.09956	1.48422
0.272	3.27707	0.09978	1.48413
0.273	3.27664	0.09975	1.48381
0.274	3.27684	0.09952	1.48370
0.275	3.27718	0.09941	1.48409
0.276	3.27728	0.09973	1.47723
0.277	3.27729	0.09970	1.48743
0.278	3.27731	0.09938	1.48375
0.279	3.27726	0.09949	1.48331
0.280	3.27710	0.09981	1.48236
0.281	3.27696	0.09966	1.48401
0.282	3.27696	0.09945	1.48352
0.283	3.27720	0.09999	1.48373
0.284	3.27765	0.09997	1.48241
0.285	3.27791	0.09964	1.48688
0.286	3.27778	0.09999	1.48248
0.287	3.27755	0.10028	1.48421
0.288	3.27750	0.10001	1.48380
0.289	3.27762	0.10007	1.48409
0.290	3.27779	0.10049	1.48291
0.291	3.27768	0.10040	1.48480
0.292	3.27725	0.10018	1.48352
0.293	3.27718	0.10065	1.48326
0.294	3.27775	0.10066	1.48123
0.295	3.27825	0.10052	1.48306
0.296	3.27817	0.10074	1.48431
0.297	3.27782	0.10102	1.48212
0.298	3.27749	0.10084	1.48257
0.299	3.27724	0.10071	1.48386
0.300	3.27706	0.10088	1.48212
0.301	3.27674	0.10087	1.48503
0.302	3.27635	0.10056	1.48373
0.303	3.27646	0.10047	1.48436
0.304	3.27724	0.10066	1.48224
0.305	3.27778	0.10048	1.48331
0.306	3.27751	0.10005	1.48279
0.307	3.27684	0.10029	1.48393
0.308	3.27622	0.10045	1.48399
0.309	3.27587	0.10012	1.48470
0.310	3.27595	0.09992	1.48337
0.311	3.27652	0.10019	1.48283
0.312	3.27738	0.10015	1.48282
0.313	3.27773	0.09960	1.48108
0.314	3.27722	0.09964	1.48410
0.315	3.27657	0.09985	1.48466
0.316	3.27633	0.09950	1.48076
0.317	3.27639	0.09911	1.48425
0.318	3.27657	0.09926	1.48216
0.319	3.27668	0.09927	1.48322
0.320	3.27675	0.09912	1.48163
0.321	3.27708	0.09883	1.48322
0.322	3.27771	0.09883	1.48271
0.323	3.27783	0.09901	1.48352
0.324	3.27714	0.09887	1.48470
0.325	3.27665	0.09850	1.48230
0.326	3.27696	0.09869	1.48447
0.327	3.27731	0.09892	1.47539
0.328	3.27718	0.09881	1.48221
0.329	3.27695	0.09852	1.48373
0.330	3.27692	0.09898	1.48520
0.331	3.27699	0.09907	1.48337
0.332	3.27707	0.09880	1.48224
0.333	3.27737	0.09895	1.48276
0.334	3.27784	0.09932	1.48341
0.335	3.27782	0.09921	1.48410
0.336	3.27710	0.09905	1.48277
0.337	3.27666	0.09946	1.48470
0.338	3.27700	0.09947	1.48242
0.339	3.27729	0.09932	1.48340
0.340	3.27700	0.09939	1.48311
0.341	3.27684	0.09973	1.48364
0.342	3.27723	0.09984	1.48256
0.343	3.27764	0.09968	1.48265
0.344	3.27765	0.10001	1.48532
0.345	3.27736	0.10019	1.48352
0.346	3.27702	0.10005	1.48311
0.347	3.27702	0.10013	1.48375
0.348	3.27744	0.10049	1.48024
0.349	3.27755	0.10043	1.48396
0.350	3.27707	0.10012	1.48161
0.351	3.27685	0.10041	1.48303
0.352	3.27731	0.10054	1.48402
0.353	3.27758	0.10029	1.48145
0.354	3.27716	0.10037	1.48390
0.355	3.27680	0.10073	1.48244
0.356	3.27700	0.10057	1.48323
0.357	3.27734	0.10019	1.48503
0.358	3.27743	0.10056	1.48613
0.359	3.27721	0.10052	1.48355
0.360	3.27678	0.10004	1.48264
0.361	3.27650	0.10005	1.48409
0.362	3.27660	0.10016	1.48383
0.363	3.27688	0.09996	1.48569
0.364	3.27712	0.09946	1.48349
0.365	3.27710	0.09950	1.48131
0.366	3.27685	0.09958	1.48224
0.367	3.27688	0.09942	1.48683
0.368	3.27740	0.09907	1.48410
0.369	3.27777	0.09910	1.48311
0.370	3.27757	0.09922	1.48418
0.371	3.27723	0.09905	1.48257
0.372	3.27702	0.09860	1.48267
0.373	3.27676	0.09866	1.48360
0.374	3.27633	0.09895	1.48422
0.375	3.27602	0.09873	1.48178
0.376	3.27603	0.09826	1.48212
0.377	3.27628	0.09864	1.47929
0.378	3.27662	0.09881	1.48618
0.379	3.27685	0.09853	1.48520
0.380	3.27683	0.09828	1.48407
0.381	3.27662	0.09870	1.48251
0.382	3.27636	0.09874	1.48073
0.383	3.27642	0.09852	1.48402
0.384	3.27692	0.09839	1.48276
0.385	3.27733	0.09859	1.48267
0.386	3.27730	0.09866	1.48366
0.387	3.27709	0.09849	1.48474
0.388	3.27694	0.09841	1.48503
0.389	3.27679	0.09876	1.48317
0.390	3.27667	0.09879	1.48270
0.391	3.27670	0.09849	1.48280
0.392	3.27691	0.09857	1.48555
0.393	3.27696	0.09887	1.48552
0.394	3.27671	0.09874	1.48328
0.395	3.27650	0.09831	1.48346
0.396	3.27656	0.09855	1.48260
0.397	3.27669	0.09878	1.48508
0.398	3.27675	0.09846	1.48375
0.399	3.27686	0.09812	1.48369
0.400	3.27704	0.09845	1.48355
0.401	3.27713	0.09857	1.49019
0.402	3.27703	0.09845	1.48038
0.403	3.27699	0.09816	1.48271
0.404	3.27711	0.09826	1.48384
0.405	3.27710	0.09846	1.47983
0.406	3.27686	0.09832	1.48405
0.407	3.27687	0.09792	1.48311
0.408	3.27732	0.09818	1.48451
0.409	3.27759	0.09842	1.48303
0.410	3.27732	0.09819	1.48569
0.411	3.27691	0.09784	1.48468
0.412	3.27681	0.09823	1.48415
0.413	3.27728	0.09850	1.48155
0.414	3.27817	0.09815	1.48373
0.415	3.27846	0.09821	1.48401
0.416	3.27769	0.09864	1.48233
0.417	3.27686	0.09867	1.48352
0.418	3.27669	0.09839	1.48360
0.419	3.27686	0.09862	1.48289
0.420	3.27703	0.09870	1.48470
0.421	3.27715	0.09861	1.48347
0.422	3.27722	0.09831	1.48320
0.423	3.27730	0.09838	1.48366
0.424	3.27745	0.09865	1.48453
0.425	3.27762	0.09857	1.48334
0.426	3.27773	0.09820	1.48564
0.427	3.27750	0.09846	1.48309
0.428	3.27690	0.09874	1.48526
0.429	3.27648	0.09863	1.48541
0.430	3.27653	0.09841	1.48311
0.431	3.27669	0.09899	1.48477
0.432	3.27667	0.09907	1.48524
0.433	3.27669	0.09873	1.48407
0.434	3.27684	0.09882	1.48332
0.435	3.27678	0.09923	1.48253
0.436	3.27644	0.09905	1.48227
0.437	3.27642	0.09880	1.48218
0.438	3.27701	0.09922	1.48232
0.439	3.27748	0.09933	1.48441
0.440	3.27743	0.09923	1.48322
0.441	3.27749	0.09930	1.48236
0.442	3.27792	0.09964	1.48343
0.443	3.27799	0.09969	1.48372
0.444	3.27729	0.09955	1.48262
0.445	3.27657	0.09983	1.48392
0.446	3.27640	0.10010	1.48315
0.447	3.27657	0.09992	1.48479
0.448	3.27685	0.09995	1.48553
0.449	3.27720	0.10037	1.48506
0.450	3.27749	0.10028	1.48314
0.451	3.27736	0.10011	1.48376
0.452	3.27681	0.10047	1.48276
0.453	3.27674	0.10057	1.48106
0.454	3.27752	0.10035	1.48415
0.455	3.27809	0.10040	1.48172
0.456	3.27778	0.10069	1.48187
0.457	3.27718	0.10051	1.48012
0.458	3.27684	0.10013	1.48666
0.459	3.27686	0.10054	1.48322
0.460	3.27710	0.10062	1.48296
0.461	3.27708	0.10016	1.48347
0.462	3.27667	0.10025	1.48372
0.463	3.27656	0.10047	1.48296
0.464	3.27712	0.10020	1.48306
0.465	3.27766	0.09981	1.48251
0.466	3.27771	0.09999	1.48277
0.467	3.27756	0.10000	1.48346
0.468	3.27747	0.09975	1.48395
0.469	3.27743	0.09928	1.48428
0.470	3.27742	0.09934	1.48639
0.471	3.27745	0.09937	1.48227
0.472	3.27749	0.09924	1.48317
0.473	3.27740	0.09883	1.48257
0.474	3.27718	0.09907	1.48328
0.475	3.27716	0.09927	1.48434
0.476	3.27741	0.09902	1.47821
0.477	3.27737	0.09876	1.48241
0.478	3.27679	0.09909	1.48270
0.479	3.27632	0.09912	1.48508
0.480	3.27642	0.09865	1.48401
0.481	3.27696	0.09850	1.48495
0.482	3.27758	0.09884	1.48332
0.483	3.27769	0.09873	1.48251
0.484	3.27718	0.09846	1.48431
0.485	3.27703	0.09846	1.48488
0.486	3.27772	0.09855	1.48390
0.487	3.27823	0.09859	1.48343
0.488	3.27786	0.09838	1.48315
0.489	3.27715	0.09854	1.48428
0.490	3.27663	0.09884	1.48405
0.491	3.27654	0.09888	1.48293
0.492	3.27687	0.09853	1.48199
0.493	3.27717	0.09879	1.48122
0.494	3.27718	0.09907	1.48361
0.495	3.27713	0.09889	1.48355
0.496	3.27717	0.09858	1.48376
0.497	3.27709	0.09908	1.48364
0.498	3.27681	0.09919	1.48398
0.499	3.27668	0.09883	1.48361
0.500	3.27690	0.09908	1.48409
0.501	3.27717	0.09950	1.48532
0.502	3.27725	0.09926	1.48422
0.503	3.27707	0.09912	1.48340
0.504	3.27679	0.09968	1.48312
0.505	3.27691	0.09964	1.48335
0.506	3.27760	0.09939	1.48346
0.507	3.27809	0.09957	1.48415
0.508	3.27785	0.09971	1.48146
0.509	3.27711	0.09968	1.48242
0.510	3.27629	0.09945	1.48476
0.511	3.27589	0.09963	1.48364
0.512	3.27612	0.09976	1.48454
0.513	3.27640	0.09954	1.48279
0.514	3.27640	0.09927	1.48297
0.515	3.27660	0.09952	1.48393
0.516	3.27717	0.09963	1.48309
0.517	3.27743	0.09932	1.48257
0.518	3.27703	0.09907	1.48271
0.519	3.27663	0.09942	1.48257
0.520	3.27667	0.09932	1.48325
0.521	3.27686	0.09889	1.48344
0.522	3.27695	0.09899	1.48486
0.523	3.27698	0.09919	1.48402
0.524	3.27701	0.09898	1.48285
0.525	3.27696	0.09860	1.48285
0.526	3.27681	0.09884	1.48430
0.527	3.27664	0.09884	1.48337
0.528	3.27657	0.09863	1.48239
0.529	3.27673	0.09830	1.48405
0.530	3.27715	0.09821	1.48352
0.531	3.27748	0.09841	1.48257
0.532	3.27745	0.09839	1.48346
0.533	3.27701	0.09804	1.48474
0.534	3.27637	0.09817	1.48285
0.535	3.27628	0.09844	1.48228
0.536	3.27700	0.09841	1.48361
0.537	3.27767	0.09805	1.48343
0.538	3.27768	0.09848	1.48381
0.539	3.27737	0.09878	1.48277
0.540	3.27710	0.09844	1.48280
0.541	3.27696	0.09822	1.48332
0.542	3.27699	0.09850	1.48460
0.543	3.27718	0.09847	1.48535
0.544	3.27744	0.09827	1.48308
0.545	3.27760	0.09808	1.48203
0.546	3.27756	0.09826	1.49152
0.547	3.27740	0.09843	1.48277
0.548	3.27723	0.09833	1.48152
0.549	3.27711	0.09819	1.48424
0.550	3.27710	0.09861	1.48314
0.551	3.27714	0.09874	1.48273
0.552	3.27722	0.09843	1.48466
0.553	3.27729	0.09851	1.48405
0.554	3.27735	0.09888	1.48399
0.555	3.27747	0.09880	1.48250
0.556	3.27762	0.09828	1.48312
0.557	3.27754	0.09862	1.48122
0.558	3.27719	0.09888	1.48166
0.559	3.27719	0.09862	1.48511
0.560	3.27777	0.09838	1.48181
0.561	3.27802	0.09885	1.48199
0.562	3.27750	0.09886	1.48375
0.563	3.27711	0.09868	1.48351
0.564	3.27738	0.09872	1.48560
0.565	3.27758	0.09902	1.48514
0.566	3.27728	0.09904	1.48399
0.567	3.27715	0.09876	1.48387
0.568	3.27753	0.09875	1.48311
0.569	3.27773	0.09905	1.48466
0.570	3.27730	0.09897	1.48351
0.571	3.27673	0.09872	1.48293
0.572	3.27641	0.09900	1.48247
0.573	3.27638	0.09926	1.48196
0.574	3.27659	0.09914	1.48448
0.575	3.27689	0.09879	1.48250
0.576	3.27716	0.09916	1.48302
0.577	3.27730	0.09925	1.48311
0.578	3.27722	0.09884	1.48578
0.579	3.27689	0.09871	1.48212
0.580	3.27643	0.09905	1.48264
0.581	3.27643	0.09893	1.48483
0.582	3.27707	0.09858	1.48265
0.583	3.27744	0.09862	1.48361
0.584	3.27705	0.09883	1.48375
0.585	3.27662	0.09879	1.48758
0.586	3.27673	0.09846	1.48337
0.587	3.27726	0.09857	1.48341
0.588	3.27790	0.09880	1.48692
0.589	3.27799	0.09869	1.48671
0.590	3.27733	0.09837	1.48427
0.591	3.27677	0.09851	1.48294
0.592	3.27683	0.09880	1.48367
0.593	3.27698	0.09868	1.48206
0.594	3.27683	0.09830	1.48088
0.595	3.27665	0.09874	1.48012
0.596	3.27665	0.09892	1.48035
0.597	3.27667	0.09857	1.47485
0.598	3.27659	0.09858	1.47601
0.599	3.27651	0.09909	1.46954
0.600	3.27651	0.09900	1.46626
0.601	3.27652	0.09879	1.46245
0.602	3.27658	0.09908	1.45625
0.603	3.27693	0.09915	1.45222
0.604	3.27750	0.09907	1.44733
0.605	3.27750	0.09881	1.44238
0.606	3.27672	0.09896	1.42702
0.607	3.27641	0.09912	1.41951
0.608	3.27715	0.09894	1.41206
0.609	3.27757	0.09873	1.40434
0.610	3.27691	0.09911	1.39415
0.611	3.27632	0.09935	1.38695
0.612	3.27659	0.09904	1.37849
0.613	3.27704	0.09911	1.36644
0.614	3.27718	0.09939	1.34657
0.615	3.27734	0.09932	1.33694
0.616	3.27770	0.09879	1.32178
0.617	3.27790	0.09887	1.31042
0.618	3.27770	0.09900	1.29915
0.619	3.27738	0.09870	1.28705
0.620	3.27717	0.09818	1.27206
0.621	3.27714	0.09822	1.25928
0.622	3.27719	0.09827	1.23317
0.623	3.27686	0.09822	1.21553
0.624	3.27605	0.09789	1.20059
0.625	3.27558	0.09763	1.18584
0.626	3.27590	0.09797	1.16800
0.627	3.27647	0.09810	1.15123
0.628	3.27685	0.09777	1.12357
0.629	3.27721	0.09768	1.10355
0.630	3.27763	0.09813	1.08788
0.631	3.27793	0.09824	1.06924
0.632	3.27797	0.09798	1.05286
0.633	3.27787	0.09858	1.03061
0.634	3.27765	0.09891	1.01262
0.635	3.27715	0.09863	0.99301
0.636	3.27644	0.09860	0.95454
0.637	3.27626	0.09906	0.93697
0.638	3.27691	0.09897	0.91692
0.639	3.27750	0.09864	0.89478
0.640	3.27747	0.09861	0.87265
0.641	3.27747	0.09873	0.85110
0.642	3.27783	0.09864	0.81223
0.643	3.27783	0.09825	0.78833
0.644	3.27715	0.09786	0.76764
0.645	3.27663	0.09794	0.74129
0.646	3.27673	0.09792	0.72076
0.647	3.27680	0.09763	0.69781
0.648	3.27648	0.09712	0.67378
0.649	3.27641	0.09743	0.62990
0.650	3.27694	0.09776	0.60762
0.651	3.27753	0.09760	0.58047
0.652	3.27774	0.09764	0.55786
0.653	3.27773	0.09832	0.53607
0.654	3.27765	0.09840	0.50916
0.655	3.27758	0.09836	0.48425
0.656	3.27752	0.09896	0.43672
0.657	3.27740	0.09919	0.41023
0.658	3.27717	0.09922	0.38618
0.659	3.27694	0.09946	0.36197
0.660	3.27682	0.09986	0.33527
0.661	3.27684	0.09996	0.31090
0.662	3.27699	0.09984	0.26213
0.663	3.27716	0.10019	0.23314
0.664	3.27722	0.10023	0.20827
0.665	3.27686	0.09995	0.18269
0.666	3.27622	0.09986	0.15800
0.667	3.27636	0.10005	0.13197
0.668	3.27762	0.09993	0.10582
0.669	3.27838	0.09936	0.05513
0.670	3.27772	0.09932	0.02748
0.671	3.27686	0.09944	0.00235
0.672	3.27670	0.09929	-0.02271
0.673	3.27686	0.09880	-0.05321
0.674	3.27695	0.09904	-0.06961
0.675	3.27698	0.09930	-0.12354
0.676	3.27704	0.09899	-0.14423
0.677	3.27739	0.09884	-0.17798
0.678	3.27795	0.09917	-0.20288
0.679	3.27796	0.09908	-0.22813
0.680	3.27713	0.09894	-0.25484
0.681	3.27645	0.09873	-0.30170
0.682	3.27655	0.09895	-0.33130
0.683	3.27687	0.09893	-0.35838
0.684	3.27696	0.09865	-0.38017
0.685	3.27699	0.09826	-0.40578
0.686	3.27702	0.09851	-0.43005
0.687	3.27672	0.09856	-0.45691
0.688	3.27609	0.09824	-0.50664
0.689	3.27597	0.09777	-0.52899
0.690	3.27669	0.09802	-0.55212
0.691	3.27714	0.09807	-0.57275
0.692	3.27682	0.09770	-0.59966
0.693	3.27696	0.09742	-0.62524
0.694	3.27806	0.09781	-0.66982
0.695	3.27842	0.09787	-0.69225
0.696	3.27723	0.09778	-0.71735
0.697	3.27631	0.09752	-0.73776
0.698	3.27677	0.09765	-0.76230
0.699	3.27732	0.09789	-0.78200
0.700	3.27704	0.09790	-0.82527
0.701	3.27662	0.09767	-0.84735
0.702	3.27662	0.09820	-0.86913
0.703	3.27688	0.09842	-0.88998
0.704	3.27719	0.09835	-0.91051
0.705	3.27749	0.09856	-0.92949
0.706	3.27773	0.09910	-0.96683
0.707	3.27771	0.09913	-0.98824
0.708	3.27743	0.09903	-1.00987
0.709	3.27728	0.09970	-1.02809
0.710	3.27745	0.09976	-1.04501
0.711	3.27759	0.09943	-1.06328
0.712	3.27746	0.09998	-1.09773
0.713	3.27724	0.10024	-1.11589
0.714	3.27705	0.09993	-1.13739
0.715	3.27675	0.10020	-1.14986
0.716	3.27630	0.10057	-1.16524
0.717	3.27604	0.10054	-1.18025
0.718	3.27620	0.10060	-1.20872
0.719	3.27661	0.10114	-1.23029
0.720	3.27707	0.10105	-1.24280
0.721	3.27729	0.10095	-1.25417
0.722	3.27716	0.10141	-1.26595
0.723	3.27694	0.10131	-1.28021
0.724	3.27686	0.10101	-1.29456
0.725	3.27681	0.10121	-1.31696
0.726	3.27677	0.10122	-1.33203
0.727	3.27686	0.10105	-1.33888
0.728	3.27711	0.10087	-1.35115
0.729	3.27731	0.10117	-1.35983
0.730	3.27732	0.10120	-1.37006
0.731	3.27728	0.10091	-1.38968
0.732	3.27729	0.10108	-1.39796
0.733	3.27728	0.10131	-1.40543
0.734	3.27720	0.10102	-1.41318
0.735	3.27711	0.10114	-1.42139
0.736	3.27707	0.10145	-1.43156
0.737	3.27716	0.10125	-1.44301
0.738	3.27736	0.10106	-1.44632
0.739	3.27743	0.10148	-1.45145
0.740	3.27727	0.10147	-1.45799
0.741	3.27711	0.10116	-1.46175
0.742	3.27711	0.10152	-1.46536
0.743	3.27713	0.10173	-1.47130
0.744	3.27709	0.10141	-1.47090
0.745	3.27716	0.10144	-1.47137
0.746	3.27736	0.10173	-1.47342
0.747	3.27742	0.10149	-1.47707
0.748	3.27726	0.10117	-1.47523
0.749	3.27734	0.10150	-1.47667
0.750	3.27780	0.10146	-1.47711
0.751	3.27782	0.10100	-1.47882
0.752	3.27707	0.10127	-1.47893
0.753	3.27668	0.10145	-1.47916
0.754	3.27727	0.10097	-1.47942
0.755	3.27800	0.10085	-1.47818
0.756	3.27816	0.10108	-1.48087
0.757	3.27778	0.10085	-1.47694
0.758	3.27718	0.10051	-1.47881
0.759	3.27701	0.10059	-1.47888
0.760	3.27745	0.10052	-1.47662
0.761	3.27752	0.10040	-1.48003
0.762	3.27673	0.09999	-1.47943
0.763	3.27618	0.10018	-1.48093
0.764	3.27656	0.10022	-1.47743
0.765	3.27726	0.10003	-1.48335
0.766	3.27770	0.09967	-1.48344
0.767	3.27770	0.09998	-1.47414
0.768	3.27729	0.10002	-1.47845
0.769	3.27671	0.09962	-1.47726
0.770	3.27627	0.09931	-1.47850
0.771	3.27626	0.09957	-1.47939
0.772	3.27678	0.09945	-1.47821
0.773	3.27739	0.09896	-1.47818
0.774	3.27773	0.09883	-1.47591
0.775	3.27770	0.09910	-1.47786
0.776	3.27735	0.09887	-1.47838
0.777	3.27689	0.09849	-1.47810
0.778	3.27657	0.09849	-1.47827
0.779	3.27655	0.09862	-1.48120
0.780	3.27681	0.09871	-1.47864
0.781	3.27699	0.09843	-1.47758
0.782	3.27683	0.09847	-1.48050
0.783	3.27643	0.09876	-1.47667
0.784	3.27603	0.09881	-1.47765
0.785	3.27615	0.09841	-1.47752
0.786	3.27692	0.09871	-1.47585
0.787	3.27749	0.09901	-1.47676
0.788	3.27735	0.09883	-1.48070
0.789	3.27711	0.09846	-1.47743
0.790	3.27720	0.09899	-1.47786
0.791	3.27750	0.09910	-1.47842
0.792	3.27775	0.09876	-1.47812
0.793	3.27769	0.09889	-1.47731
0.794	3.27730	0.09936	-1.47784
0.795	3.27715	0.09921	-1.47926
0.796	3.27747	0.09901	-1.47714
0.797	3.27755	0.09936	-1.47725
0.798	3.27700	0.09942	-1.47911
0.799	3.27644	0.09932	-1.47639
0.800	3.27638	0.09929	-1.47961
0.801	3.27678	0.09958	-1.47797
0.802	3.27737	0.09972	-1.47762
0.803	3.27757	0.09948	-1.47728
0.804	3.27717	0.09974	-1.47926
0.805	3.27701	0.10005	-1.47968
0.806	3.27746	0.09995	-1.47821
0.807	3.27774	0.09977	-1.47852
0.808	3.27728	0.10013	-1.47685
0.809	3.27652	0.10013	-1.47726
0.810	3.27595	0.09978	-1.47926
0.811	3.27598	0.09991	-1.47867
0.812	3.27665	0.10017	-1.47758
0.813	3.27719	0.09999	-1.47971
0.814	3.27713	0.09964	-1.48012
0.815	3.27696	0.10002	-1.47694
0.816	3.27703	0.10010	-1.47876
0.817	3.27714	0.09964	-1.47826
0.818	3.27714	0.09963	-1.48119
0.819	3.27713	0.09990	-1.47734
0.820	3.27717	0.09975	-1.48036
0.821	3.27710	0.09936	-1.47925
0.822	3.27680	0.09967	-1.47948
0.823	3.27623	0.09972	-1.47755
0.824	3.27562	0.09959	-1.47876
0.825	3.27572	0.09953	-1.47719
0.826	3.27680	0.09982	-1.47734
0.827	3.27791	0.09987	-1.47528
0.828	3.27830	0.09969	-1.47838
0.829	3.27813	0.09979	-1.47978
0.830	3.27768	0.10006	-1.47885
0.831	3.27719	0.09996	-1.47787
0.832	3.27680	0.09962	-1.47707
0.833	3.27645	0.10004	-1.47745
0.834	3.27612	0.10009	-1.47791
0.835	3.27609	0.09985	-1.47697
0.836	3.27646	0.09972	-1.49158
0.837	3.27690	0.10012	-1.47943
0.838	3.27717	0.09995	-1.47816
0.839	3.27730	0.09956	-1.47812
0.840	3.27736	0.10006	-1.47852
0.841	3.27746	0.10016	-1.47885
0.842	3.27760	0.09973	-1.47830
0.843	3.27755	0.09970	-1.47626
0.844	3.27731	0.10006	-1.47820
0.845	3.27733	0.09987	-1.47771
0.846	3.27774	0.09951	-1.47705
0.847	3.27785	0.09976	-1.47925
0.848	3.27730	0.09985	-1.47942
0.849	3.27675	0.09974	-1.47823
0.850	3.27666	0.09952	-1.47876
0.851	3.27666	0.09976	-1.47845
0.852	3.27663	0.09988	-1.47864
0.853	3.27716	0.09967	-1.48091
0.854	3.27825	0.09949	-1.47963
0.855	3.27837	0.09976	-1.47919
0.856	3.27691	0.09976	-1.47751
0.857	3.27583	0.09934	-1.47565
0.858	3.27632	0.09942	-1.47754
0.859	3.27707	0.09969	-1.47964
0.860	3.27711	0.09950	-1.47888
0.861	3.27697	0.09902	-1.47922
0.862	3.27708	0.09938	-1.47862
0.863	3.27711	0.09950	-1.47737
0.864	3.27688	0.09911	-1.47401
0.865	3.27664	0.09892	-1.47780
0.866	3.27659	0.09915	-1.47769
0.867	3.27671	0.09895	-1.47954
0.868	3.27693	0.09886	-1.48088
0.869	3.27718	0.09866	-1.47765
0.870	3.27733	0.09881	-1.47633
0.871	3.27724	0.09897	-1.47824
0.872	3.27699	0.09876	-1.48074
0.873	3.27726	0.09865	-1.47847
0.874	3.27823	0.09896	-1.47682
0.875	3.27885	0.09894	-1.47980
0.876	3.27844	0.09857	-1.47699
0.877	3.27756	0.09854	-1.48015
0.878	3.27684	0.09890	-1.48019
0.879	3.27671	0.09880	-1.47783
0.880	3.27719	0.09834	-1.47855
0.881	3.27742	0.09861	-1.47772
0.882	3.27695	0.09885	-1.47894
0.883	3.27646	0.09862	-1.47829
0.884	3.27644	0.09834	-1.47787
0.885	3.27653	0.09876	-1.47969
0.886	3.27652	0.09887	-1.47818
0.887	3.27676	0.09868	-1.47726
0.888	3.27734	0.09864	-1.47830
0.889	3.27757	0.09883	-1.47853
0.890	3.27714	0.09890	-1.47845
0.891	3.27681	0.09873	-1.47891
0.892	3.27705	0.09855	-1.48126
0.893	3.27730	0.09888	-1.47949
0.894	3.27723	0.09892	-1.47992
0.895	3.27735	0.09857	-1.47858
0.896	3.27785	0.09860	-1.47789
0.897	3.27801	0.09903	-1.47765
0.898	3.27742	0.09889	-1.47852
0.899	3.27671	0.09852	-1.47960
0.900	3.27640	0.09909	-1.47929
0.901	3.27660	0.09932	-1.47762
0.902	3.27711	0.09900	-1.47752
0.903	3.27724	0.09902	-1.47655
0.904	3.27676	0.09932	-1.48044
0.905	3.27655	0.09921	-1.47966
0.906	3.27710	0.09887	-1.47810
0.907	3.27765	0.09908	-1.47716
0.908	3.27765	0.09922	-1.47823
0.909	3.27738	0.09919	-1.48836
0.910	3.27718	0.09897	-1.47827
0.911	3.27714	0.09925	-1.47725
0.912	3.27728	0.09949	-1.48053
0.913	3.27747	0.09936	-1.47751
0.914	3.27751	0.09945	-1.47861
0.915	3.27718	0.09976	-1.47745
0.916	3.27661	0.09980	-1.47899
0.917	3.27683	0.09951	-1.47749
0.918	3.27804	0.09981	-1.47498
0.919	3.27842	0.10006	-1.47314
0.920	3.27717	0.09976	-1.47876
0.921	3.27635	0.09976	-1.47681
0.922	3.27712	0.10013	-1.47850
0.923	3.27776	0.10009	-1.47594
0.924	3.27721	0.09974	-1.47720
0.925	3.27662	0.10017	-1.47810
0.926	3.27682	0.10026	-1.47737
0.927	3.27717	0.09985	-1.47951
0.928	3.27724	0.09983	-1.47902
0.929	3.27754	0.10024	-1.47617
0.930	3.27820	0.09996	-1.47765
0.931	3.27826	0.09957	-1.47804
0.932	3.27729	0.09975	-1.47888
0.933	3.27641	0.09986	-1.47861
0.934	3.27639	0.09974	-1.47772
0.935	3.27674	0.09952	-1.47882
0.936	3.27703	0.09969	-1.47874
0.937	3.27736	0.09976	-1.47949
0.938	3.27770	0.09951	-1.47726
0.939	3.27769	0.09918	-1.48450
0.940	3.27719	0.09945	-1.47429
0.941	3.27678	0.09951	-1.47906
0.942	3.27682	0.09924	-1.47836
0.943	3.27701	0.09904	-1.47913
0.944	3.27710	0.09934	-1.47830
0.945	3.27714	0.09936	-1.47606
0.946	3.27719	0.09886	-1.48367
0.947	3.27732	0.09910	-1.47874
0.948	3.27751	0.09934	-1.48062
0.949	3.27758	0.09914	-1.47417
0.950	3.27743	0.09889	-1.47806
0.951	3.27725	0.09924	-1.47917
0.952	3.27714	0.09926	-1.47900
0.953	3.27691	0.09903	-1.47876
0.954	3.27653	0.09882	-1.48717
0.955	3.27637	0.09902	-1.47736
0.956	3.27661	0.09905	-1.47600
0.957	3.27685	0.09881	-1.48146
0.958	3.27686	0.09858	-1.47595
0.959	3.27682	0.09895	-1.48010
0.960	3.27686	0.09907	-1.48070
0.961	3.27680	0.09874	-1.47969
0.962	3.27665	0.09895	-1.47900
0.963	3.27694	0.09933	-1.47884
0.964	3.27771	0.09922	-1.47681
0.965	3.27779	0.09871	-1.47824
0.966	3.27674	0.09907	-1.47855
0.967	3.27603	0.09920	-1.47896
0.968	3.27649	0.09883	-1.47937
0.969	3.27703	0.09862	-1.47836
0.970	3.27694	0.09892	-1.47758
0.971	3.27707	0.09887	-1.47717
0.972	3.27782	0.09873	-1.47821
0.973	3.27819	0.09858	-1.47748
0.974	3.27767	0.09890	-1.47733
0.975	3.27727	0.09886	-1.47849
0.976	3.27755	0.09864	-1.47800
0.977	3.27772	0.09855	-1.47975
0.978	3.27722	0.09875	-1.47966
0.979	3.27656	0.09880	-1.47841
0.980	3.27624	0.09841	-1.47786
0.981	3.27646	0.09825	-1.47708
0.982	3.27709	0.09856	-1.47849
0.983	3.27745	0.09844	-1.47929
0.984	3.27717	0.09806	-1.47762
0.985	3.27677	0.09815	-1.47789
0.986	3.27665	0.09846	-1.47749
0.987	3.27668	0.09829	-1.47891
0.988	3.27673	0.09801	-1.47887
0.989	3.27686	0.09807	-1.47717
0.990	3.27705	0.09824	-1.47780
0.991	3.27713	0.09812	-1.47751
0.992	3.27698	0.09789	-1.47682
0.993	3.27679	0.09796	-1.47673
0.994	3.27669	0.09829	-1.47974
0.995	3.27668	0.09827	-1.47777
0.996	3.27677	0.09798	-1.47855
0.997	3.27705	0.09821	-1.47853
0.998	3.27750	0.09849	-1.47809
0.999	3.27776	0.09831	-1.47562
1.000	3.27765	0.09797	-1.47993
1.001	3.27738	0.09841	-1.47815
1.002	3.27724	0.09862	-1.47942
1.003	3.27755	0.09826	-1.47725
1.004	3.27828	0.09817	-1.47783
1.005	3.27866	0.09864	-1.47841
1.006	3.27830	0.09867	-1.47878
1.007	3.27783	0.09842	-1.47792
1.008	3.27775	0.09866	-1.47781
1.009	3.27794	0.09889	-1.47821
1.010	3.27806	0.09889	-1.47939
1.011	3.27757	0.09870	-1.47847
1.012	3.27645	0.09904	-1.47781
1.013	3.27591	0.09929	-1.47935
1.014	3.27653	0.09922	-1.47865
1.015	3.27721	0.09907	-1.48044
1.016	3.27719	0.09950	-1.47815
1.017	3.27694	0.09965	-1.47812
1.018	3.27694	0.09933	-1.47672
1.019	3.27720	0.09965	-1.47906
1.020	3.27759	0.09992	-1.47621
1.021	3.27773	0.09966	-1.47832
1.022	3.27736	0.09945	-1.47867
1.023	3.27667	0.09993	-1.47733
1.024	3.27600	0.09990	-1.47995
1.025	3.27599	0.09940	-1.47823
1.026	3.27678	0.09955	-1.47888
1.027	3.27731	0.09980	-1.47864
1.028	3.27692	0.09952	-1.47795
1.029	3.27625	0.09913	-1.47714
1.030	3.27597	0.09952	-1.47873
1.031	3.27636	0.09954	-1.47766
1.032	3.27735	0.09933	-1.47763
1.033	3.27815	0.09912	-1.47722
1.034	3.27817	0.09940	-1.47743
1.035	3.27759	0.09951	-1.47838
1.036	3.27678	0.09925	-1.47800
1.037	3.27634	0.09919	-1.47832
1.038	3.27654	0.09942	-1.48085
1.039	3.27688	0.09943	-1.47780
1.040	3.27698	0.09910	-1.47769
1.041	3.27698	0.09918	-1.47932
1.042	3.27704	0.09954	-1.48026
1.043	3.27716	0.09937	-1.47900
1.044	3.27732	0.09894	-1.47684
1.045	3.27746	0.09944	-1.47519
1.046	3.27756	0.09949	-1.47893
1.047	3.27759	0.09910	-1.47943
1.048	3.27751	0.09918	-1.47798
1.049	3.27719	0.09950	-1.47765
1.050	3.27673	0.09936	-1.47955
1.051	3.27675	0.09902	-1.47812
1.052	3.27742	0.09920	-1.47745
1.053	3.27772	0.09931	-1.47812
1.054	3.27713	0.09921	-1.47920
1.055	3.27664	0.09897	-1.46983
1.056	3.27690	0.09928	-1.47757
1.057	3.27736	0.09946	-1.47760
1.058	3.27752	0.09927	-1.47961
1.059	3.27739	0.09906	-1.47942
1.060	3.27713	0.09930	-1.47537
1.061	3.27719	0.09938	-1.47766
1.062	3.27768	0.09908	-1.47853
1.063	3.27786	0.09889	-1.47894
1.064	3.27737	0.09928	-1.47940
1.065	3.27694	0.09926	-1.48174
1.066	3.27703	0.09877	-1.47974
1.067	3.27712	0.09914	-1.47891
1.068	3.27687	0.09943	-1.47743
1.069	3.27665	0.09918	-1.47879
1.070	3.27679	0.09905	-1.48283
1.071	3.27724	0.09945	-1.47896
1.072	3.27779	0.09934	-1.47589
1.073	3.27783	0.09921	-1.47885
1.074	3.27722	0.09925	-1.47835
1.075	3.27680	0.09935	-1.47873
1.076	3.27709	0.09934	-1.47739
1.077	3.27749	0.09908	-1.47667
1.078	3.27756	0.09928	-1.47903
1.079	3.27739	0.09956	-1.47804
1.080	3.27717	0.09942	-1.47592
1.081	3.27693	0.09917	-1.47852
1.082	3.27678	0.09962	-1.47804
1.083	3.27687	0.09972	-1.47699
1.084	3.27715	0.09949	-1.47769
1.085	3.27705	0.09942	-1.47900
1.086	3.27642	0.09975	-1.47826
1.087	3.27628	0.09953	-1.47688
1.088	3.27705	0.09903	-1.47893
1.089	3.27762	0.09912	-1.47501
1.090	3.27735	0.09933	-1.47696
1.091	3.27715	0.09898	-1.47746
1.092	3.27755	0.09866	-1.47818
1.093	3.27770	0.09880	-1.47729
1.094	3.27712	0.09881	-1.47899
1.095	3.27662	0.09866	-1.47972
1.096	3.27677	0.09834	-1.48001
1.097	3.27722	0.09834	-1.47783
1.098	3.27757	0.09852	-1.47821
1.099	3.27754	0.09839	-1.47768
1.100	3.27711	0.09802	-1.47740
1.101	3.27680	0.09798	-1.48041
1.102	3.27684	0.09823	-1.47679
1.103	3.27678	0.09813	-1.47853
1.104	3.27646	0.09764	-1.47704
1.105	3.27663	0.09785	-1.47775
1.106	3.27755	0.09813	-1.47787
1.107	3.27805	0.09799	-1.47765
1.108	3.27754	0.09772	-1.47810
1.109	3.27712	0.09802	-1.47855
1.110	3.27746	0.09812	-1.47879
1.111	3.27775	0.09809	-1.47957
1.112	3.27745	0.09780	-1.47705
1.113	3.27708	0.09796	-1.47723
1.114	3.27701	0.09825	-1.47887
1.115	3.27695	0.09814	-1.47766
1.116	3.27675	0.09787	-1.47913
1.117	3.27669	0.09825	-1.47620
1.118	3.27700	0.09852	-1.47881
1.119	3.27756	0.09835	-1.47774
1.120	3.27809	0.09803	-1.47931
1.121	3.27793	0.09846	-1.47945
1.122	3.27693	0.09859	-1.47832
1.123	3.27613	0.09827	-1.47942
1.124	3.27616	0.09834	-1.47719
1.125	3.27639	0.09885	-1.47833
1.126	3.27629	0.09871	-1.47824
1.127	3.27600	0.09843	-1.47485
1.128	3.27583	0.09878	-1.47862
1.129	3.27620	0.09889	-1.47844
1.130	3.27720	0.09889	-1.47610
1.131	3.27799	0.09867	-1.47786
1.132	3.27804	0.09897	-1.47925
1.133	3.27765	0.09915	-1.47849
1.134	3.27724	0.09897	-1.48065
1.135	3.27715	0.09876	-1.47870
1.136	3.27745	0.09913	-1.47528
1.137	3.27757	0.09923	-1.47708
1.138	3.27723	0.09891	-1.47821
1.139	3.27696	0.09893	-1.47977
1.140	3.27710	0.09924	-1.47835
1.141	3.27731	0.09920	-1.47533
1.142	3.27732	0.09877	-1.47807
1.143	3.27728	0.09911	-1.47778
1.144	3.27725	0.09939	-1.47849
1.145	3.27708	0.09899	-1.47743
1.146	3.27677	0.09883	-1.47740
1.147	3.27670	0.09910	-1.48242
1.148	3.27700	0.09895	-1.47844
1.149	3.27710	0.09876	-1.48041
1.150	3.27681	0.09851	-1.47884
1.151	3.27693	0.09872	-1.47429
1.152	3.27774	0.09881	-1.47714
1.153	3.27798	0.09853	-1.47804
1.154	3.27706	0.09824	-1.47620
1.155	3.27630	0.09858	-1.47920
1.156	3.27656	0.09868	-1.48221
1.157	3.27705	0.09838	-1.47966
1.158	3.27712	0.09818	-1.47958
1.159	3.27693	0.09852	-1.47821
1.160	3.27676	0.09857	-1.47905
1.161	3.27689	0.09810	-1.47711
1.162	3.27728	0.09809	-1.47667
1.163	3.27719	0.09850	-1.47734
1.164	3.27639	0.09832	-1.48051
1.165	3.27611	0.09802	-1.47974
1.166	3.27694	0.09820	-1.48050
1.167	3.27766	0.09841	-1.47728
1.168	3.27748	0.09849	-1.47801
1.169	3.27707	0.09812	-1.47818
1.170	3.27701	0.09824	-1.47804
1.171	3.27717	0.09862	-1.48073
1.172	3.27731	0.09845	-1.47876
1.173	3.27702	0.09820	-1.47862
1.174	3.27632	0.09849	-1.47775
1.175	3.27611	0.09886	-1.47775
1.176	3.27678	0.09876	-1.47765
1.177	3.27733	0.09866	-1.47818
1.178	3.27716	0.09913	-1.47099
1.179	3.27698	0.09908	-1.47758
1.180	3.27728	0.09862	-1.47966
1.181	3.27764	0.09886	-1.47882
1.182	3.27768	0.09913	-1.47711
1.183	3.27734	0.09889	-1.47861
1.184	3.27674	0.09858	-1.47633
1.185	3.27632	0.09894	-1.48006
1.186	3.27638	0.09902	-1.47807
1.187	3.27677	0.09885	-1.47804
1.188	3.27722	0.09873	-1.47881
1.189	3.27723	0.09900	-1.47887
1.190	3.27665	0.09921	-1.47662
1.191	3.27616	0.09890	-1.47894
1.192	3.27623	0.09877	-1.47911
1.193	3.27660	0.09909	-1.47760
1.194	3.27700	0.09910	-1.47850
1.195	3.27735	0.09876	-1.47766
1.196	3.27764	0.09872	-1.48047
1.197	3.27796	0.09909	-1.47942
1.198	3.27832	0.09904	-1.47617
1.199	3.27852	0.09853	-1.47772
1.200	3.27839	0.09896	-1.47859
1.201	3.27770	0.09924	-1.47955
1.202	3.27662	0.09889	-1.47823
1.203	3.27603	0.09861	-1.47868
1.204	3.27639	0.09894	-1.47800
1.205	3.27689	0.09902	-1.47832
1.206	3.27696	0.09876	-1.47900
1.207	3.27701	0.09857	-1.47925
1.208	3.27730	0.09865	-1.47702
1.209	3.27743	0.09875	-1.47743
1.210	3.27719	0.09843	-1.47910
1.211	3.27695	0.09801	-1.48071
1.212	3.27700	0.09813	-1.47964
1.213	3.27716	0.09824	-1.47978
1.214	3.27727	0.09805	-1.47713
1.215	3.27727	0.09746	-1.47858
1.216	3.27721	0.09782	-1.47823
1.217	3.27734	0.09799	-1.47824
1.218	3.27768	0.09778	-1.47859
1.219	3.27769	0.09761	-1.48027
1.220	3.27715	0.09785	-1.47981
1.221	3.27681	0.09780	-1.47858
1.222	3.27706	0.09765	-1.47801
1.223	3.27729	0.09723	-1.47728
1.224	3.27708	0.09728	-1.47905
1.225	3.27678	0.09755	-1.47931
1.226	3.27675	0.09748	-1.47612
1.227	3.27707	0.09718	-1.47775
1.228	3.27761	0.09719	-1.47905
1.229	3.27791	0.09754	-1.47827
1.230	3.27767	0.09760	-1.47777
1.231	3.27718	0.09721	-1.47778
1.232	3.27679	0.09742	-1.47910
1.233	3.27691	0.09776	-1.47865
1.234	3.27755	0.09759	-1.47766
1.235	3.27790	0.09735	-1.48001
1.236	3.27752	0.09756	-1.48015
1.237	3.27707	0.09780	-1.47838
1.238	3.27703	0.09788	-1.47734
1.239	3.27715	0.09765	-1.47881
1.240	3.27714	0.09790	-1.47853
1.241	3.27691	0.09813	-1.47708
1.242	3.27655	0.09812	-1.47862
1.243	3.27659	0.09788	-1.47774
1.244	3.27723	0.09824	-1.47850
1.245	3.27781	0.09840	-1.48029
1.246	3.27791	0.09829	-1.47820
1.247	3.27791	0.09801	-1.47783
1.248	3.27806	0.09855	-1.47783
1.249	3.27800	0.09855	-1.47841
1.250	3.27754	0.09829	-1.47798
1.251	3.27705	0.09846	-1.47906
1.252	3.27671	0.09883	-1.47693
1.253	3.27625	0.09865	-1.47821
1.254	3.27566	0.09840	-1.47728
1.255	3.27570	0.09872	-1.47807
1.256	3.27660	0.09879	-1.47876
1.257	3.27715	0.09873	-1.47824
1.258	3.27678	0.09854	-1.47769
1.259	3.27677	0.09879	-1.47807
1.260	3.27775	0.09896	-1.47940
1.261	3.27837	0.09866	-1.48062
1.262	3.27780	0.09853	-1.48030
1.263	3.27701	0.09888	-1.47769
1.264	3.27676	0.09902	-1.47769
1.265	3.27686	0.09878	-1.47849
1.266	3.27708	0.09862	-1.47662
1.267	3.27733	0.09900	-1.47821
1.268	3.27755	0.09890	-1.47876
1.269	3.27757	0.09842	-1.47801
1.270	3.27736	0.09841	-1.48064
1.271	3.27708	0.09867	-1.47995
1.272	3.27688	0.09847	-1.47945
1.273	3.27683	0.09810	-1.47780
1.274	3.27699	0.09816	-1.48061
1.275	3.27738	0.09832	-1.48030
1.276	3.27786	0.09837	-1.47780
1.277	3.27803	0.09807	-1.47916
1.278	3.27772	0.09827	-1.47809
1.279	3.27740	0.09856	-1.47775
1.280	3.27736	0.09851	-1.47757
1.281	3.27723	0.09821	-1.47720
1.282	3.27682	0.09858	-1.47862
1.283	3.27647	0.09879	-1.47910
1.284	3.27650	0.09866	-1.47894
1.285	3.27695	0.09847	-1.47583
1.286	3.27764	0.09895	-1.47998
1.287	3.27786	0.09903	-1.48006
1.288	3.27734	0.09868	-1.47844
1.289	3.27696	0.09892	-1.47676
1.290	3.27725	0.09932	-1.47736
1.291	3.27764	0.09921	-1.48058
1.292	3.27764	0.09905	-1.47980
1.293	3.27736	0.09949	-1.47787
1.294	3.27703	0.09953	-1.47821
1.295	3.27702	0.09936	-1.47668
1.296	3.27737	0.09948	-1.47829
1.297	3.27737	0.09979	-1.47885
1.298	3.27674	0.09980	-1.47876
1.299	3.27636	0.09966	-1.47797
1.300	3.27677	0.10008	-1.47897
1.301	3.27739	0.10017	-1.47887
1.302	3.27770	0.09986	-1.47836
1.303	3.27773	0.09981	-1.47658
1.304	3.27763	0.10012	-1.47935
1.305	3.27760	0.10003	-1.47905
1.306	3.27772	0.09970	-1.47939
1.307	3.27772	0.09998	-1.47885
1.308	3.27744	0.10012	-1.47888
1.309	3.27705	0.09985	-1.47791
1.310	3.27674	0.09966	-1.47777
1.311	3.27669	0.10007	-1.47861
1.312	3.27691	0.10002	-1.47939
1.313	3.27695	0.09953	-1.47974
1.314	3.27665	0.09973	-1.47748
1.315	3.27654	0.09989	-1.47708
1.316	3.27692	0.09966	-1.47369
1.317	3.27735	0.09930	-1.47836
1.318	3.27748	0.09957	-1.47923
1.319	3.27742	0.09960	-1.47768
1.320	3.27731	0.09939	-1.47916
1.321	3.27729	0.09912	-1.47845
1.322	3.27741	0.09933	-1.48444
1.323	3.27764	0.09942	-1.47910
1.324	3.27794	0.09919	-1.47719
1.325	3.27826	0.09911	-1.47762
1.326	3.27848	0.09949	-1.47795
1.327	3.27825	0.09955	-1.47728
1.328	3.27755	0.09916	-1.47975
1.329	3.27710	0.09938	-1.48047
1.330	3.27731	0.09967	-1.47804
1.331	3.27763	0.09935	-1.47823
1.332	3.27760	0.09903	-1.47868
1.333	3.27717	0.09941	-1.47771
1.334	3.27659	0.09949	-1.48065
1.335	3.27661	0.09905	-1.47832
1.336	3.27747	0.09897	-1.47922
1.337	3.27809	0.09939	-1.47766
1.338	3.27779	0.09930	-1.47751
1.339	3.27717	0.09900	-1.48058
1.340	3.27678	0.09924	-1.47426
1.341	3.27667	0.09944	-1.47826
1.342	3.27676	0.09943	-1.47942
1.343	3.27682	0.09915	-1.47758
1.344	3.27677	0.09939	-1.47749
1.345	3.27687	0.09952	-1.47858
1.346	3.27726	0.09936	-1.47713
1.347	3.27765	0.09904	-1.48006
1.348	3.27773	0.09943	-1.47740
1.349	3.27730	0.09950	-1.48044
1.350	3.27652	0.09922	-1.47838
1.351	3.27624	0.09920	-1.47670
1.352	3.27682	0.09951	-1.47826
1.353	3.27732	0.09938	-1.48007
1.354	3.27723	0.09894	-1.47760
1.355	3.27738	0.09934	-1.47923
1.356	3.27807	0.09939	-1.47557
1.357	3.27808	0.09918	-1.47948
1.358	3.27687	0.09896	-1.47844
1.359	3.27600	0.09939	-1.47681
1.360	3.27642	0.09931	-1.47414
1.361	3.27706	0.09908	-1.47989
1.362	3.27715	0.09918	-1.48172
1.363	3.27716	0.09941	-1.47327
1.364	3.27742	0.09930	-1.47705
1.365	3.27759	0.09899	-1.47807
1.366	3.27747	0.09911	-1.47900
1.367	3.27747	0.09929	-1.47893
1.368	3.27773	0.09924	-1.47830
1.369	3.27767	0.09883	-1.47838
1.370	3.27705	0.09910	-1.47798
1.371	3.27665	0.09933	-1.47830
1.372	3.27696	0.09906	-1.47900
1.373	3.27755	0.09892	-1.47935
1.374	3.27797	0.09925	-1.47768
1.375	3.27802	0.09931	-1.47987
1.376	3.27773	0.09891	-1.47884
1.377	3.27760	0.09894	-1.47858
1.378	3.27782	0.09929	-1.47952
1.379	3.27763	0.09905	-1.47763
1.380	3.27679	0.09876	-1.47841
1.381	3.27638	0.09909	-1.47095
1.382	3.27696	0.09915	-1.47786
1.383	3.27747	0.09901	-1.47882
1.384	3.27729	0.09891	-1.47853
1.385	3.27715	0.09916	-1.47672
1.386	3.27755	0.09936	-1.47577
1.387	3.27794	0.09917	-1.47852
1.388	3.27789	0.09934	-1.47870
1.389	3.27749	0.09973	-1.47813
1.390	3.27700	0.09963	-1.47618
1.391	3.27684	0.09927	-1.47829
1.392	3.27714	0.09956	-1.47824
1.393	3.27725	0.09983	-1.47813
1.394	3.27690	0.09960	-1.47868
1.395	3.27689	0.09938	-1.47757
1.396	3.27763	0.09987	-1.48010
1.397	3.27828	0.09993	-1.47787
1.398	3.27821	0.09952	-1.47856
1.399	3.27758	0.10006	-1.47827
1.400	3.27682	0.10027	-1.47736
1.401	3.27675	0.09999	-1.47781
1.402	3.27761	0.10007	-1.47838
1.403	3.27825	0.10042	-1.47775
1.404	3.27793	0.10027	-1.48212
1.405	3.27733	0.09995	-1.47786
1.406	3.27702	0.10034	-1.47795
1.407	3.27699	0.10030	-1.47701
1.408	3.27712	0.10014	-1.47879
1.409	3.27710	0.10012	-1.48038
1.410	3.27683	0.10039	-1.47997
1.411	3.27667	0.10028	-1.47762
1.412	3.27681	0.10000	-1.47765
1.413	3.27701	0.10022	-1.47826
1.414	3.27711	0.10037	-1.47827
1.415	3.27735	0.10016	-1.47688
1.416	3.27777	0.09995	-1.47365
1.417	3.27786	0.10019	-1.47882
1.418	3.27740	0.10022	-1.47760
1.419	3.27691	0.09983	-1.47711
1.420	3.27685	0.09995	-1.47774
1.421	3.27725	0.10027	-1.47778
1.422	3.27790	0.10012	-1.47743
1.423	3.27820	0.09972	-1.47601
1.424	3.27783	0.09995	-1.47801
1.425	3.27736	0.10008	-1.47687
1.426	3.27719	0.09963	-1.47937
1.427	3.27711	0.09960	-1.47713
1.428	3.27694	0.09987	-1.47655
1.429	3.27681	0.09972	-1.47649
1.430	3.27678	0.09940	-1.47902
1.431	3.27684	0.09970	-1.47838
1.432	3.27694	0.09979	-1.47527
1.433	3.27698	0.09971	-1.47734
1.434	3.27697	0.09952	-1.47833
1.435	3.27721	0.09982	-1.47882
1.436	3.27773	0.09990	-1.47910
1.437	3.27785	0.09965	-1.47755
1.438	3.27728	0.09970	-1.47705
1.439	3.27677	0.10000	-1.47728
1.440	3.27683	0.09987	-1.47704
1.441	3.27721	0.09947	-1.47905
1.442	3.27762	0.09975	-1.47885
1.443	3.27795	0.10007	-1.47682
1.444	3.27809	0.09979	-1.47647
1.445	3.27778	0.09966	-1.48206
1.446	3.27707	0.10010	-1.47861
1.447	3.27665	0.10006	-1.47964
1.448	3.27688	0.09974	-1.47661
1.449	3.27715	0.10017	-1.47856
1.450	3.27707	0.10033	-1.47810
1.451	3.27698	0.10006	-1.47998
1.452	3.27708	0.09997	-1.47762
1.453	3.27712	0.10036	-1.47780
1.454	3.27696	0.10017	-1.47850
1.455	3.27703	0.09979	-1.47925
1.456	3.27740	0.10012	-1.47856
1.457	3.27735	0.10015	-1.47894
1.458	3.27661	0.10005	-1.47824
1.459	3.27622	0.09996	-1.47871
1.460	3.27679	0.10024	-1.47789
1.461	3.27756	0.10023	-1.47899
1.462	3.27789	0.10003	-1.47618
1.463	3.27787	0.10022	-1.47971
1.464	3.27764	0.10044	-1.48392
1.465	3.27739	0.10024	-1.47968
1.466	3.27721	0.09992	-1.47737
1.467	3.27712	0.10029	-1.47823
1.468	3.27702	0.10041	-1.47871
1.469	3.27675	0.10004	-1.47881
1.470	3.27631	0.10013	-1.47841
1.471	3.27627	0.10042	-1.47769
1.472	3.27677	0.10022	-1.47929
1.473	3.27693	0.09977	-1.47484
1.474	3.27636	0.10026	-1.47739
1.475	3.27609	0.10028	-1.47829
1.476	3.27674	0.09989	-1.47868
1.477	3.27757	0.09991	-1.47765
1.478	3.27793	0.10020	-1.47694
1.479	3.27784	0.09999	-1.48007
1.480	3.27750	0.09962	-1.47832
1.481	3.27726	0.10004	-1.47643
1.482	3.27731	0.10011	-1.47807
1.483	3.27724	0.09989	-1.47884
1.484	3.27687	0.09987	-1.47920
1.485	3.27667	0.10015	-1.47734
1.486	3.27683	0.10007	-1.47710
1.487	3.27676	0.09978	-1.47829
1.488	3.27628	0.09998	-1.47942
1.489	3.27631	0.10029	-1.47859
1.490	3.27720	0.10009	-1.47827
1.491	3.27754	0.09985	-1.47897
1.492	3.27666	0.10013	-1.48148
1.493	3.27604	0.10026	-1.47816
1.494	3.27658	0.09996	-1.48311
1.495	3.27720	0.10017	-1.47783
1.496	3.27717	0.10047	-1.47830
1.497	3.27717	0.10024	-1.47992
1.498	3.27754	0.10006	-1.47797
1.499	3.27750	0.10050	-1.47850
1.500	3.27671	0.10044	-1.47792
1.501	3.27619	0.09993	-1.47910
1.502	3.27653	0.10030	-1.47969
1.503	3.27705	0.10052	-1.48022
1.504	3.27723	0.10022	-1.47829
1.505	3.27731	0.10016	-1.47920
1.506	3.27743	0.10058	-1.47853
1.507	3.27718	0.10049	-1.47551
1.508	3.27646	0.10030	-1.47865
1.509	3.27604	0.10074	-1.47815
1.510	3.27634	0.10072	-1.47842
1.511	3.27672	0.10048	-1.47842
1.512	3.27670	0.10054	-1.47832
1.513	3.27647	0.10072	-1.47937
1.514	3.27630	0.10058	-1.47827
1.515	3.27643	0.10026	-1.47861
1.516	3.27694	0.10037	-1.47856
1.517	3.27755	0.10055	-1.47896
1.518	3.27797	0.10031	-1.47871
1.519	3.27802	0.10014	-1.47810
1.520	3.27762	0.10043	-1.47775
1.521	3.27700	0.10040	-1.47806
1.522	3.27645	0.10005	-1.48051
1.523	3.27643	0.10016	-1.47705
1.524	3.27700	0.10041	-1.47708
1.525	3.27726	0.10013	-1.47728
1.526	3.27677	0.09970	-1.47942
1.527	3.27633	0.10007	-1.47701
1.528	3.27651	0.10007	-1.47684
1.529	3.27689	0.09964	-1.47873
1.530	3.27708	0.09966	-1.47900
1.531	3.27691	0.09989	-1.48050
1.532	3.27649	0.09966	-1.48064
1.533	3.27641	0.09930	-1.47775
1.534	3.27693	0.09948	-1.47864
1.535	3.27731	0.09958	-1.47847
1.536	3.27711	0.09945	-1.47955
1.537	3.27677	0.09907	-1.48012
1.538	3.27666	0.09921	-1.48058
1.539	3.27668	0.09940	-1.47624
1.540	3.27677	0.09923	-1.47830
1.541	3.27706	0.09888	-1.47725
1.542	3.27752	0.09922	-1.48015
1.543	3.27775	0.09936	-1.48242
1.544	3.27753	0.09908	-1.47845
1.545	3.27724	0.09889	-1.47952
1.546	3.27714	0.09928	-1.47890
1.547	3.27712	0.09928	-1.48050
1.548	3.27713	0.09891	-1.47913
1.549	3.27736	0.09897	-1.47932
1.550	3.27775	0.09932	-1.47853
1.551	3.27764	0.09914	-1.47722
1.552	3.27683	0.09889	-1.47697
1.553	3.27636	0.09931	-1.48009
1.554	3.27679	0.09942	-1.48016
1.555	3.27714	0.09922	-1.47801
1.556	3.27688	0.09913	-1.47675
1.557	3.27690	0.09943	-1.47971
1.558	3.27764	0.09950	-1.47897
1.559	3.27804	0.09920	-1.47760
1.560	3.27750	0.09936	-1.47789
1.561	3.27691	0.09957	-1.48096
1.562	3.27688	0.09958	-1.47989
1.563	3.27698	0.09927	-1.47714
1.564	3.27689	0.09956	-1.47939
1.565	3.27683	0.09976	-1.47871
1.566	3.27698	0.09953	-1.47845
1.567	3.27716	0.09964	-1.48143
1.568	3.27724	0.10007	-1.47961
1.569	3.27730	0.10003	-1.47852
1.570	3.27735	0.09971	-1.48126
1.571	3.27724	0.10015	-1.47844
1.572	3.27696	0.10028	-1.47723
1.573	3.27683	0.09982	-1.47798
1.574	3.27700	0.09988	-1.47675
1.575	3.27714	0.10011	-1.48183
1.576	3.27702	0.09993	-1.47908
1.577	3.27677	0.09958	-1.47925
1.578	3.27660	0.09988	-1.47845
1.579	3.27674	0.09990	-1.47975
1.580	3.27719	0.09971	-1.47905
1.581	3.27744	0.09956	-1.47815
1.582	3.27718	0.09986	-1.47748
1.583	3.27674	0.10001	-1.47903
1.584	3.27651	0.09962	-1.47729
1.585	3.27678	0.09979	-1.47887
1.586	3.27746	0.10006	-1.47971
1.587	3.27771	0.10007	-1.47751
1.588	3.27715	0.09973	-1.47786
1.589	3.27661	0.10015	-1.47905
1.590	3.27669	0.10033	-1.47940
1.591	3.27705	0.10002	-1.48074
1.592	3.27738	0.10020	-1.47826
1.593	3.27763	0.10060	-1.47624
1.594	3.27775	0.10036	-1.47343
1.595	3.27750	0.10018	-1.47989
1.596	3.27688	0.10069	-1.47205
1.597	3.27649	0.10063	-1.47832
1.598	3.27669	0.10018	-1.47839
1.599	3.27703	0.10057	-1.47911
1.600	3.27716	0.10076	-1.47623
1.601	3.27711	0.10054	-1.47771
1.602	3.27701	0.10062	-1.47888
1.603	3.27699	0.10100	-1.47734
1.604	3.27712	0.10078	-1.47807
1.605	3.27732	0.10051	-1.47551
1.606	3.27750	0.10095	-1.48082
1.607	3.27760	0.10089	-1.47815
1.608	3.27756	0.10057	-1.48360
1.609	3.27739	0.10070	-1.47775
1.610	3.27714	0.10080	-1.47919
1.611	3.27695	0.10072	-1.47961
1.612	3.27691	0.10055	-1.48033
1.613	3.27701	0.10074	-1.47902
1.614	3.27722	0.10084	-1.47862
1.615	3.27750	0.10048	-1.47899
1.616	3.27777	0.10061	-1.47879
1.617	3.27790	0.10081	-1.47820
1.618	3.27779	0.10073	-1.47809
1.619	3.27753	0.10037	-1.47769
1.620	3.27732	0.10065	-1.47878
1.621	3.27753	0.10069	-1.47824
1.622	3.27817	0.10038	-1.48010
1.623	3.27851	0.10040	-1.48053
1.624	3.27810	0.10070	-1.48029
1.625	3.27748	0.10058	-1.47751
1.626	3.27702	0.10025	-1.47818
1.627	3.27657	0.10067	-1.47810
1.628	3.27618	0.10080	-1.47798
1.629	3.27653	0.10035	-1.47676
1.630	3.27774	0.10059	-1.48146
1.631	3.27835	0.10080	-1.47839
1.632	3.27762	0.10047	-1.47829
1.633	3.27691	0.10017	-1.47809
1.634	3.27711	0.10055	-1.47893
1.635	3.27748	0.10039	-1.47632
1.636	3.27743	0.10001	-1.47757
1.637	3.27725	0.10002	-1.48003
1.638	3.27718	0.10020	-1.47971
1.639	3.27711	0.10010	-1.47859
1.640	3.27700	0.09981	-1.47868
1.641	3.27699	0.09994	-1.47937
1.642	3.27707	0.10011	-1.47731
1.643	3.27691	0.09993	-1.47949
1.644	3.27643	0.09951	-1.47855
1.645	3.27623	0.09982	-1.47849
1.646	3.27660	0.09987	-1.47852
1.647	3.27704	0.09956	-1.47884
1.648	3.27721	0.09925	-1.47874
1.649	3.27731	0.09962	-1.47932
1.650	3.27752	0.09964	-1.47743
1.651	3.27780	0.09915	-1.47723
1.652	3.27799	0.09921	-1.47969
1.653	3.27781	0.09950	-1.47835
1.654	3.27714	0.09926	-1.48036
1.655	3.27638	0.09887	-1.47591
1.656	3.27591	0.09909	-1.47897
1.657	3.27597	0.09925	-1.47900
1.658	3.27651	0.09912	-1.47699
1.659	3.27684	0.09887	-1.48643
1.660	3.27667	0.09906	-1.47923
1.661	3.27675	0.09932	-1.47758
1.662	3.27740	0.09918	-1.47726
1.663	3.27773	0.09898	-1.47839
1.664	3.27724	0.09930	-1.47972
1.665	3.27678	0.09928	-1.47855
1.666	3.27693	0.09897	-1.47835
1.667	3.27737	0.09892	-1.47800
1.668	3.27767	0.09921	-1.47774
1.669	3.27750	0.09917	-1.47827
1.670	3.27686	0.09872	-1.47847
1.671	3.27651	0.09915	-1.47842
1.672	3.27687	0.09942	-1.48102
1.673	3.27735	0.09909	-1.47791
1.674	3.27746	0.09903	-1.47769
1.675	3.27721	0.09942	-1.48280
1.676	3.27681	0.09937	-1.47945
1.677	3.27669	0.09908	-1.47740
1.678	3.27703	0.09924	-1.47745
1.679	3.27731	0.09944	-1.48009
1.680	3.27723	0.09934	-1.47708
1.681	3.27713	0.09905	-1.47931
1.682	3.27723	0.09925	-1.47849
1.683	3.27727	0.09956	-1.47932
1.684	3.27704	0.09936	-1.47906
1.685	3.27656	0.09916	-1.47900
1.686	3.27609	0.09950	-1.47888
1.687	3.27637	0.09966	-1.47830
1.688	3.27749	0.09937	-1.47794
1.689	3.27803	0.09950	-1.47737
1.690	3.27724	0.09997	-1.47867
1.691	3.27643	0.09977	-1.48259
1.692	3.27651	0.09937	-1.47878
1.693	3.27689	0.09978	-1.47838
1.694	3.27706	0.09992	-1.47684
1.695	3.27715	0.09948	-1.47827
1.696	3.27731	0.09948	-1.47827
1.697	3.27746	0.09981	-1.47812
1.698	3.27749	0.09970	-1.47905
1.699	3.27719	0.09950	-1.47682
1.700	3.27665	0.09996	-1.48131
1.701	3.27658	0.10005	-1.47588
1.702	3.27718	0.09984	-1.47336
1.703	3.27739	0.09997	-1.47864
1.704	3.27668	0.10024	-1.47658
1.705	3.27620	0.10020	-1.47878
1.706	3.27661	0.10001	-1.47859
1.707	3.27700	0.10029	-1.47815
1.708	3.27679	0.10046	-1.47812
1.709	3.27670	0.10019	-1.47917
1.710	3.27714	0.10018	-1.48083
1.711	3.27745	0.10055	-1.47928
1.712	3.27724	0.10049	-1.47861
1.713	3.27694	0.10019	-1.47862
1.714	3.27692	0.10060	-1.47775
1.715	3.27721	0.10075	-1.47667
1.716	3.27765	0.10038	-1.47690
1.717	3.27791	0.10050	-1.47957
1.718	3.27777	0.10081	-1.48074
1.719	3.27733	0.10061	-1.47993
1.720	3.27687	0.10035	-1.47835
1.721	3.27690	0.10082	-1.47690
1.722	3.27743	0.10088	-1.47719
1.723	3.27729	0.10043	-1.47751
1.724	3.27603	0.10084	-1.48082
1.725	3.27527	0.10093	-1.48026
1.726	3.27600	0.10062	-1.47803
1.727	3.27719	0.10058	-1.47910
1.728	3.27789	0.10091	-1.47781
1.729	3.27781	0.10069	-1.47983
1.730	3.27711	0.10037	-1.47847
1.731	3.27664	0.10072	-1.47806
1.732	3.27683	0.10088	-1.47939
1.733	3.27695	0.10057	-1.47757
1.734	3.27662	0.10064	-1.47823
1.735	3.27658	0.10091	-1.47887
1.736	3.27719	0.10087	-1.47746
1.737	3.27761	0.10065	-1.47719
1.738	3.27733	0.10092	-1.47638
1.739	3.27692	0.10103	-1.47913
1.740	3.27696	0.10076	-1.47751
1.741	3.27762	0.10093	-1.48083
1.742	3.27865	0.10124	-1.47754
1.743	3.27889	0.10108	-1.48117
1.744	3.27793	0.10097	-1.47786
1.745	3.27725	0.10135	-1.47739
1.746	3.27766	0.10129	-1.47980
1.747	3.27784	0.10105	-1.47993
1.748	3.27702	0.10149	-1.47952
1.749	3.27629	0.10163	-1.47430
1.750	3.27638	0.10134	-1.47969
1.751	3.27673	0.10161	-1.48108
1.752	3.27684	0.10186	-1.47791
1.753	3.27682	0.10149	-1.47820
1.754	3.27684	0.10144	-1.47665
1.755	3.27704	0.10185	-1.47865
1.756	3.27741	0.10157	-1.47716
1.757	3.27759	0.10121	-1.47919
1.758	3.27740	0.10167	-1.47668
1.759	3.27707	0.10164	-1.47725
1.760	3.27683	0.10116	-1.47845
1.761	3.27686	0.10165	-1.47935
1.762	3.27713	0.10178	-1.48039
1.763	3.27729	0.10132	-1.47728
1.764	3.27711	0.10139	-1.47739
1.765	3.27675	0.10175	-1.47824
1.766	3.27645	0.10142	-1.47884
1.767	3.27660	0.10112	-1.47758
1.768	3.27723	0.10156	-1.48058
1.769	3.27760	0.10137	-1.47739
1.770	3.27732	0.10104	-1.47966
1.771	3.27692	0.10121	-1.48116
1.772	3.27683	0.10122	-1.48183
1.773	3.27681	0.10108	-1.48029
1.774	3.27664	0.10086	-1.47881
1.775	3.27628	0.10109	-1.47990
1.776	3.27588	0.10102	-1.47913
1.777	3.27600	0.10076	-1.47850
1.778	3.27678	0.10089	-1.47876
1.779	3.27733	0.10111	-1.47981
1.780	3.27709	0.10095	-1.47855
1.781	3.27658	0.10075	-1.47865
1.782	3.27631	0.10111	-1.48796
1.783	3.27643	0.10114	-1.47932
1.784	3.27686	0.10075	-1.47908
1.785	3.27716	0.10093	-1.47841
1.786	3.27711	0.10116	-1.47742
1.787	3.27718	0.10086	-1.47871
1.788	3.27756	0.10072	-1.47917
1.789	3.27772	0.10098	-1.47845
1.790	3.27736	0.10093	-1.47771
1.791	3.27691	0.10047	-1.47755
1.792	3.27679	0.10097	-1.47891
1.793	3.27707	0.10102	-1.47894
1.794	3.27758	0.10069	-1.47949
1.795	3.27770	0.10077	-1.47859
1.796	3.27719	0.10108	-1.47832
1.797	3.27680	0.10082	-1.47885
1.798	3.27697	0.10064	-1.47896
1.799	3.27713	0.10100	-1.47893
1.800	3.27686	0.10086	-1.47487
1.801	3.27644	0.10064	-1.47762
1.802	3.27618	0.10079	-1.47974
1.803	3.27627	0.10092	-1.48087
1.804	3.27665	0.10075	-1.47777
1.805	3.27681	0.10069	-1.47733
1.806	3.27649	0.10095	-1.47870
1.807	3.27618	0.10102	-1.47972
1.808	3.27622	0.10070	-1.47696
1.809	3.27640	0.10093	-1.47762
1.810	3.27653	0.10117	-1.47969
1.811	3.27672	0.10088	-1.48004
1.812	3.27695	0.10062	-1.47798
1.813	3.27694	0.10089	-1.47900
1.814	3.27664	0.10086	-1.47502
1.815	3.27655	0.10044	-1.47820
1.816	3.27697	0.10052	-1.47929
1.817	3.27754	0.10072	-1.47615
1.818	3.27777	0.10054	-1.47856
1.819	3.27725	0.10014	-1.47762
1.820	3.27609	0.10063	-1.48486
1.821	3.27564	0.10056	-1.47549
1.822	3.27649	0.10002	-1.47699
1.823	3.27717	0.10029	-1.47844
1.824	3.27682	0.10056	-1.47884
1.825	3.27653	0.10022	-1.47853
1.826	3.27700	0.09986	-1.47691
1.827	3.27749	0.10028	-1.47495
1.828	3.27745	0.10019	-1.47665
1.829	3.27725	0.09990	-1.47868
1.830	3.27712	0.09996	-1.47908
1.831	3.27670	0.10008	-1.47769
1.832	3.27600	0.10003	-1.47946
1.833	3.27602	0.09962	-1.47787
1.834	3.27709	0.09972	-1.47833
1.835	3.27777	0.09989	-1.47722
1.836	3.27728	0.09968	-1.47855
1.837	3.27679	0.09923	-1.47932
1.838	3.27709	0.09942	-1.47621
1.839	3.27748	0.09958	-1.47717
1.840	3.27737	0.09934	-1.47754
1.841	3.27685	0.09891	-1.47812
1.842	3.27626	0.09941	-1.47914
1.843	3.27631	0.09949	-1.47919
1.844	3.27717	0.09912	-1.47885
1.845	3.27756	0.09912	-1.47702
1.846	3.27685	0.09941	-1.47795
1.847	3.27613	0.09924	-1.47737
1.848	3.27620	0.09897	-1.47601
1.849	3.27660	0.09924	-1.46925
1.850	3.27695	0.09933	-1.47273
1.851	3.27739	0.09926	-1.47136
1.852	3.27793	0.09919	-1.46793
1.853	3.27822	0.09946	-1.46999
1.854	3.27800	0.09960	-1.46556
1.855	3.27746	0.09938	-1.46112
1.856	3.27685	0.09949	-1.45078
1.857	3.27648	0.09982	-1.43994
1.858	3.27659	0.09976	-1.44046
1.859	3.27711	0.09942	-1.43735
1.860	3.27777	0.09974	-1.42854
1.861	3.27782	0.09997	-1.41696
1.862	3.27699	0.09966	-1.40663
1.863	3.27629	0.09945	-1.39999
1.864	3.27636	0.09992	-1.38953
1.865	3.27674	0.09984	-1.38060
1.866	3.27704	0.09940	-1.36993
1.867	3.27735	0.09956	-1.36238
1.868	3.27769	0.09993	-1.34660
1.869	3.27770	0.09969	-1.33188
1.870	3.27726	0.09944	-1.31563
1.871	3.27696	0.09989	-1.30511
1.872	3.27707	0.09982	-1.29257
1.873	3.27710	0.09947	-1.28659
1.874	3.27683	0.09954	-1.26379
1.875	3.27690	0.09982	-1.24225
1.876	3.27751	0.09979	-1.22478
1.877	3.27769	0.09942	-1.21063
1.878	3.27700	0.09971	-1.19737
1.879	3.27671	0.09995	-1.18164
1.880	3.27740	0.09984	-1.16473
1.881	3.27769	0.09989	-1.13235
1.882	3.27687	0.10045	-1.11513
1.883	3.27637	0.10047	-1.09550
1.884	3.27700	0.10019	-1.08195
1.885	3.27744	0.10050	-1.06482
1.886	3.27689	0.10063	-1.04349
1.887	3.27630	0.10039	-1.02870
1.888	3.27637	0.10059	-0.98764
1.889	3.27675	0.10086	-0.97075
1.890	3.27713	0.10057	-0.94978
1.891	3.27752	0.10018	-0.93300
1.892	3.27785	0.10041	-0.91003
1.893	3.27785	0.10053	-0.88934
1.894	3.27740	0.10002	-0.85727
1.895	3.27689	0.09993	-0.82747
1.896	3.27669	0.10010	-0.80396
1.897	3.27690	0.09977	-0.77919
1.898	3.27737	0.09935	-0.76080
1.899	3.27736	0.09951	-0.74078
1.900	3.27671	0.09971	-0.71584
1.901	3.27660	0.09964	-0.67378
1.902	3.27756	0.09933	-0.64996
1.903	3.27824	0.09957	-0.62292
1.904	3.27779	0.09964	-0.60109
1.905	3.27699	0.09941	-0.57596
1.906	3.27659	0.09902	-0.55258
1.907	3.27675	0.09930	-0.52840
1.908	3.27731	0.09939	-0.48343
1.909	3.27759	0.09912	-0.45641
1.910	3.27724	0.09896	-0.43564
1.911	3.27674	0.09940	-0.40785
1.912	3.27658	0.09932	-0.38126
1.913	3.27695	0.09884	-0.35594
1.914	3.27769	0.09923	-0.33060
1.915	3.27782	0.09945	-0.28186
1.916	3.27701	0.09917	-0.25671
1.917	3.27651	0.09888	-0.22829
1.918	3.27702	0.09917	-0.20511
1.919	3.27746	0.09917	-0.17938
1.920	3.27718	0.09894	-0.15233
1.921	3.27699	0.09869	-0.12503
1.922	3.27736	0.09886	-0.08118
1.923	3.27758	0.09887	-0.04964
1.924	3.27723	0.09865	-0.02150
1.925	3.27697	0.09828	0.00383
1.926	3.27717	0.09840	0.02733
1.927	3.27726	0.09845	0.05489
1.928	3.27693	0.09824	0.07884
1.929	3.27687	0.09767	0.12598
1.930	3.27740	0.09786	0.15738
1.931	3.27776	0.09786	0.18205
1.932	3.27742	0.09755	0.20932
1.933	3.27665	0.09707	0.23474
1.934	3.27590	0.09682	0.25993
1.935	3.27583	0.09673	0.28419
1.936	3.27656	0.09668	0.31172
1.937	3.27698	0.09655	0.36066
1.938	3.27652	0.09602	0.38322
1.939	3.27623	0.09590	0.40807
1.940	3.27675	0.09619	0.44025
1.941	3.27738	0.09620	0.46033
1.942	3.27751	0.09578	0.48480
1.943	3.27719	0.09559	0.50995
1.944	3.27663	0.09585	0.55754
1.945	3.27636	0.09601	0.57957
1.946	3.27663	0.09589	0.59500
1.947	3.27705	0.09569	0.62967
1.948	3.27727	0.09582	0.65375
1.949	3.27727	0.09616	0.67348
1.950	3.27714	0.09630	0.69772
1.951	3.27716	0.09613	0.74084
1.952	3.27741	0.09639	0.76674
1.953	3.27738	0.09694	0.78717
1.954	3.27695	0.09705	0.80901
1.955	3.27688	0.09682	0.83231
1.956	3.27746	0.09752	0.85403
1.957	3.27771	0.09790	0.87541
1.958	3.27708	0.09771	0.89645
1.959	3.27644	0.09806	0.93423
1.960	3.27642	0.09876	0.95459
1.961	3.27674	0.09875	0.98894
1.962	3.27702	0.09896	0.99429
1.963	3.27691	0.09966	1.01234
1.964	3.27642	0.09978	1.03241
1.965	3.27624	0.09977	1.05011
1.966	3.27671	0.10039	1.08405
1.967	3.27719	0.10038	1.10481
1.968	3.27722	0.10024	1.12201
1.969	3.27712	0.10072	1.13925
1.970	3.27715	0.10085	1.15289
1.971	3.27711	0.10068	1.16751
1.972	3.27688	0.10103	1.18625
1.973	3.27663	0.10129	1.20221
1.974	3.27656	0.10122	1.23094
1.975	3.27695	0.10131	1.24500
1.976	3.27776	0.10158	1.25665
1.977	3.27822	0.10154	1.27242
1.978	3.27792	0.10139	1.28606
1.979	3.27732	0.10172	1.30067
1.980	3.27689	0.10179	1.31161
1.981	3.27664	0.10163	1.32146
1.982	3.27657	0.10197	1.34550
1.983	3.27672	0.10210	1.35815
1.984	3.27706	0.10194	1.36327
1.985	3.27731	0.10231	1.37668
1.986	3.27732	0.10256	1.38644
1.987	3.27728	0.10236	1.39467
1.988	3.27734	0.10273	1.40399
1.989	3.27746	0.10286	1.41545
1.990	3.27756	0.10272	1.42772
1.991	3.27736	0.10297	1.43729
1.992	3.27687	0.10310	1.44102
1.993	3.27669	0.10275	1.44727
1.994	3.27709	0.10267	1.45105
1.995	3.27748	0.10285	1.45854
1.996	3.27744	0.10257	1.46216
1.997	3.27725	0.10214	1.46562
1.998	3.27712	0.10247	1.46642
1.999	3.27693	0.10225	1.47490
2.000	3.27667	0.10174	1.47296
2.001	3.27673	0.10178	1.47754
2.002	3.27719	0.10201	1.47733
2.003	3.27743	0.10149	1.47940
2.004	3.27709	0.10097	1.48154
2.005	3.27658	0.10113	1.48145
2.006	3.27635	0.10110	1.48787
2.007	3.27662	0.10047	1.48010
2.008	3.27728	0.10019	1.48216
2.009	3.27758	0.10028	1.48431
2.010	3.27717	0.10006	1.48203
2.011	3.27679	0.09970	1.48434
2.012	3.27690	0.09955	1.48277
2.013	3.27695	0.09969	1.48100
2.014	3.27663	0.09975	1.48289
2.015	3.27633	0.09947	1.48257
2.016	3.27640	0.09958	1.48409
2.017	3.27677	0.09993	1.48360
2.018	3.27728	0.09975	1.48373
2.019	3.27763	0.09946	1.48251
2.020	3.27762	0.09976	1.48326
2.021	3.27738	0.09987	1.48393
2.022	3.27709	0.09953	1.48309
2.023	3.27698	0.09925	1.48462
2.024	3.27715	0.09960	1.48236
2.025	3.27730	0.09948	1.48190
2.026	3.27731	0.09899	1.48236
2.027	3.27751	0.09883	1.48515
2.028	3.27794	0.09904	1.48349
2.029	3.27799	0.09888	1.48378
2.030	3.27737	0.09861	1.48283
2.031	3.27674	0.09858	1.48352
2.032	3.27662	0.09877	1.48358
2.033	3.27690	0.09877	1.48409
2.034	3.27731	0.09856	1.48323
2.035	3.27741	0.09869	1.48297
2.036	3.27704	0.09896	1.48323
2.037	3.27661	0.09891	1.48483
2.038	3.27649	0.09860	1.48317
2.039	3.27676	0.09888	1.48369
2.040	3.27722	0.09910	1.48732
2.041	3.27721	0.09892	1.48288
2.042	3.27655	0.09845	1.48463
2.043	3.27623	0.09886	1.48384
2.044	3.27681	0.09891	1.48296
2.045	3.27755	0.09846	1.48138
2.046	3.27782	0.09825	1.48241
2.047	3.27769	0.09857	1.48444
2.048	3.27738	0.09855	1.48608
2.049	3.27731	0.09831	1.48404
2.050	3.27758	0.09824	1.48149
2.051	3.27751	0.09841	1.48174
2.052	3.27685	0.09851	1.48364
2.053	3.27653	0.09830	1.48401
2.054	3.27704	0.09812	1.48296
2.055	3.27746	0.09846	1.47896
2.056	3.27727	0.09858	1.48340
2.057	3.27715	0.09822	1.48409
2.058	3.27753	0.09839	1.48334
2.059	3.27773	0.09875	1.48395
2.060	3.27737	0.09868	1.48396
2.061	3.27690	0.09830	1.48438
2.062	3.27673	0.09875	1.48331
2.063	3.27688	0.09899	1.48201
2.064	3.27725	0.09866	1.48441
2.065	3.27744	0.09856	1.48309
2.066	3.27725	0.09891	1.48227
2.067	3.27691	0.09898	1.48586
2.068	3.27661	0.09871	1.48276
2.069	3.27630	0.09878	1.48512
2.070	3.27611	0.09908	1.48354
2.071	3.27653	0.09903	1.48265
2.072	3.27757	0.09875	1.47990
2.073	3.27803	0.09894	1.48279
2.074	3.27734	0.09916	1.48511
2.075	3.27680	0.09906	1.48500
2.076	3.27719	0.09889	1.48347
2.077	3.27763	0.09931	1.48346
2.078	3.27746	0.09941	1.48274
2.079	3.27705	0.09913	1.48418
2.080	3.27677	0.09915	1.48094
2.081	3.27666	0.09956	1.48367
2.082	3.27675	0.09957	1.48238
2.083	3.27706	0.09915	1.48299
2.084	3.27752	0.09959	1.48579
2.085	3.27775	0.09972	1.48369
2.086	3.27753	0.09935	1.48233
2.087	3.27724	0.09910	1.48293
2.088	3.27712	0.09941	1.48424
2.089	3.27714	0.09927	1.48254
2.090	3.27715	0.09894	1.48579
2.091	3.27689	0.09875	1.48207
2.092	3.27641	0.09887	1.48273
2.093	3.27645	0.09903	1.48421
2.094	3.27723	0.09878	1.48146
2.095	3.27756	0.09858	1.48383
2.096	3.27690	0.09884	1.48404
2.097	3.27654	0.09889	1.48341
2.098	3.27717	0.09853	1.48230
2.099	3.27758	0.09837	1.48198
2.100	3.27708	0.09869	1.48360
2.101	3.27665	0.09860	1.48489
2.102	3.27699	0.09820	1.48361
2.103	3.27752	0.09813	1.48474
2.104	3.27776	0.09840	1.48395
2.105	3.27772	0.09824	1.48355
2.106	3.27754	0.09798	1.48387
2.107	3.27743	0.09800	1.48270
2.108	3.27747	0.09816	1.48499
2.109	3.27740	0.09822	1.48384
2.110	3.27704	0.09798	1.48265
2.111	3.27658	0.09808	1.47643
2.112	3.27627	0.09845	1.48384
2.113	3.27646	0.09851	1.48303
2.114	3.27716	0.09813	1.49052
2.115	3.27762	0.09833	1.48315
2.116	3.27740	0.09855	1.48444
2.117	3.27709	0.09834	1.48294
2.118	3.27709	0.09793	1.48615
2.119	3.27712	0.09834	1.48265
2.120	3.27693	0.09854	1.48389
2.121	3.27660	0.09826	1.48244
2.122	3.27632	0.09807	1.48265
2.123	3.27644	0.09852	1.48390
2.124	3.27702	0.09859	1.48305
2.125	3.27749	0.09841	1.48264
2.126	3.27753	0.09843	1.48322
2.127	3.27765	0.09863	1.48267
2.128	3.27801	0.09874	1.48334
2.129	3.27775	0.09839	1.48431
2.130	3.27659	0.09837	1.48412
2.131	3.27587	0.09863	1.48265
2.132	3.27632	0.09870	1.48270
2.133	3.27689	0.09837	1.48245
2.134	3.27688	0.09847	1.48236
2.135	3.27685	0.09871	1.48396
2.136	3.27716	0.09862	1.48401
2.137	3.27725	0.09814	1.48152
2.138	3.27688	0.09849	1.48389
2.139	3.27669	0.09869	1.48357
2.140	3.27706	0.09837	1.48320
2.141	3.27750	0.09810	1.48383
2.142	3.27757	0.09854	1.48326
2.143	3.27739	0.09854	1.48363
2.144	3.27715	0.09846	1.48317
2.145	3.27717	0.09830	1.48511
2.146	3.27753	0.09857	1.48212
2.147	3.27775	0.09869	1.48317
2.148	3.27757	0.09841	1.48280
2.149	3.27744	0.09821	1.48322
2.150	3.27762	0.09848	1.48380
2.151	3.27774	0.09859	1.48521
2.152	3.27754	0.09829	1.48393
2.153	3.27722	0.09816	1.48180
2.154	3.27702	0.09848	1.48582
2.155	3.27699	0.09851	1.48317
2.156	3.27710	0.09812	1.48277
2.157	3.27711	0.09831	1.48235
2.158	3.27688	0.09868	1.48206
2.159	3.27663	0.09853	1.48357
2.160	3.27655	0.09824	1.48376
2.161	3.27673	0.09847	1.48418
2.162	3.27716	0.09854	1.48134
2.163	3.27770	0.09849	1.48192
2.164	3.27807	0.09826	1.48172
2.165	3.27775	0.09842	1.48300
2.166	3.27669	0.09864	1.48119
2.167	3.27602	0.09851	1.48459
2.168	3.27638	0.09824	1.48344
2.169	3.27689	0.09859	1.48363
2.170	3.27690	0.09885	1.47989
2.171	3.27661	0.09860	1.48509
2.172	3.27632	0.09861	1.49049
2.173	3.27622	0.09913	1.48366
2.174	3.27643	0.09908	1.48883
2.175	3.27695	0.09865	1.48282
2.176	3.27765	0.09888	1.48230
2.177	3.27809	0.09912	1.48343
2.178	3.27803	0.09886	1.48366
2.179	3.27765	0.09858	1.48232
2.180	3.27720	0.09897	1.48148
2.181	3.27696	0.09899	1.48338
2.182	3.27711	0.09886	1.48300
2.183	3.27753	0.09883	1.48299
2.184	3.27795	0.09919	1.48392
2.185	3.27779	0.09932	1.48238
2.186	3.27693	0.09901	1.48134
2.187	3.27631	0.09919	1.48409
2.188	3.27647	0.09954	1.48131
2.189	3.27668	0.09942	1.48241
2.190	3.27647	0.09916	1.48247
2.191	3.27639	0.09953	1.48373
2.192	3.27680	0.09973	1.48196
2.193	3.27740	0.09948	1.48615
2.194	3.27783	0.09932	1.48378
2.195	3.27785	0.09974	1.48358
2.196	3.27738	0.09972	1.48561
2.197	3.27668	0.09926	1.48389
2.198	3.27611	0.09960	1.48433
2.199	3.27614	0.09985	1.48384
2.200	3.27684	0.09950	1.48685
2.201	3.27731	0.09930	1.48407
2.202	3.27706	0.09973	1.48045
2.203	3.27682	0.09961	1.48445
2.204	3.27711	0.09935	1.48343
2.205	3.27750	0.09944	1.48407
2.206	3.27760	0.09962	1.48389
2.207	3.27736	0.09955	1.48488
2.208	3.27686	0.09916	1.48247
2.209	3.27647	0.09924	1.48199
2.210	3.27646	0.09947	1.48395
2.211	3.27675	0.09935	1.48175
2.212	3.27714	0.09890	1.48065
2.213	3.27727	0.09915	1.48239
2.214	3.27706	0.09925	1.48480
2.215	3.27701	0.09907	1.48288
2.216	3.27733	0.09866	1.48221
2.217	3.27740	0.09911	1.48021
2.218	3.27697	0.09922	1.48193
2.219	3.27688	0.09881	1.48380
2.220	3.27758	0.09868	1.48311
2.221	3.27830	0.09899	1.48421
2.222	3.27845	0.09888	1.48381
2.223	3.27809	0.09862	1.48155
2.224	3.27752	0.09865	1.48300
2.225	3.27729	0.09880	1.48376
2.226	3.27764	0.09879	1.48451
2.227	3.27790	0.09846	1.48279
2.228	3.27765	0.09853	1.48431
2.229	3.27720	0.09878	1.48386
2.230	3.27685	0.09879	1.48387
2.231	3.27664	0.09847	1.48209
2.232	3.27663	0.09877	1.48300
2.233	3.27691	0.09913	1.48061
2.234	3.27740	0.09894	1.48311
2.235	3.27757	0.09894	1.48386
2.236	3.27714	0.09943	1.48355
2.237	3.27658	0.09939	1.48351
2.238	3.27637	0.09895	1.48473
2.239	3.27683	0.09923	1.48186
2.240	3.27777	0.09955	1.48187
2.241	3.27796	0.09926	1.48636
2.242	3.27693	0.09905	1.48222
2.243	3.27616	0.09949	1.48373
2.244	3.27657	0.09951	1.48183
2.245	3.27722	0.09935	1.48058
2.246	3.27737	0.09936	1.48361
2.247	3.27726	0.09966	1.48323
2.248	3.27713	0.09961	1.48637
2.249	3.27693	0.09936	1.48151
2.250	3.27667	0.09958	1.48390
2.251	3.27672	0.09976	1.48235
2.252	3.27717	0.09954	1.48256
2.253	3.27745	0.09928	1.48357
2.254	3.27730	0.09961	1.48244
2.255	3.27734	0.09969	1.48267
2.256	3.27783	0.09940	1.48154
2.257	3.27802	0.09933	1.48360
2.258	3.27752	0.09970	1.48405
2.259	3.27709	0.09959	1.48244
2.260	3.27721	0.09912	1.48244
2.261	3.27747	0.09950	1.48463
2.262	3.27752	0.09963	1.48367
2.263	3.27740	0.09929	1.48306
2.264	3.27718	0.09907	1.48535
2.265	3.27692	0.09939	1.48340
2.266	3.27670	0.09937	1.48192
2.267	3.27670	0.09918	1.48299
2.268	3.27691	0.09939	1.48509
2.269	3.27695	0.09955	1.48291
2.270	3.27670	0.09937	1.48366
2.271	3.27673	0.09915	1.48141
2.272	3.27730	0.09936	1.48155
2.273	3.27780	0.09953	1.48323
2.274	3.27775	0.09939	1.48346
2.275	3.27733	0.09906	1.48334
2.276	3.27684	0.09944	1.48494
2.277	3.27669	0.09960	1.48819
2.278	3.27703	0.09932	1.48428
2.279	3.27730	0.09939	1.48357
2.280	3.27723	0.09973	1.48503
2.281	3.27735	0.09969	1.48189
2.282	3.27786	0.09927	1.48315
2.283	3.27800	0.09966	1.48621
2.284	3.27739	0.09983	1.48364
2.285	3.27673	0.09939	1.48270
2.286	3.27659	0.09946	1.48564
2.287	3.27692	0.09984	1.48425
2.288	3.27745	0.09969	1.48178
2.289	3.27754	0.09933	1.48352
2.290	3.27700	0.09965	1.48624
2.291	3.27667	0.09982	1.48442
2.292	3.27701	0.09972	1.48628
2.293	3.27730	0.09975	1.48328
2.294	3.27711	0.10007	1.48302
2.295	3.27699	0.10017	1.48331
2.296	3.27723	0.09980	1.48221
2.297	3.27723	0.09995	1.48358
2.298	3.27676	0.10020	1.48424
2.299	3.27653	0.10000	1.48213
2.300	3.27695	0.09973	1.48451
2.301	3.27731	0.09998	1.48424
2.302	3.27715	0.10014	1.48314
2.303	3.27674	0.09979	1.48311
2.304	3.27640	0.09982	1.48297
2.305	3.27641	0.10021	1.48418
2.306	3.27683	0.10004	1.49123
2.307	3.27739	0.09957	1.48401
2.308	3.27778	0.09996	1.48256
2.309	3.27766	0.10005	1.48337
2.310	3.27712	0.09962	1.48315
2.311	3.27705	0.09945	1.48331
2.312	3.27780	0.09981	1.48325
2.313	3.27818	0.09963	1.48308
2.314	3.27751	0.09928	1.48323
2.315	3.27670	0.09919	1.48277
2.316	3.27649	0.09935	1.48354
2.317	3.27675	0.09931	1.48302
2.318	3.27719	0.09900	1.48293
2.319	3.27746	0.09889	1.48181
2.320	3.27735	0.09914	1.48251
2.321	3.27708	0.09905	1.48338
2.322	3.27693	0.09860	1.48479
2.323	3.27725	0.09860	1.48543
2.324	3.27798	0.09893	1.48357
2.325	3.27813	0.09880	1.48352
2.326	3.27730	0.09842	1.48390
2.327	3.27661	0.09880	1.48547
2.328	3.27676	0.09900	1.48334
2.329	3.27698	0.09871	1.48299
2.330	3.27679	0.09843	1.48412
2.331	3.27669	0.09875	1.48346
2.332	3.27698	0.09878	1.48351
2.333	3.27712	0.09861	1.47980
2.334	3.27683	0.09845	1.48323
2.335	3.27669	0.09866	1.48262
2.336	3.27697	0.09879	1.48389
2.337	3.27712	0.09862	1.48372
2.338	3.27684	0.09834	1.48303
2.339	3.27668	0.09879	1.48407
2.340	3.27698	0.09882	1.48453
2.341	3.27733	0.09852	1.48393
2.342	3.27743	0.09857	1.48177
2.343	3.27744	0.09893	1.48444
2.344	3.27748	0.09884	1.48351
2.345	3.27740	0.09847	1.48459
2.346	3.27714	0.09880	1.48349
2.347	3.27696	0.09909	1.48303
2.348	3.27706	0.09881	1.48102
2.349	3.27735	0.09869	1.48352
2.350	3.27764	0.09916	1.48444
2.351	3.27751	0.09919	1.48412
2.352	3.27685	0.09893	1.48282
2.353	3.27630	0.09919	1.48329
2.354	3.27632	0.09954	1.48494
2.355	3.27679	0.09946	1.48509
2.356	3.27742	0.09924	1.48415
2.357	3.27776	0.09948	1.48318
2.358	3.27762	0.09961	1.48305
2.359	3.27741	0.09939	1.48314
2.360	3.27737	0.09919	1.48293
2.361	3.27701	0.09949	1.48401
2.362	3.27622	0.09953	1.48260
2.363	3.27595	0.09925	1.48344
2.364	3.27662	0.09928	1.48683
2.365	3.27717	0.09972	1.48251
2.366	3.27700	0.09950	1.48383
2.367	3.27684	0.09913	1.48323
2.368	3.27722	0.09956	1.48331
2.369	3.27765	0.09968	1.48308
2.370	3.27777	0.09930	1.48186
2.371	3.27773	0.09921	1.48323
2.372	3.27766	0.09953	1.48305
2.373	3.27734	0.09936	1.48242
2.374	3.27678	0.09911	1.48390
2.375	3.27652	0.09917	1.48335
2.376	3.27684	0.09934	1.48335
2.377	3.27716	0.09924	1.48366
2.378	3.27712	0.09896	1.48203
2.379	3.27695	0.09912	1.48480
2.380	3.27691	0.09931	1.48323
2.381	3.27701	0.09917	1.48314
2.382	3.27718	0.09881	1.48274
2.383	3.27729	0.09909	1.48323
2.384	3.27725	0.09921	1.48073
2.385	3.27709	0.09899	1.47226
2.386	3.27690	0.09874	1.48309
2.387	3.27683	0.09922	1.48270
2.388	3.27695	0.09925	1.48302
2.389	3.27718	0.09888	1.48317
2.390	3.27734	0.09894	1.48363
2.391	3.27722	0.09928	1.48308
2.392	3.27682	0.09902	1.48537
2.393	3.27670	0.09875	1.48247
2.394	3.27707	0.09893	1.48256
2.395	3.27727	0.09906	1.48314
2.396	3.27690	0.09888	1.48277
2.397	3.27646	0.09873	1.48405
2.398	3.27640	0.09893	1.48444
2.399	3.27678	0.09906	1.48338
2.400	3.27742	0.09894	1.48302
2.401	3.27776	0.09876	1.48335
2.402	3.27757	0.09907	1.48404
2.403	3.27745	0.09923	1.48273
2.404	3.27771	0.09888	1.48303
2.405	3.27790	0.09897	1.48549
2.406	3.27770	0.09929	1.48151
2.407	3.27737	0.09914	1.48244
2.408	3.27712	0.09881	1.48471
2.409	3.27695	0.09913	1.48277
2.410	3.27686	0.09940	1.48279
2.411	3.27704	0.09910	1.48401
2.412	3.27749	0.09883	1.48553
2.413	3.27776	0.09931	1.48402
2.414	3.27760	0.09925	1.48344
2.415	3.27742	0.09906	1.48491
2.416	3.27744	0.09916	1.48508
2.417	3.27741	0.09926	1.48520
2.418	3.27719	0.09928	1.48755
2.419	3.27694	0.09889	1.48344
2.420	3.27682	0.09895	1.48380
2.421	3.27684	0.09907	1.48172
2.422	3.27692	0.09902	1.48389
2.423	3.27698	0.09858	1.48343
2.424	3.27697	0.09879	1.48398
2.425	3.27699	0.09908	1.48370
2.426	3.27709	0.09884	1.48141
2.427	3.27712	0.09852	1.48370
2.428	3.27702	0.09850	1.48386
2.429	3.27699	0.09306	1.48404
2.430	3.27710	0.08822	1.48372
2.431	3.27711	0.08773	1.48586
2.432	3.27695	0.08902	1.48346
2.433	3.27703	0.09022	1.48267
2.434	3.27743	0.09225	1.48203
2.435	3.27733	0.09397	1.48409
2.436	3.27644	0.09512	1.48407
2.437	3.27589	0.09670	1.48276
2.438	3.27632	0.09743	1.48276
2.439	3.27691	0.09857	1.48250
2.440	3.27703	0.09940	1.48415
2.441	3.27697	0.09956	1.48273
2.442	3.27701	0.10036	1.48244
2.443	3.27717	0.10092	1.48323
2.444	3.27735	0.10130	1.48241
2.445	3.27721	0.10214	1.48097
2.446	3.27668	0.10248	1.48241
2.447	3.27635	0.10293	1.48215
2.448	3.27657	0.10338	1.48418
2.449	3.27686	0.10333	1.48701
2.450	3.27687	0.10349	1.48302
2.451	3.27682	0.10376	1.48296
2.452	3.27692	0.10341	1.48322
2.453	3.27720	0.10322	1.48196
2.454	3.27763	0.10339	1.48236
2.455	3.27793	0.10307	1.48689
2.456	3.27789	0.10268	1.48422
2.457	3.27747	0.10286	1.47961
2.458	3.27684	0.10271	1.48230
2.459	3.27651	0.10222	1.48351
2.460	3.27673	0.10209	1.47847
2.461	3.27701	0.10220	1.48758
2.462	3.27697	0.10179	1.48241
2.463	3.27679	0.10108	1.48264
2.464	3.27663	0.10117	1.48370
2.465	3.27649	0.10094	1.48389
2.466	3.27644	0.10030	1.48398
2.467	3.27679	0.09974	1.48354
2.468	3.27754	0.09970	1.48297
2.469	3.27789	0.09953	1.48466
2.470	3.27742	0.09930	1.48239
2.471	3.27669	0.09888	1.48421
2.472	3.27626	0.09896	1.48378
2.473	3.27625	0.09923	1.48381
2.474	3.27655	0.09911	1.48425
2.475	3.27665	0.09870	1.48375
2.476	3.27638	0.09878	1.48265
2.477	3.27645	0.09897	1.49013
2.478	3.27719	0.09870	1.48360
2.479	3.27781	0.09819	1.48357
2.480	3.27780	0.09846	1.48303
2.481	3.27754	0.09866	1.48334
2.482	3.27736	0.09838	1.48305
2.483	3.27705	0.09819	1.48409
2.484	3.27657	0.09857	1.48318
2.485	3.27637	0.09860	1.48366
2.486	3.27664	0.09845	1.48421
2.487	3.27683	0.09814	1.48230
2.488	3.27660	0.09838	1.48410
2.489	3.27633	0.09846	1.48412
2.490	3.27630	0.09835	1.48233
2.491	3.27638	0.09796	1.48195
2.492	3.27646	0.09831	1.48506
2.493	3.27654	0.09844	1.48253
2.494	3.27669	0.09814	1.48288
2.495	3.27708	0.09795	1.48416
2.496	3.27766	0.09837	1.48332
2.497	3.27788	0.09848	1.47928
2.498	3.27753	0.09810	1.48369
2.499	3.27727	0.09826	1.48300
2.500	3.27747	0.09847	1.48543
2.501	3.27757	0.09846	1.48372
2.502	3.27724	0.09816	1.48341
2.503	3.27695	0.09829	1.48245
2.504	3.27701	0.09849	1.48138
2.505	3.27715	0.09846	1.48283
2.506	3.27714	0.09827	1.48427
2.507	3.27714	0.09852	1.48778
2.508	3.27719	0.09887	1.48399
2.509	3.27708	0.09878	1.48418
2.510	3.27674	0.09845	1.48460
2.511	3.27650	0.09882	1.48367
2.512	3.27657	0.09887	1.48082
2.513	3.27668	0.09863	1.48334
2.514	3.27666	0.09850	1.47913
2.515	3.27669	0.09898	1.48433
2.516	3.27689	0.09899	1.48401
2.517	3.27719	0.09857	1.48369
2.518	3.27747	0.09899	1.48517
2.519	3.27760	0.09924	1.48157
2.520	3.27756	0.09896	1.48479
2.521	3.27762	0.09881	1.48314
2.522	3.27785	0.09921	1.48325
2.523	3.27785	0.09923	1.48117
2.524	3.27741	0.09905	1.48347
2.525	3.27688	0.09904	1.48285
2.526	3.27661	0.09926	1.48257
2.527	3.27674	0.09925	1.48355
2.528	3.27713	0.09902	1.48456
2.529	3.27703	0.09921	1.48294
2.530	3.27623	0.09940	1.48253
2.531	3.27597	0.09927	1.48434
2.532	3.27687	0.09907	1.48354
2.533	3.27767	0.09951	1.48370
2.534	3.27752	0.09972	1.48254
2.535	3.27705	0.09942	1.48206
2.536	3.27684	0.09936	1.48521
2.537	3.27683	0.09969	1.48380
2.538	3.27692	0.09953	1.48280
2.539	3.27698	0.09905	1.48297
2.540	3.27701	0.09934	1.48315
2.541	3.27719	0.09948	1.48488
2.542	3.27755	0.09923	1.48500
2.543	3.27775	0.09902	1.48276
2.544	3.27755	0.09949	1.48476
2.545	3.27722	0.09942	1.48016
2.546	3.27703	0.09911	1.48279
2.547	3.27720	0.09926	1.48177
2.548	3.27765	0.09945	1.48332
2.549	3.27768	0.09950	1.48279
2.550	3.27698	0.09916	1.48367
2.551	3.27626	0.09920	1.48477
2.552	3.27609	0.09944	1.48361
2.553	3.27649	0.09936	1.48207
2.554	3.27719	0.09899	1.48279
2.555	3.27740	0.09925	1.48280
2.556	3.27683	0.09945	1.48596
2.557	3.27654	0.09917	1.48300
2.558	3.27710	0.09899	1.48428
2.559	3.27765	0.09940	1.48357
2.560	3.27754	0.09936	1.48209
2.561	3.27701	0.09898	1.48334
2.562	3.27650	0.09919	1.48297
2.563	3.27663	0.09947	1.48323
2.564	3.27751	0.09933	1.48381
2.565	3.27808	0.09907	1.48376
2.566	3.27776	0.09953	1.48428
2.567	3.27741	0.09963	1.48357
2.568	3.27760	0.09948	1.48248
2.569	3.27773	0.09957	1.48303
2.570	3.27738	0.09975	1.48254
2.571	3.27689	0.09970	1.48198
2.572	3.27659	0.09940	1.48297
2.573	3.27653	0.09974	1.48404
2.574	3.27666	0.09991	1.48352
2.575	3.27686	0.09973	1.48105
2.576	3.27702	0.09960	1.48329
2.577	3.27716	0.10004	1.48213
2.578	3.27729	0.10007	1.47969
2.579	3.27726	0.09979	1.48259
2.580	3.27706	0.10014	1.48422
2.581	3.27699	0.10037	1.48486
2.582	3.27717	0.10014	1.48318
2.583	3.27728	0.10019	1.48184
2.584	3.27714	0.10062	1.48413
2.585	3.27695	0.10051	1.47641
2.586	3.27682	0.10014	1.48282
2.587	3.27662	0.10067	1.48415
2.588	3.27634	0.10076	1.48468
2.589	3.27644	0.10033	1.48547
2.590	3.27701	0.10066	1.48373
2.591	3.27727	0.10089	1.48386
2.592	3.27687	0.10062	1.48328
2.593	3.27671	0.10065	1.48402
2.594	3.27728	0.10109	1.48572
2.595	3.27779	0.10089	1.48505
2.596	3.27766	0.10071	1.48401
2.597	3.27718	0.10094	1.48326
2.598	3.27674	0.10093	1.48485
2.599	3.27672	0.10063	1.48323
2.600	3.27717	0.10070	1.48470
2.601	3.27744	0.10090	1.48495
2.602	3.27722	0.10074	1.48305
2.603	3.27717	0.10049	1.48364
2.604	3.27765	0.10071	1.48254
2.605	3.27810	0.10086	1.48376
2.606	3.27806	0.10062	1.48410
2.607	3.27764	0.10051	1.48961
2.608	3.27712	0.10076	1.48534
2.609	3.27701	0.10064	1.48424
2.610	3.27736	0.10030	1.48413
2.611	3.27714	0.10047	1.48299
2.612	3.27605	0.10064	1.48294
2.613	3.27567	0.10019	1.48318
2.614	3.27675	0.09987	1.48349
2.615	3.27767	0.10028	1.48347
2.616	3.27731	0.10021	1.48381
2.617	3.27653	0.09974	1.48207
2.618	3.27617	0.09986	1.48334
2.619	3.27649	0.10010	1.48352
2.620	3.27737	0.09980	1.48395
2.621	3.27794	0.09949	1.48157
2.622	3.27771	0.09982	1.48491
2.623	3.27719	0.09984	1.48415
2.624	3.27689	0.09965	1.48476
2.625	3.27705	0.09953	1.48471
2.626	3.27763	0.09979	1.48369
2.627	3.27810	0.09980	1.47763
2.628	3.27808	0.09961	1.48389
2.629	3.27762	0.09979	1.48422
2.630	3.27695	0.10002	1.48317
2.631	3.27668	0.09994	1.48219
2.632	3.27702	0.09964	1.48285
2.633	3.27730	0.10006	1.48354
2.634	3.27708	0.10025	1.48329
2.635	3.27678	0.09981	1.48512
2.636	3.27673	0.10018	1.48421
2.637	3.27686	0.10048	1.48163
2.638	3.27702	0.10037	1.48270
2.639	3.27692	0.10025	1.48402
2.640	3.27657	0.10077	1.48299
2.641	3.27659	0.10064	1.48398
2.642	3.27722	0.10039	1.48068
2.643	3.27760	0.10090	1.48495
2.644	3.27726	0.10089	1.48314
2.645	3.27697	0.10051	1.48346
2.646	3.27720	0.10069	1.48288
2.647	3.27746	0.10101	1.48080
2.648	3.27737	0.10067	1.48097
2.649	3.27706	0.10059	1.48146
2.650	3.27680	0.10100	1.48416
2.651	3.27688	0.10079	1.48434
2.652	3.27734	0.10050	1.48375
2.653	3.27759	0.10080	1.48424
2.654	3.27732	0.10088	1.48349
2.655	3.27691	0.10062	1.48337
2.656	3.27672	0.10050	1.48291
2.657	3.27689	0.10068	1.48584
2.658	3.27734	0.10049	1.48267
2.659	3.27760	0.10016	1.48283
2.660	3.27749	0.10011	1.48300
2.661	3.27746	0.10033	1.48311
2.662	3.27772	0.10020	1.48302
2.663	3.27767	0.09975	1.48441
2.664	3.27703	0.10001	1.48749
2.665	3.27644	0.10015	1.48363
2.666	3.27641	0.09987	1.48555
2.667	3.27676	0.09965	1.48418
2.668	3.27714	0.10001	1.48331
2.669	3.27705	0.10003	1.48233
2.670	3.27646	0.09952	1.47746
2.671	3.27648	0.09967	1.48329
2.672	3.27754	0.09989	1.48256
2.673	3.27823	0.09962	1.48039
2.674	3.27775	0.09928	1.48186
2.675	3.27724	0.09964	1.48369
2.676	3.27750	0.09972	1.48431
2.677	3.27797	0.09946	1.48251
2.678	3.27811	0.09941	1.48264
2.679	3.27779	0.09963	1.48204
2.680	3.27711	0.09969	1.48447
2.681	3.27661	0.09944	1.48273
2.682	3.27661	0.09945	1.48499
2.683	3.27689	0.09978	1.48445
2.684	3.27717	0.09970	1.48325
2.685	3.27729	0.09940	1.48378
2.686	3.27720	0.09981	1.48254
2.687	3.27713	0.10003	1.48517
2.688	3.27715	0.09984	1.48438
2.689	3.27688	0.09995	1.48419
2.690	3.27635	0.10033	1.48201
2.691	3.27650	0.10015	1.48410
2.692	3.27754	0.09990	1.48199
2.693	3.27779	0.10042	1.48366
2.694	3.27652	0.10046	1.48407
2.695	3.27576	0.10006	1.48428
2.696	3.27674	0.10043	1.48306
2.697	3.27812	0.10070	1.48236
2.698	3.27867	0.10031	1.48392
2.699	3.27816	0.10035	1.48381
2.700	3.27697	0.10076	1.48386
2.701	3.27636	0.10054	1.48358
2.702	3.27693	0.10019	1.48305
2.703	3.27747	0.10049	1.48099
2.704	3.27715	0.10054	1.48367
2.705	3.27657	0.10028	1.48273
2.706	3.27630	0.10010	1.48337
2.707	3.27643	0.10029	1.48146
2.708	3.27689	0.10023	1.48354
2.709	3.27736	0.09995	1.48447
2.710	3.27763	0.09987	1.48401
2.711	3.27776	0.10012	1.48398
2.712	3.27780	0.10006	1.48450
2.713	3.27771	0.09966	1.48209
2.714	3.27743	0.09988	1.48268
2.715	3.27705	0.10003	1.48488
2.716	3.27667	0.09974	1.48402
2.717	3.27652	0.09933	1.48109
2.718	3.27670	0.09961	1.48325
2.719	3.27705	0.09964	1.48146
2.720	3.27738	0.09916	1.48277
2.721	3.27763	0.09895	1.48271
2.722	3.27770	0.09926	1.48468
2.723	3.27753	0.09916	1.48207
2.724	3.27711	0.09889	1.48337
2.725	3.27656	0.09882	1.48315
2.726	3.27613	0.09898	1.48447
2.727	3.27633	0.09898	1.48380
2.728	3.27720	0.09869	1.48265
2.729	3.27778	0.09862	1.48485
2.730	3.27752	0.09900	1.48309
2.731	3.27706	0.09896	1.48442
2.732	3.27692	0.09853	1.48514
2.733	3.27700	0.09879	1.48270
2.734	3.27711	0.09904	1.48335
2.735	3.27712	0.09890	1.48392
2.736	3.27701	0.09861	1.48442
2.737	3.27700	0.09908	1.49272
2.738	3.27718	0.09919	1.48354
2.739	3.27728	0.09880	1.48596
2.740	3.27707	0.09902	1.48227
2.741	3.27654	0.09945	1.48282
2.742	3.27590	0.09926	1.48427
2.743	3.27582	0.09905	1.48547
2.744	3.27650	0.09952	1.48265
2.745	3.27702	0.09954	1.48209
2.746	3.27684	0.09946	1.48520
2.747	3.27669	0.09960	1.48393
2.748	3.27698	0.09977	1.48465
2.749	3.27710	0.09975	1.48308
2.750	3.27673	0.09961	1.48372
2.751	3.27653	0.09982	1.48213
2.752	3.27685	0.10004	1.48416
2.753	3.27694	0.09985	1.48445
2.754	3.27649	0.09968	1.48344
2.755	3.27644	0.10003	1.48378
2.756	3.27724	0.10002	1.48236
2.757	3.27776	0.09981	1.48239
2.758	3.27738	0.09998	1.48267
2.759	3.27693	0.10029	1.48282
2.760	3.27706	0.09999	1.48463
2.761	3.27754	0.09974	1.48502
2.762	3.27799	0.10013	1.48369
2.763	3.27799	0.10009	1.48375
2.764	3.27748	0.09961	1.48296
2.765	3.27732	0.09974	1.48486
2.766	3.27795	0.10001	1.48206
2.767	3.27859	0.09971	1.48326
2.768	3.27859	0.09936	1.48369
2.769	3.27783	0.09960	1.48256
2.770	3.27667	0.09963	1.48364
2.771	3.27625	0.09936	1.48117
2.772	3.27702	0.09912	1.48402
2.773	3.27762	0.09930	1.48436
2.774	3.27722	0.09942	1.48154
2.775	3.27680	0.09917	1.48305
2.776	3.27702	0.09895	1.48337
2.777	3.27731	0.09923	1.48300
2.778	3.27724	0.09919	1.47804
2.779	3.27712	0.09883	1.48227
2.780	3.27718	0.09852	1.48395
2.781	3.27730	0.09884	1.48421
2.782	3.27732	0.09878	1.48314
2.783	3.27705	0.09829	1.48454
2.784	3.27655	0.09827	1.48535
2.785	3.27639	0.09865	1.48405
2.786	3.27680	0.09851	1.48221
2.787	3.27716	0.09832	1.48267
2.788	3.27709	0.09840	1.48228
2.789	3.27697	0.09853	1.48491
2.790	3.27706	0.09858	1.48488
2.791	3.27713	0.09821	1.48297
2.792	3.27702	0.09820	1.48380
2.793	3.27699	0.09850	1.48415
2.794	3.27707	0.09838	1.48297
2.795	3.27668	0.09797	1.48494
2.796	3.27579	0.09811	1.48328
2.797	3.27573	0.09841	1.48111
2.798	3.27702	0.09828	1.48300
2.799	3.27796	0.09782	1.48207
2.800	3.27756	0.09810	1.48413
2.801	3.27711	0.09843	1.48463
2.802	3.27740	0.09816	1.48563
2.803	3.27733	0.09784	1.48271
2.804	3.27639	0.09804	1.48224
2.805	3.27593	0.09815	1.48384
2.806	3.27666	0.09806	1.48230
2.807	3.27735	0.09780	1.48318
2.808	3.27721	0.09800	1.48369
2.809	3.27697	0.09832	1.48326
2.810	3.27714	0.09820	1.48122
2.811	3.27728	0.09779	1.47838
2.812	3.27707	0.09799	1.48483
2.813	3.27678	0.09825	1.47969
2.814	3.27661	0.09809	1.48668
2.815	3.27650	0.09762	1.48370
2.816	3.27642	0.09794	1.48247
2.817	3.27658	0.09811	1.48364
2.818	3.27698	0.09789	1.48355
2.819	3.27711	0.09770	1.48309
2.820	3.27676	0.09811	1.48244
2.821	3.27651	0.09814	1.48297
2.822	3.27667	0.09803	1.48250
2.823	3.27683	0.09787	1.47633
2.824	3.27671	0.09807	1.48428
2.825	3.27648	0.09818	1.48195
2.826	3.27634	0.09805	1.48250
2.827	3.27640	0.09772	1.48302
2.828	3.27660	0.09806	1.48396
2.829	3.27666	0.09826	1.48212
2.830	3.27646	0.09798	1.48410
2.831	3.27638	0.09779	1.48241
2.832	3.27664	0.09816	1.48326
2.833	3.27706	0.09831	1.48506
2.834	3.27743	0.09793	1.48447
2.835	3.27760	0.09790	1.48512
2.836	3.27757	0.09829	1.48250
2.837	3.27762	0.09818	1.48512
2.838	3.27785	0.09790	1.48317
2.839	3.27785	0.09771	1.48389
2.840	3.27748	0.09779	1.48460
2.841	3.27729	0.09790	1.48412
2.842	3.27757	0.09770	1.48326
2.843	3.27773	0.09739	1.48328
2.844	3.27744	0.09778	1.48187
2.845	3.27708	0.09787	1.48326
2.846	3.27692	0.09773	1.47998
2.847	3.27679	0.09736	1.48415
2.848	3.27657	0.09786	1.48395
2.849	3.27655	0.09797	1.48346
2.850	3.27685	0.09759	1.48462
2.851	3.27718	0.09746	1.48349
2.852	3.27733	0.09784	1.48129
2.853	3.27747	0.09786	1.48331
2.854	3.27769	0.09770	1.48045
2.855	3.27772	0.09760	1.48283
2.856	3.27745	0.09787	1.48428
2.857	3.27727	0.09802	1.48457
2.858	3.27738	0.09784	1.48270
2.859	3.27742	0.09768	1.48344
2.860	3.27724	0.09815	1.48341
2.861	3.27736	0.09818	1.48416
2.862	3.27789	0.09792	1.48451
2.863	3.27798	0.09802	1.48346
2.864	3.27725	0.09839	1.48311
2.865	3.27682	0.09835	1.48279
2.866	3.27727	0.09796	1.48251
2.867	3.27758	0.09844	1.48579
2.868	3.27716	0.09870	1.48161
2.869	3.27681	0.09855	1.48260
2.870	3.27702	0.09843	1.48419
2.871	3.27709	0.09872	1.48280
2.872	3.27665	0.09874	1.48518
2.873	3.27636	0.09851	1.48317
2.874	3.27669	0.09833	1.48056
2.875	3.27723	0.09860	1.48459
2.876	3.27762	0.09867	1.48367
2.877	3.27774	0.09829	1.48820
2.878	3.27758	0.09816	1.48387
2.879	3.27719	0.09852	1.48227
2.880	3.27674	0.09862	1.48213
2.881	3.27673	0.09829	1.48387
2.882	3.27728	0.09823	1.48309
2.883	3.27759	0.09863	1.48447
2.884	3.27717	0.09856	1.48299
2.885	3.27657	0.09809	1.48380
2.886	3.27629	0.09830	1.48288
2.887	3.27643	0.09858	1.48451
2.888	3.27691	0.09842	1.48376
2.889	3.27735	0.09818	1.48386
2.890	3.27748	0.09842	1.48366
2.891	3.27742	0.09858	1.48389
2.892	3.27725	0.09852	1.48383
2.893	3.27688	0.09829	1.48438
2.894	3.27641	0.09851	1.48465
2.895	3.27645	0.09874	1.48369
2.896	3.27713	0.09863	1.48317
2.897	3.27740	0.09847	1.48318
2.898	3.27678	0.09892	1.48454
2.899	3.27636	0.09901	1.48280
2.900	3.27680	0.09863	1.48334
2.901	3.27736	0.09860	1.48401
2.902	3.27740	0.09897	1.48302
2.903	3.27704	0.09889	1.48192
2.904	3.27655	0.09844	1.48486
2.905	3.27638	0.09883	1.48459
2.906	3.27669	0.09909	1.48122
2.907	3.27702	0.09884	1.48235
2.908	3.27704	0.09866	1.48216
2.909	3.27697	0.09912	1.48225
2.910	3.27699	0.09905	1.48094
2.911	3.27696	0.09896	1.48387
2.912	3.27685	0.09898	1.48297
2.913	3.27684	0.09920	1.48409
2.914	3.27701	0.09918	1.48479
2.915	3.27714	0.09887	1.48398
2.916	3.27709	0.09910	1.48453
2.917	3.27695	0.09941	1.48120
2.918	3.27683	0.09927	1.48401
2.919	3.27684	0.09910	1.48390
2.920	3.27696	0.09946	1.48447
2.921	3.27695	0.09960	1.48254
2.922	3.27675	0.09935	1.48181
2.923	3.27669	0.09943	1.48315
2.924	3.27698	0.09978	1.48309
2.925	3.27735	0.09962	1.48265
2.926	3.27756	0.09922	1.48361
2.927	3.27758	0.09965	1.48380
2.928	3.27741	0.09974	1.47995
2.929	3.27704	0.09944	1.48329
2.930	3.27661	0.09959	1.48180
2.931	3.27656	0.09999	1.48369
2.932	3.27705	0.09981	1.48318
2.933	3.27748	0.09952	1.48196
2.934	3.27746	0.09985	1.48456
2.935	3.27724	0.09988	1.48373
2.936	3.27704	0.09966	1.48425
2.937	3.27675	0.09936	1.48343
2.938	3.27641	0.09957	1.48375
2.939	3.27642	0.09964	1.48175
2.940	3.27690	0.09946	1.48416
2.941	3.27711	0.09928	1.48387
2.942	3.27675	0.09958	1.48366
2.943	3.27675	0.09955	1.48656
2.944	3.27752	0.09912	1.48376
2.945	3.27786	0.09911	1.48207
2.946	3.27722	0.09942	1.48439
2.947	3.27684	0.09925	1.48317
2.948	3.27746	0.09864	1.48267
2.949	3.27813	0.09885	1.48354
2.950	3.27809	0.09906	1.48257
2.951	3.27763	0.09878	1.48242
2.952	3.27712	0.09851	1.48344
2.953	3.27678	0.09871	1.48399
2.954	3.27681	0.09879	1.48796
2.955	3.27725	0.09870	1.47670
2.956	3.27789	0.09852	1.48480
2.957	3.27798	0.09888	1.48358
2.958	3.27727	0.09903	1.48470
2.959	3.27681	0.09888	1.48363
2.960	3.27711	0.09863	1.48328
2.961	3.27724	0.09887	1.48376
2.962	3.27665	0.09896	1.48360
2.963	3.27618	0.09866	1.48415
2.964	3.27635	0.09850	1.48685
2.965	3.27651	0.09894	1.48216
2.966	3.27632	0.09886	1.48143
2.967	3.27646	0.09841	1.48335
2.968	3.27723	0.09874	1.48441
2.969	3.27779	0.09901	1.48430
2.970	3.27754	0.09881	1.48494
2.971	3.27682	0.09855	1.48415
2.972	3.27612	0.09894	1.48254
2.973	3.27594	0.09902	1.48219
2.974	3.27645	0.09885	1.48375
2.975	3.27708	0.09867	1.47977
2.976	3.27738	0.09893	1.48376
2.977	3.27744	0.09903	1.48364
2.978	3.27741	0.09885	1.48460
2.979	3.27746	0.09874	1.48439
2.980	3.27756	0.09912	1.48328
2.981	3.27735	0.09903	1.48491
2.982	3.27678	0.09872	1.48445
2.983	3.27653	0.09891	1.48384
2.984	3.27695	0.09913	1.48677
2.985	3.27731	0.09898	1.48820
2.986	3.27717	0.09857	1.48389
2.987	3.27696	0.09898	1.48085
2.988	3.27704	0.09914	1.48398
2.989	3.27736	0.09881	1.48305
2.990	3.27774	0.09872	1.48344
2.991	3.27789	0.09915	1.48532
2.992	3.27775	0.09910	1.48125
2.993	3.27779	0.09883	1.48178
2.994	3.27816	0.09883	1.48399
2.995	3.27812	0.09898	1.47211
2.996	3.27731	0.09894	1.48552
2.997	3.27658	0.09861	1.48389
2.998	3.27650	0.09862	1.48331
2.999	3.27672	0.09881	1.48254
3.000	3.27685	0.09878	1.48035
3.001	3.27680	0.09837	1.48238
3.002	3.27659	0.09855	1.48592
3.003	3.27654	0.09887	1.47650
3.004	3.27677	0.09874	1.47865
3.005	3.27701	0.09833	1.48041
3.006	3.27704	0.09874	1.47818
3.007	3.27696	0.09896	1.47336
3.008	3.27696	0.09866	1.46846
3.009	3.27743	0.09867	1.46582
3.010	3.27829	0.09912	1.46132
3.011	3.27841	0.09909	1.45262
3.012	3.27739	0.09886	1.44728
3.013	3.27684	0.09925	1.44032
3.014	3.27755	0.09937	1.43654
3.015	3.27782	0.09938	1.42633
3.016	3.27678	0.09932	1.42026
3.017	3.27603	0.09971	1.41310
3.018	3.27659	0.09981	1.39603
3.019	3.27740	0.09975	1.38750
3.020	3.27761	0.10010	1.37711
3.021	3.27737	0.10025	1.36653
3.022	3.27696	0.10003	1.35829
3.023	3.27662	0.09980	1.34624
3.024	3.27652	0.10002	1.33557
3.025	3.27675	0.09995	1.31091
3.026	3.27718	0.09953	1.30070
3.027	3.27723	0.09925	1.28708
3.028	3.27676	0.09955	1.27362
3.029	3.27676	0.09951	1.25896
3.030	3.27762	0.09903	1.24695
3.031	3.27802	0.09905	1.23091
3.032	3.27733	0.09924	1.21617
3.033	3.27703	0.09892	1.18773
3.034	3.27784	0.09852	1.16924
3.035	3.27812	0.09863	1.15700
3.036	3.27699	0.09889	1.13768
3.037	3.27595	0.09882	1.11526
3.038	3.27605	0.09865	1.10437
3.039	3.27663	0.09918	1.07062
3.040	3.27706	0.09959	1.05354
3.041	3.27732	0.09966	1.03220
3.042	3.27748	0.10008	1.01152
3.043	3.27762	0.10038	0.99370
3.044	3.27776	0.10034	0.97539
3.045	3.27770	0.10046	0.95609
3.046	3.27736	0.10079	0.92885
3.047	3.27688	0.10070	0.88965
3.048	3.27650	0.10041	0.87138
3.049	3.27659	0.10077	0.85394
3.050	3.27718	0.10077	0.83014
3.051	3.27741	0.10041	0.81067
3.052	3.27690	0.10043	0.78793
3.053	3.27649	0.10076	0.75075
3.054	3.27667	0.10049	0.72073
3.055	3.27681	0.09982	0.69589
3.056	3.27654	0.09994	0.67490
3.057	3.27637	0.09999	0.65350
3.058	3.27670	0.09955	0.62891
3.059	3.27746	0.09919	0.60611
3.060	3.27831	0.09958	0.56201
3.061	3.27843	0.09955	0.53737
3.062	3.27758	0.09937	0.50935
3.063	3.27692	0.09971	0.48260
3.064	3.27711	0.10002	0.45924
3.065	3.27726	0.10003	0.43689
3.066	3.27685	0.10013	0.41129
3.067	3.27671	0.10063	0.36176
3.068	3.27732	0.10076	0.33421
3.069	3.27800	0.10065	0.31149
3.070	3.27820	0.10089	0.28377
3.071	3.27797	0.10100	0.25755
3.072	3.27750	0.10072	0.23499
3.073	3.27706	0.10082	0.18704
3.074	3.27685	0.10106	0.15599
3.075	3.27683	0.10095	0.13191
3.076	3.27698	0.10072	0.10596
3.077	3.27739	0.10117	0.08029
3.078	3.27793	0.10120	0.05432
3.079	3.27799	0.10088	0.01910
3.080	3.27733	0.10108	-0.02231
3.081	3.27676	0.10125	-0.04880
3.082	3.27683	0.10091	-0.07318
3.083	3.27721	0.10062	-0.09804
3.084	3.27754	0.10089	-0.12607
3.085	3.27755	0.10088	-0.15358
3.086	3.27717	0.10039	-0.20279
3.087	3.27676	0.10066	-0.22481
3.088	3.27660	0.10086	-0.25455
3.089	3.27672	0.10062	-0.27911
3.090	3.27707	0.10065	-0.30769
3.091	3.27753	0.10103	-0.32854
3.092	3.27792	0.10089	-0.37758
3.093	3.27803	0.10069	-0.40572
3.094	3.27777	0.10107	-0.43010
3.095	3.27735	0.10095	-0.45618
3.096	3.27699	0.10052	-0.48250
3.097	3.27681	0.10038	-0.50458
3.098	3.27689	0.10053	-0.54843
3.099	3.27721	0.10037	-0.57635
3.100	3.27760	0.09997	-0.60066
3.101	3.27751	0.09986	-0.62485
3.102	3.27684	0.10006	-0.64746
3.103	3.27654	0.09996	-0.67068
3.104	3.27706	0.09946	-0.71230
3.105	3.27745	0.09965	-0.74013
3.106	3.27712	0.09988	-0.76318
3.107	3.27681	0.09956	-0.78467
3.108	3.27702	0.09922	-0.80382
3.109	3.27733	0.09962	-0.82588
3.110	3.27735	0.09974	-0.84770
3.111	3.27704	0.09938	-0.88840
3.112	3.27648	0.09969	-0.90860
3.113	3.27598	0.10007	-0.93117
3.114	3.27586	0.09983	-0.94833
3.115	3.27638	0.09990	-0.96829
3.116	3.27740	0.10047	-0.98955
3.117	3.27790	0.10044	-1.02739
3.118	3.27739	0.10034	-1.04594
3.119	3.27696	0.10093	-1.06711
3.120	3.27726	0.10092	-1.07976
3.121	3.27763	0.10073	-1.09807
3.122	3.27757	0.10117	-1.12581
3.123	3.27742	0.10121	-1.14795
3.124	3.27742	0.10114	-1.16626
3.125	3.27743	0.10142	-1.17897
3.126	3.27732	0.10166	-1.19995
3.127	3.27707	0.10155	-1.21423
3.128	3.27681	0.10162	-1.22705
3.129	3.27688	0.10192	-1.25262
3.130	3.27739	0.10191	-1.26816
3.131	3.27778	0.10186	-1.28204
3.132	3.27770	0.10220	-1.29292
3.133	3.27736	0.10215	-1.30721
3.134	3.27707	0.10200	-1.31573
3.135	3.27721	0.10230	-1.33997
3.136	3.27777	0.10239	-1.35332
3.137	3.27781	0.10211	-1.35977
3.138	3.27698	0.10245	-1.37117
3.139	3.27653	0.10251	-1.38223
3.140	3.27711	0.10219	-1.38910
3.141	3.27762	0.10232	-1.40671
3.142	3.27732	0.10245	-1.41206
3.143	3.27694	0.10227	-1.42178
3.144	3.27703	0.10216	-1.42941
3.145	3.27735	0.10243	-1.43661
3.146	3.27759	0.10225	-1.44296
3.147	3.27755	0.10193	-1.45024
3.148	3.27725	0.10227	-1.45578
3.149	3.27715	0.10229	-1.46152
3.150	3.27745	0.10196	-1.46518
3.151	3.27757	0.10230	-1.46536
3.152	3.27719	0.10236	-1.46722
3.153	3.27676	0.10207	-1.47104
3.154	3.27664	0.10224	-1.47342
3.155	3.27669	0.10247	-1.47328
3.156	3.27673	0.10219	-1.47696
3.157	3.27664	0.10233	-1.47591
3.158	3.27650	0.10260	-1.47627
3.159	3.27679	0.10239	-1.47635
3.160	3.27757	0.10235	-1.47890
3.161	3.27786	0.10271	-1.47958
3.162	3.27716	0.10246	-1.47807
3.163	3.27643	0.10215	-1.47911
3.164	3.27642	0.10250	-1.47920
3.165	3.27697	0.10233	-1.47830
3.166	3.27770	0.10178	-1.47466
3.167	3.27806	0.10200	-1.47820
3.168	3.27771	0.10221	-1.47783
3.169	3.27697	0.10174	-1.48071
3.170	3.27626	0.10177	-1.47807
3.171	3.27610	0.10203	-1.47943
3.172	3.27671	0.10176	-1.47838
3.173	3.27761	0.10148	-1.47758
3.174	3.27831	0.10183	-1.47697
3.175	3.27848	0.10167	-1.47731
3.176	3.27807	0.10123	-1.47902
3.177	3.27748	0.10124	-1.47842
3.178	3.27704	0.10131	-1.47928
3.179	3.27679	0.10107	-1.47763
3.180	3.27672	0.10072	-1.47882
3.181	3.27688	0.10082	-1.47821
3.182	3.27715	0.10091	-1.47858
3.183	3.27706	0.10060	-1.47792
3.184	3.27650	0.10028	-1.47910
3.185	3.27622	0.10052	-1.48090
3.186	3.27659	0.10046	-1.47795
3.187	3.27681	0.10007	-1.47983
3.188	3.27648	0.10003	-1.47952
3.189	3.27642	0.10033	-1.47681
3.190	3.27708	0.10013	-1.47896
3.191	3.27765	0.09967	-1.47636
3.192	3.27755	0.10011	-1.47792
3.193	3.27700	0.10019	-1.48100
3.194	3.27642	0.09983	-1.47908
3.195	3.27645	0.09996	-1.47952
3.196	3.27723	0.10039	-1.48036
3.197	3.27778	0.10021	-1.47845
3.198	3.27750	0.10002	-1.47726
3.199	3.27707	0.10044	-1.47824
3.200	3.27697	0.10047	-1.47678
3.201	3.27697	0.10017	-1.48138
3.202	3.27683	0.10024	-1.47566
3.203	3.27664	0.10038	-1.47855
3.204	3.27654	0.10028	-1.47849
3.205	3.27675	0.09990	-1.47430
3.206	3.27719	0.10006	-1.47742
3.207	3.27722	0.10022	-1.47597
3.208	3.27664	0.10007	-1.47688
3.209	3.27639	0.09986	-1.48050
3.210	3.27696	0.10019	-1.47975
3.211	3.27749	0.10022	-1.47884
3.212	3.27741	0.09986	-1.47849
3.213	3.27728	0.09995	-1.47760
3.214	3.27743	0.10026	-1.48073
3.215	3.27739	0.10002	-1.47838
3.216	3.27694	0.09968	-1.47832
3.217	3.27666	0.10007	-1.48093
3.218	3.27684	0.10007	-1.47783
3.219	3.27697	0.09969	-1.47684
3.220	3.27675	0.09960	-1.47845
3.221	3.27671	0.09996	-1.47845
3.222	3.27708	0.09972	-1.47441
3.223	3.27727	0.09936	-1.47777
3.224	3.27697	0.09955	-1.48216
3.225	3.27685	0.09970	-1.47911
3.226	3.27726	0.09947	-1.48366
3.227	3.27762	0.09912	-1.47908
3.228	3.27752	0.09946	-1.47696
3.229	3.27723	0.09964	-1.47775
3.230	3.27699	0.09942	-1.48044
3.231	3.27678	0.09918	-1.47606
3.232	3.27656	0.09943	-1.48111
3.233	3.27632	0.09959	-1.47879
3.234	3.27620	0.09915	-1.47926
3.235	3.27669	0.09921	-1.47716
3.236	3.27778	0.09951	-1.47769
3.237	3.27837	0.09945	-1.47935
3.238	3.27791	0.09912	-1.47855
3.239	3.27738	0.09950	-1.47829
3.240	3.27744	0.09966	-1.47845
3.241	3.27760	0.09936	-1.47812
3.242	3.27746	0.09930	-1.48131
3.243	3.27725	0.09973	-1.47319
3.244	3.27715	0.09960	-1.47675
3.245	3.27713	0.09930	-1.47704
3.246	3.27709	0.09955	-1.47699
3.247	3.27693	0.09974	-1.48221
3.248	3.27661	0.09958	-1.47537
3.249	3.27632	0.09934	-1.47839
3.250	3.27626	0.09961	-1.47678
3.251	3.27664	0.09979	-1.47668
3.252	3.27733	0.09959	-1.47870
3.253	3.27733	0.09957	-1.47601
3.254	3.27641	0.09994	-1.47925
3.255	3.27615	0.09988	-1.47760
3.256	3.27728	0.09958	-1.47687
3.257	3.27808	0.09993	-1.47749
3.258	3.27749	0.10012	-1.47694
3.259	3.27673	0.09985	-1.48140
3.260	3.27675	0.09969	-1.47803
3.261	3.27724	0.10003	-1.47746
3.262	3.27772	0.09993	-1.47916
3.263	3.27767	0.09944	-1.47974
3.264	3.27699	0.09974	-1.47916
3.265	3.27647	0.09992	-1.47746
3.266	3.27663	0.09972	-1.47855
3.267	3.27706	0.09944	-1.47762
3.268	3.27738	0.09985	-1.47855
3.269	3.27741	0.09980	-1.47542
3.270	3.27721	0.09957	-1.47722
3.271	3.27715	0.09969	-1.47952
3.272	3.27742	0.09980	-1.47820
3.273	3.27759	0.09970	-1.47931
3.274	3.27736	0.09939	-1.47803
3.275	3.27687	0.09957	-1.47806
3.276	3.27641	0.09974	-1.47736
3.277	3.27643	0.09959	-1.47749
3.278	3.27694	0.09918	-1.47937
3.279	3.27686	0.09956	-1.47986
3.280	3.27584	0.09972	-1.47900
3.281	3.27554	0.09942	-1.47862
3.282	3.27673	0.09926	-1.47775
3.283	3.27766	0.09971	-1.47791
3.284	3.27730	0.09962	-1.47803
3.285	3.27700	0.09911	-1.47966
3.286	3.27756	0.09950	-1.47827
3.287	3.27787	0.09963	-1.47935
3.288	3.27725	0.09937	-1.47983
3.289	3.27659	0.09933	-1.48071
3.290	3.27658	0.09973	-1.47847
3.291	3.27689	0.09971	-1.47913
3.292	3.27715	0.09948	-1.47800
3.293	3.27707	0.09970	-1.47783
3.294	3.27667	0.09989	-1.47725
3.295	3.27655	0.09974	-1.47993
3.296	3.27707	0.09965	-1.47861
3.297	3.27769	0.09991	-1.48083
3.298	3.27795	0.10002	-1.47775
3.299	3.27784	0.09977	-1.47931
3.300	3.27744	0.09982	-1.47614
3.301	3.27685	0.10012	-1.47714
3.302	3.27636	0.10006	-1.47844
3.303	3.27646	0.09970	-1.47916
3.304	3.27725	0.10011	-1.47794
3.305	3.27777	0.10024	-1.48242
3.306	3.27751	0.09991	-1.48030
3.307	3.27728	0.09981	-1.47922
3.308	3.27757	0.10015	-1.47826
3.309	3.27773	0.09999	-1.47641
3.310	3.27736	0.09960	-1.47871
3.311	3.27691	0.09989	-1.47913
3.312	3.27679	0.10006	-1.48027
3.313	3.27706	0.09976	-1.48010
3.314	3.27752	0.09963	-1.47858
3.315	3.27752	0.10000	-1.47856
3.316	3.27688	0.09992	-1.47725
3.317	3.27652	0.09966	-1.47768
3.318	3.27692	0.09989	-1.47729
3.319	3.27732	0.10023	-1.47934
3.320	3.27714	0.10003	-1.47745
3.321	3.27675	0.09975	-1.47896
3.322	3.27651	0.09991	-1.47679
3.323	3.27656	0.10000	-1.47813
3.324	3.27689	0.09972	-1.47934
3.325	3.27716	0.09946	-1.47893
3.326	3.27721	0.09972	-1.47989
3.327	3.27733	0.09964	-1.47998
3.328	3.27767	0.09931	-1.47830
3.329	3.27792	0.09931	-1.48109
3.330	3.27784	0.09972	-1.47966
3.331	3.27750	0.09953	-1.47720
3.332	3.27709	0.09918	-1.47662
3.333	3.27701	0.09956	-1.47635
3.334	3.27738	0.09965	-1.47847
3.335	3.27758	0.09926	-1.47748
3.336	3.27732	0.09911	-1.47923
3.337	3.27713	0.09944	-1.47913
3.338	3.27730	0.09928	-1.47910
3.339	3.27721	0.09901	-1.47882
3.340	3.27660	0.09888	-1.47926
3.341	3.27619	0.09902	-1.48007
3.342	3.27643	0.09911	-1.47835
3.343	3.27691	0.09881	-1.47899
3.344	3.27722	0.09864	-1.48053
3.345	3.27727	0.09894	-1.47823
3.346	3.27714	0.09897	-1.47836
3.347	3.27717	0.09854	-1.47719
3.348	3.27747	0.09857	-1.47701
3.349	3.27756	0.09890	-1.47803
3.350	3.27721	0.09880	-1.47908
3.351	3.27697	0.09845	-1.47841
3.352	3.27713	0.09889	-1.47745
3.353	3.27707	0.09905	-1.47871
3.354	3.27648	0.09877	-1.47804
3.355	3.27602	0.09856	-1.47789
3.356	3.27612	0.09893	-1.47762
3.357	3.27642	0.09886	-1.47597
3.358	3.27660	0.09867	-1.47333
3.359	3.27669	0.09849	-1.47794
3.360	3.27676	0.09875	-1.47813
3.361	3.27684	0.09877	-1.47803
3.362	3.27697	0.09855	-1.47932
3.363	3.27718	0.09843	-1.47266
3.364	3.27747	0.09870	-1.47847
3.365	3.27759	0.09880	-1.47389
3.366	3.27748	0.09842	-1.47887
3.367	3.27745	0.09842	-1.47890
3.368	3.27762	0.09884	-1.47803
3.369	3.27752	0.09871	-1.47803
3.370	3.27697	0.09826	-1.47963
3.371	3.27667	0.09862	-1.48149
3.372	3.27700	0.09887	-1.47820
3.373	3.27753	0.09856	-1.47813
3.374	3.27777	0.09838	-1.48016
3.375	3.27747	0.09878	-1.47946
3.376	3.27676	0.09881	-1.47618
3.377	3.27657	0.09868	-1.47762
3.378	3.27728	0.09865	-1.47658
3.379	3.27776	0.09897	-1.47650
3.380	3.27733	0.09901	-1.47870
3.381	3.27674	0.09866	-1.48009
3.382	3.27657	0.09859	-1.47726
3.383	3.27671	0.09891	-1.47911
3.384	3.27692	0.09891	-1.47783
3.385	3.27696	0.09852	-1.47824
3.386	3.27676	0.09867	-1.47900
3.387	3.27669	0.09895	-1.48050
3.388	3.27694	0.09881	-1.47865
3.389	3.27715	0.09856	-1.48030
3.390	3.27713	0.09905	-1.47969
3.391	3.27716	0.09917	-1.48015
3.392	3.27733	0.09889	-1.47939
3.393	3.27721	0.09897	-1.48141
3.394	3.27665	0.09939	-1.47696
3.395	3.27637	0.09927	-1.47823
3.396	3.27676	0.09907	-1.47981
3.397	3.27718	0.09946	-1.47975
3.398	3.27721	0.09960	-1.47629
3.399	3.27712	0.09944	-1.47820
3.400	3.27714	0.09945	-1.47687
3.401	3.27711	0.09979	-1.47958
3.402	3.27694	0.09976	-1.48373
3.403	3.27681	0.09946	-1.48250
3.404	3.27685	0.09973	-1.47639
3.405	3.27702	0.09986	-1.47844
3.406	3.27729	0.09976	-1.47760
3.407	3.27767	0.09946	-1.47850
3.408	3.27802	0.09984	-1.47845
3.409	3.27777	0.09999	-1.48001
3.410	3.27689	0.09968	-1.47766
3.411	3.27656	0.09983	-1.47725
3.412	3.27729	0.10018	-1.47812
3.413	3.27773	0.10006	-1.47897
3.414	3.27706	0.09980	-1.47838
3.415	3.27625	0.10023	-1.47859
3.416	3.27618	0.10031	-1.47919
3.417	3.27687	0.09987	-1.47853
3.418	3.27794	0.10017	-1.47816
3.419	3.27832	0.10040	-1.47725
3.420	3.27757	0.10016	-1.47871
3.421	3.27692	0.10006	-1.47969
3.422	3.27716	0.10043	-1.47765
3.423	3.27768	0.10040	-1.47311
3.424	3.27782	0.10007	-1.47778
3.425	3.27725	0.10037	-1.47760
3.426	3.27616	0.10047	-1.47731
3.427	3.27581	0.10037	-1.47728
3.428	3.27677	0.10010	-1.47672
3.429	3.27769	0.10033	-1.47816
3.430	3.27767	0.10032	-1.47893
3.431	3.27740	0.10001	-1.48000
3.432	3.27742	0.09993	-1.47824
3.433	3.27741	0.10017	-1.47679
3.434	3.27720	0.10003	-1.47740
3.435	3.27716	0.09962	-1.47816
3.436	3.27741	0.09980	-1.47739
3.437	3.27737	0.10011	-1.47961
3.438	3.27688	0.09987	-1.47826
3.439	3.27693	0.09959	-1.47644
3.440	3.27790	0.10001	-1.47986
3.441	3.27831	0.09997	-1.48125
3.442	3.27740	0.09952	-1.47586
3.443	3.27660	0.09961	-1.47403
3.444	3.27683	0.09989	-1.47861
3.445	3.27737	0.09959	-1.47681
3.446	3.27755	0.09917	-1.48195
3.447	3.27738	0.09939	-1.47720
3.448	3.27706	0.09949	-1.47701
3.449	3.27701	0.09934	-1.47867
3.450	3.27729	0.09908	-1.47774
3.451	3.27719	0.09921	-1.47906
3.452	3.27645	0.09943	-1.47925
3.453	3.27607	0.09920	-1.47737
3.454	3.27661	0.09891	-1.47993
3.455	3.27720	0.09924	-1.47760
3.456	3.27724	0.09929	-1.47960
3.457	3.27711	0.09893	-1.47685
3.458	3.27716	0.09874	-1.47878
3.459	3.27732	0.09909	-1.47354
3.460	3.27750	0.09903	-1.47604
3.461	3.27759	0.09868	-1.47842
3.462	3.27751	0.09878	-1.47931
3.463	3.27720	0.09904	-1.47908
3.464	3.27672	0.09887	-1.47798
3.465	3.27630	0.09854	-1.47870
3.466	3.27614	0.09888	-1.47842
3.467	3.27626	0.09903	-1.47786
3.468	3.27666	0.09885	-1.47884
3.469	3.27726	0.09867	-1.47879
3.470	3.27787	0.09894	-1.47643
3.471	3.27802	0.09911	-1.47964
3.472	3.27761	0.09890	-1.47832
3.473	3.27747	0.09903	-1.47792
3.474	3.27795	0.09933	-1.47830
3.475	3.27817	0.09937	-1.47902
3.476	3.27760	0.09911	-1.47894
3.477	3.27685	0.09938	-1.47806
3.478	3.27647	0.09968	-1.47882
3.479	3.27659	0.09945	-1.47829
3.480	3.27700	0.09934	-1.48305
3.481	3.27687	0.09989	-1.47925
3.482	3.27601	0.09985	-1.47876
3.483	3.27586	0.09956	-1.48135
3.484	3.27701	0.10006	-1.47774
3.485	3.27776	0.10026	-1.47910
3.486	3.27709	0.09993	-1.47911
3.487	3.27626	0.10007	-1.47867
3.488	3.27623	0.10042	-1.47855
3.489	3.27660	0.10023	-1.48285
3.490	3.27692	0.09990	-1.47702
3.491	3.27695	0.10034	-1.47917
3.492	3.27672	0.10032	-1.48009
3.493	3.27672	0.10011	-1.46846
3.494	3.27715	0.10015	-1.47878
3.495	3.27745	0.10042	-1.47664
3.496	3.27730	0.10028	-1.47890
3.497	3.27712	0.10007	-1.47740
3.498	3.27718	0.10037	-1.47720
3.499	3.27707	0.10049	-1.47853
3.500	3.27663	0.10032	-1.47987
3.501	3.27635	0.10016	-1.48001
3.502	3.27650	0.10034	-1.47804
3.503	3.27669	0.10037	-1.47742
3.504	3.27666	0.09992	-1.47798
3.505	3.27670	0.10003	-1.47784
3.506	3.27692	0.10023	-1.47789
3.507	3.27695	0.09998	-1.47874
3.508	3.27667	0.09955	-1.47968
3.509	3.27675	0.09995	-1.47931
3.510	3.27744	0.09998	-1.47690
3.511	3.27793	0.09960	-1.47760
3.512	3.27765	0.09941	-1.48296
3.513	3.27699	0.09972	-1.47652
3.514	3.27639	0.09960	-1.47798
3.515	3.27623	0.09920	-1.47838
3.516	3.27652	0.09932	-1.47971
3.517	3.27643	0.09944	-1.47716
3.518	3.27574	0.09940	-1.47832
3.519	3.27572	0.09907	-1.47739
3.520	3.27689	0.09921	-1.47951
3.521	3.27760	0.09943	-1.47942
3.522	3.27695	0.09927	-1.47769
3.523	3.27632	0.09907	-1.48242
3.524	3.27669	0.09944	-1.48073
3.525	3.27742	0.09959	-1.47807
3.526	3.27791	0.09928	-1.47800
3.527	3.27804	0.09936	-1.47919
3.528	3.27783	0.09966	-1.48152
3.529	3.27731	0.09957	-1.47768
3.530	3.27671	0.09932	-1.47803
3.531	3.27655	0.09988	-1.47905
3.532	3.27700	0.10004	-1.47757
3.533	3.27729	0.09963	-1.47876
3.534	3.27701	0.09990	-1.47867
3.535	3.27684	0.10016	-1.47768
3.536	3.27717	0.09994	-1.47884
3.537	3.27746	0.09978	-1.47717
3.538	3.27738	0.10022	-1.47838
3.539	3.27728	0.10013	-1.47804
3.540	3.27739	0.09994	-1.47154
3.541	3.27742	0.10009	-1.47971
3.542	3.27718	0.10029	-1.47797
3.543	3.27694	0.10020	-1.47867
3.544	3.27690	0.10005	-1.47798
3.545	3.27701	0.10041	-1.47801
3.546	3.27719	0.10051	-1.47900
3.547	3.27729	0.10023	-1.48119
3.548	3.27726	0.10031	-1.47873
3.549	3.27731	0.10060	-1.47844
3.550	3.27756	0.10046	-1.47903
3.551	3.27777	0.10019	-1.47580
3.552	3.27772	0.10049	-1.47783
3.553	3.27732	0.10054	-1.47986
3.554	3.27668	0.10018	-1.47960
3.555	3.27636	0.10013	-1.47804
3.556	3.27664	0.10055	-1.47813
3.557	3.27704	0.10038	-1.47978
3.558	3.27713	0.10002	-1.48305
3.559	3.27691	0.10050	-1.47787
3.560	3.27660	0.10050	-1.47827
3.561	3.27678	0.10009	-1.47798
3.562	3.27755	0.09997	-1.47887
3.563	3.27786	0.10026	-1.47815
3.564	3.27717	0.09996	-1.47769
3.565	3.27642	0.09962	-1.47905
3.566	3.27627	0.09965	-1.47820
3.567	3.27639	0.09976	-1.47963
3.568	3.27641	0.09955	-1.47940
3.569	3.27635	0.09930	-1.47708
3.570	3.27632	0.09945	-1.47963
3.571	3.27662	0.09964	-1.47905
3.572	3.27727	0.09945	-1.47824
3.573	3.27759	0.09925	-1.47829
3.574	3.27719	0.09962	-1.47874
3.575	3.27656	0.09971	-1.47705
3.576	3.27622	0.09937	-1.47719
3.577	3.27648	0.09940	-1.47740
3.578	3.27730	0.09975	-1.47949
3.579	3.27798	0.09952	-1.47888
3.580	3.27798	0.09906	-1.47867
3.581	3.27745	0.09957	-1.47763
3.582	3.27675	0.09972	-1.47836
3.583	3.27656	0.09942	-1.47772
3.584	3.27715	0.09936	-1.47897
3.585	3.27785	0.09979	-1.47722
3.586	3.27804	0.09969	-1.47881
3.587	3.27760	0.09933	-1.47784
3.588	3.27677	0.09960	-1.48088
3.589	3.27636	0.09961	-1.48373
3.590	3.27674	0.09949	-1.47780
3.591	3.27718	0.09924	-1.47859
3.592	3.27719	0.09939	-1.47881
3.593	3.27714	0.09952	-1.47630
3.594	3.27726	0.09932	-1.47961
3.595	3.27725	0.09889	-1.47987
3.596	3.27695	0.09906	-1.47696
3.597	3.27662	0.09927	-1.47887
3.598	3.27652	0.09891	-1.47948
3.599	3.27675	0.09844	-1.47803
3.600	3.27719	0.09876	-1.47739
3.601	3.27723	0.09882	-1.47998
3.602	3.27667	0.09838	-1.47835
3.603	3.27638	0.09821	-1.47885
3.604	3.27684	0.09840	-1.47876
3.605	3.27735	0.09835	-1.47758
3.606	3.27732	0.09817	-1.48074
3.607	3.27686	0.09793	-1.46667
3.608	3.27630	0.09816	-1.47845
3.609	3.27629	0.09820	-1.47749
3.610	3.27708	0.09801	-1.48016
3.611	3.27785	0.09760	-1.47893
3.612	3.27799	0.09768	-1.47769
3.613	3.27764	0.09795	-1.47885
3.614	3.27710	0.09779	-1.47803
3.615	3.27681	0.09735	-1.47763
3.616	3.27693	0.09780	-1.47829
3.617	3.27694	0.09808	-1.47888
3.618	3.27657	0.09778	-1.47945
3.619	3.27637	0.09778	-1.47864
3.620	3.27669	0.09817	-1.47708
3.621	3.27702	0.09819	-1.47911
3.622	3.27701	0.09797	-1.47867
3.623	3.27677	0.09788	-1.47789
3.624	3.27649	0.09808	-1.47786
3.625	3.27636	0.09823	-1.47829
3.626	3.27649	0.09800	-1.47778
3.627	3.27672	0.09791	-1.48019
3.628	3.27691	0.09824	-1.47821
3.629	3.27698	0.09841	-1.47754
3.630	3.27698	0.09817	-1.47783
3.631	3.27721	0.09846	-1.47636
3.632	3.27765	0.09884	-1.47911
3.633	3.27746	0.09875	-1.48067
3.634	3.27638	0.09853	-1.48074
3.635	3.27573	0.09906	-1.47809
3.636	3.27627	0.09925	-1.47852
3.637	3.27712	0.09886	-1.47833
3.638	3.27750	0.09903	-1.47868
3.639	3.27738	0.09932	-1.47809
3.640	3.27695	0.09924	-1.47931
3.641	3.27664	0.09901	-1.47824
3.642	3.27677	0.09940	-1.47916
3.643	3.27725	0.09945	-1.47905
3.644	3.27782	0.09935	-1.47887
3.645	3.27804	0.09928	-1.47412
3.646	3.27764	0.09954	-1.48817
3.647	3.27700	0.09959	-1.47525
3.648	3.27656	0.09925	-1.47723
3.649	3.27679	0.09933	-1.47926
3.650	3.27770	0.09960	-1.48041
3.651	3.27821	0.09955	-1.47780
3.652	3.27772	0.09931	-1.47778
3.653	3.27702	0.09962	-1.47719
3.654	3.27675	0.09982	-1.47786
3.655	3.27688	0.09951	-1.47675
3.656	3.27721	0.09935	-1.47717
3.657	3.27747	0.09977	-1.47826
3.658	3.27748	0.09978	-1.47636
3.659	3.27743	0.09923	-1.47766
3.660	3.27741	0.09953	-1.47971
3.661	3.27722	0.09972	-1.47876
3.662	3.27691	0.09938	-1.47792
3.663	3.27708	0.09917	-1.47578
3.664	3.27785	0.09958	-1.47729
3.665	3.27817	0.09956	-1.47842
3.666	3.27744	0.09938	-1.47810
3.667	3.27652	0.09936	-1.47694
3.668	3.27614	0.09965	-1.47839
3.669	3.27628	0.09952	-1.47780
3.670	3.27674	0.09926	-1.47902
3.671	3.27721	0.09926	-1.47945
3.672	3.27751	0.09951	-1.47870
3.673	3.27781	0.09941	-1.47832
3.674	3.27814	0.09895	-1.47075
3.675	3.27816	0.09918	-1.47925
3.676	3.27779	0.09933	-1.47856
3.677	3.27759	0.09911	-1.47856
3.678	3.27783	0.09882	-1.47820
3.679	3.27784	0.09926	-1.47786
3.680	3.27732	0.09943	-1.47617
3.681	3.27695	0.09904	-1.47957
3.682	3.27712	0.09919	-1.48351
3.683	3.27728	0.09946	-1.47995
3.684	3.27709	0.09923	-1.47766
3.685	3.27699	0.09894	-1.47719
3.686	3.27722	0.09921	-1.47708
3.687	3.27724	0.09930	-1.47723
3.688	3.27695	0.09915	-1.47902
3.689	3.27730	0.09891	-1.47765
3.690	3.27852	0.09925	-1.47922
3.691	3.27887	0.09936	-1.47800
3.692	3.27753	0.09923	-1.47882
3.693	3.27642	0.09929	-1.47733
3.694	3.27675	0.09958	-1.47704
3.695	3.27736	0.09965	-1.47377
3.696	3.27733	0.09932	-1.47607
3.697	3.27709	0.09956	-1.47960
3.698	3.27701	0.09986	-1.47813
3.699	3.27696	0.09956	-1.47826
3.700	3.27688	0.09936	-1.47777
3.701	3.27705	0.09983	-1.47746
3.702	3.27762	0.09978	-1.47803
3.703	3.27834	0.09939	-1.47908
3.704	3.27880	0.09974	-1.48015
3.705	3.27851	0.09994	-1.48029
3.706	3.27739	0.09969	-1.47902
3.707	3.27638	0.09951	-1.47662
3.708	3.27611	0.09987	-1.48056
3.709	3.27626	0.09973	-1.47902
3.710	3.27648	0.09950	-1.47739
3.711	3.27672	0.09950	-1.47905
3.712	3.27695	0.09972	-1.47939
3.713	3.27718	0.09968	-1.47791
3.714	3.27737	0.09951	-1.47841
3.715	3.27743	0.09960	-1.47748
3.716	3.27730	0.09977	-1.47809
3.717	3.27709	0.09963	-1.47925
3.718	3.27690	0.09921	-1.47627
3.719	3.27682	0.09949	-1.47760
3.720	3.27686	0.09957	-1.47803
3.721	3.27701	0.09922	-1.48003
3.722	3.27720	0.09885	-1.47903
3.723	3.27728	0.09922	-1.48041
3.724	3.27716	0.09930	-1.47734
3.725	3.27693	0.09885	-1.47945
3.726	3.27671	0.09894	-1.47806
3.727	3.27669	0.09926	-1.48692
3.728	3.27693	0.09904	-1.47499
3.729	3.27716	0.09869	-1.47859
3.730	3.27722	0.09896	-1.48061
3.731	3.27732	0.09903	-1.47871
3.732	3.27747	0.09888	-1.47777
3.733	3.27716	0.09862	-1.47737
3.734	3.27633	0.09868	-1.47675
3.735	3.27613	0.09886	-1.47818
3.736	3.27703	0.09881	-1.47928
3.737	3.27759	0.09841	-1.47887
3.738	3.27705	0.09871	-1.47847
3.739	3.27669	0.09901	-1.47754
3.740	3.27735	0.09885	-1.48021
3.741	3.27817	0.09875	-1.47977
3.742	3.27838	0.09919	-1.47847
3.743	3.27790	0.09924	-1.47945
3.744	3.27707	0.09876	-1.48004
3.745	3.27689	0.09885	-1.47832
3.746	3.27772	0.09917	-1.47920
3.747	3.27819	0.09895	-1.48161
3.748	3.27753	0.09857	-1.47571
3.749	3.27670	0.09884	-1.47954
3.750	3.27645	0.09894	-1.47839
3.751	3.27655	0.09882	-1.47966
3.752	3.27669	0.09867	-1.47960
3.753	3.27663	0.09900	-1.47884
3.754	3.27641	0.09918	-1.47783
3.755	3.27663	0.09903	-1.47643
3.756	3.27739	0.09889	-1.47897
3.757	3.27749	0.09931	-1.47665
3.758	3.27647	0.09933	-1.47824
3.759	3.27592	0.09888	-1.47919
3.760	3.27672	0.09897	-1.47978
3.761	3.27752	0.09927	-1.47897
3.762	3.27744	0.09916	-1.47787
3.763	3.27730	0.09869	-1.47864
3.764	3.27764	0.09904	-1.47513
3.765	3.27791	0.09920	-1.47902
3.766	3.27768	0.09886	-1.47722
3.767	3.27717	0.09866	-1.47868
3.768	3.27664	0.09908	-1.47948
3.769	3.27633	0.09895	-1.48083
3.770	3.27639	0.09879	-1.47818
3.771	3.27677	0.09860	-1.47594
3.772	3.27735	0.09878	-1.47734
3.773	3.27781	0.09890	-1.47757
3.774	3.27791	0.09867	-1.47874
3.775	3.27767	0.09866	-1.47989
3.776	3.27722	0.09903	-1.47995
3.777	3.27696	0.09903	-1.47763
3.778	3.27712	0.09867	-1.47447
3.779	3.27753	0.09869	-1.47806
3.780	3.27790	0.09899	-1.47818
3.781	3.27782	0.09887	-1.47983
3.782	3.27717	0.09857	-1.48003
3.783	3.27660	0.09886	-1.47743
3.784	3.27656	0.09909	-1.48035
3.785	3.27691	0.09888	-1.47853
3.786	3.27734	0.09878	-1.47937
3.787	3.27739	0.09918	-1.47899
3.788	3.27691	0.09915	-1.47832
3.789	3.27647	0.09888	-1.47401
3.790	3.27651	0.09912	-1.47806
3.791	3.27693	0.09925	-1.47798
3.792	3.27753	0.09926	-1.47534
3.793	3.27795	0.09909	-1.47827
3.794	3.27797	0.09937	-1.47662
3.795	3.27766	0.09961	-1.47823
3.796	3.27713	0.09937	-1.47661
3.797	3.27656	0.09933	-1.47772
3.798	3.27620	0.09977	-1.47934
3.799	3.27650	0.09978	-1.47865
3.800	3.27744	0.09937	-1.47838
3.801	3.27788	0.09984	-1.47458
3.802	3.27727	0.10007	-1.47931
3.803	3.27681	0.09988	-1.47697
3.804	3.27724	0.09975	-1.47748
