"1 Chan 1","2 Chan 2","3 Chan 3"
"0.001668","0.004268","0.028984"
"0.001580","0.005419","0.028580"
"0.001540","0.006379","0.028059"
"0.001597","0.006649","0.027151"
"0.001676","0.006734","0.025948"
"0.001717","0.006822","0.024755"
"0.001742","0.006933","0.023454"
"0.001784","0.007105","0.022148"
"0.001763","0.007262","0.021567"
"0.001722","0.007482","0.021422"
"0.001746","0.007778","0.021215"
"0.001734","0.007915","0.021411"
"0.001727","0.007909","0.021459"
"0.001681","0.007846","0.021579"
"0.001655","0.007378","0.022121"
"0.001707","0.006368","0.022472"
"0.001756","0.005225","0.023122"
"0.001719","0.004236","0.024486"
"0.001576","0.003903","0.026508"
"0.001376","0.003904","0.028124"
"0.001187","0.003705","0.029986"
"0.001083","0.003618","0.030877"
"0.001008","0.003477","0.031651"
"0.001064","0.003381","0.031497"
"0.001091","0.003283","0.031260"
"0.001159","0.003202","0.030605"
"0.001224","0.003218","0.029590"
"0.001290","0.003250","0.028899"
"0.001399","0.003274","0.028195"
"0.001509","0.003275","0.027491"
"0.001649","0.003307","0.026573"
"0.001810","0.003370","0.025239"
"0.002014","0.003407","0.023436"
"0.002169","0.003540","0.021423"
"0.002327","0.003618","0.020015"
"0.002428","0.004043","0.018464"
"0.002458","0.004409","0.017857"
"0.002480","0.004695","0.017295"
"0.002451","0.004895","0.017050"
"0.002488","0.004989","0.016725"
"0.002524","0.005075","0.016798"
"0.002508","0.005188","0.017082"
"0.002470","0.005339","0.017191"
"0.002414","0.005477","0.017258"
"0.002425","0.005638","0.017020"
"0.002442","0.005737","0.016990"
"0.002459","0.005828","0.017008"
"0.002462","0.006008","0.016894"
"0.002466","0.006153","0.016640"
"0.002473","0.006294","0.016374"
"0.002524","0.006258","0.016010"
"0.002590","0.006134","0.015762"
"0.002625","0.006152","0.015619"
"0.002652","0.006200","0.015451"
"0.002653","0.006242","0.015443"
"0.002608","0.006230","0.015344"
"0.002581","0.006234","0.015166"
"0.002524","0.006318","0.015067"
"0.002502","0.006439","0.014965"
"0.002467","0.006523","0.015059"
"0.002471","0.006556","0.014991"
"0.002447","0.006508","0.014964"
"0.002373","0.006567","0.015213"
"0.002320","0.006525","0.015857"
"0.002251","0.006385","0.016521"
"0.002228","0.006114","0.017160"
"0.002243","0.005864","0.017507"
"0.002266","0.005641","0.017726"
"0.002240","0.005450","0.018197"
"0.002158","0.005287","0.018804"
"0.002062","0.005113","0.019701"
"0.002029","0.004782","0.020657"
"0.002014","0.004349","0.021698"
"0.001970","0.003907","0.022814"
"0.002074","0.003622","0.023480"
"0.002342","0.003599","0.023534"
"0.002629","0.003626","0.023532"
"0.002980","0.003467","0.023359"
"0.003061","0.003363","0.022881"
"0.003088","0.003325","0.022630"
"0.003017","0.003604","0.022531"
"0.002857","0.003801","0.023030"
"0.002731","0.003956","0.023486"
"0.002660","0.004093","0.023661"
"0.002689","0.004337","0.023316"
"0.002874","0.004636","0.022494"
"0.003249","0.005013","0.021453"
"0.004109","0.005568","0.020082"
"0.005610","0.007013","0.018221"
"0.007597","0.008859","0.016999"
"0.010720","0.011885","0.016145"
"0.014963","0.014919","0.015291"
"0.018359","0.017742","0.014707"
"0.022789","0.020290","0.013925"
"0.027353","0.022175","0.013072"
"0.032642","0.023852","0.011903"
"0.038182","0.025861","0.010140"
"0.043361","0.027723","0.008422"
"0.048480","0.029771","0.006663"
"0.053464","0.032385","0.005353"
"0.057603","0.035058","0.004299"
"0.061083","0.037769","0.003315"
"0.063246","0.041130","0.002625"
"0.065102","0.043705","0.002455"
"0.065626","0.045318","0.002527"
"0.064932","0.045375","0.003112"
"0.063254","0.045231","0.003876"
"0.062705","0.044510","0.004417"
"0.062112","0.043815","0.004985"
"0.062274","0.043561","0.005237"
"0.062207","0.042891","0.005655"
"0.061696","0.040899","0.006624"
"0.061644","0.038882","0.007691"
"0.060973","0.036591","0.008845"
"0.060276","0.033764","0.009885"
"0.061065","0.030866","0.010774"
"0.062209","0.028024","0.011776"
"0.063615","0.024462","0.012801"
"0.064125","0.020852","0.013744"
"0.065097","0.017714","0.014321"
"0.065191","0.014846","0.014850"
"0.064797","0.012267","0.015260"
"0.064023","0.010357","0.015695"
"0.062162","0.008597","0.016459"
"0.059007","0.007015","0.017333"
"0.055911","0.005868","0.018073"
"0.053372","0.005731","0.018571"
"0.050954","0.005771","0.019013"
"0.049251","0.005970","0.019619"
"0.047899","0.005999","0.020266"
"0.045879","0.005941","0.021014"
"0.043948","0.005791","0.021694"
"0.042744","0.005542","0.022285"
"0.041358","0.005274","0.023136"
"0.040608","0.005009","0.023800"
"0.040927","0.004613","0.024323"
"0.041403","0.004032","0.024761"
"0.041907","0.003483","0.025084"
"0.042709","0.003057","0.025174"
"0.044000","0.002641","0.025146"
"0.044897","0.002296","0.025136"
"0.045485","0.002023","0.024970"
"0.045559","0.001748","0.024881"
"0.044298","0.001457","0.024796"
"0.042899","0.001346","0.024915"
"0.042066","0.001373","0.025074"
"0.041325","0.001366","0.025639"
"0.040374","0.001384","0.026400"
"0.040301","0.001328","0.027050"
"0.039628","0.001247","0.027875"
"0.038749","0.001215","0.028650"
"0.038087","0.001236","0.029469"
"0.037274","0.001236","0.030397"
"0.035964","0.001236","0.031258"
"0.034167","0.001236","0.032150"
"0.032251","0.001236","0.032761"
"0.030328","0.001235","0.033552"
"0.028176","0.001226","0.034533"
"0.027193","0.001150","0.035533"
"0.026453","0.000961","0.036523"
"0.025168","0.000712","0.037439"
"0.023679","0.000546","0.037999"
"0.022269","0.000396","0.038349"
"0.020707","0.000308","0.038374"
"0.019262","0.000204","0.038540"
"0.017698","0.000083","0.038675"
"0.016120","0.000000","0.038891"
"0.014324","0.000000","0.039174"
"0.012823","0.000000","0.039796"
"0.011736","0.000000","0.040465"
"0.010627","0.000000","0.041421"
"0.009480","0.000000","0.042562"
"0.008808","0.000000","0.043638"
"0.008251","0.000000","0.044407"
"0.007323","0.000000","0.044969"
"0.006268","0.000000","0.045666"
"0.005391","0.000000","0.045742"
"0.004509","0.000000","0.045792"
"0.003621","0.000000","0.046170"
"0.002784","0.000018","0.046263"
"0.001995","0.000181","0.046006"
"0.001166","0.000291","0.046019"
"0.000769","0.000393","0.045852"
"0.000706","0.000571","0.044906"
"0.000712","0.000761","0.043781"
"0.000752","0.000958","0.042702"
"0.000873","0.001174","0.041206"
"0.001053","0.001442","0.039273"
"0.001246","0.001691","0.037471"
"0.001486","0.001963","0.035380"
"0.001742","0.002212","0.033242"
"0.001951","0.002471","0.031653"
"0.002133","0.002744","0.030187"
"0.002336","0.003058","0.028546"
"0.002462","0.003469","0.027066"
"0.002463","0.003902","0.026160"
"0.002415","0.004837","0.024999"
"0.002361","0.006384","0.024154"
"0.002267","0.007864","0.023796"
"0.002162","0.009146","0.023532"
"0.002066","0.010231","0.023184"
"0.002039","0.010762","0.022517"
"0.001929","0.011422","0.022206"
"0.001747","0.012278","0.022050"
"0.001590","0.012881","0.021983"
"0.001404","0.013441","0.021868"
"0.001301","0.013822","0.021392"
"0.001253","0.014102","0.020813"
"0.001212","0.014291","0.020340"
"0.001221","0.014312","0.019963"
"0.001258","0.013992","0.019816"
"0.001360","0.013235","0.019588"
"0.001449","0.011837","0.019197"
"0.001543","0.010422","0.018829"
"0.001651","0.009179","0.018566"
"0.001754","0.008066","0.018583"
"0.001768","0.007561","0.018763"
"0.001781","0.006831","0.019180"
"0.001845","0.005926","0.019475"
"0.001848","0.005292","0.019960"
"0.001907","0.004671","0.020347"
"0.001912","0.004344","0.020691"
"0.001894","0.004120","0.020930"
"0.001869","0.003935","0.021080"
"0.001832","0.003858","0.021186"
"0.001819","0.003851","0.021121"
"0.001866","0.003816","0.020970"
"0.001957","0.003827","0.020592"
"0.002031","0.003998","0.020198"
"0.002080","0.004404","0.019815"
"0.002093","0.004915","0.019325"
"0.002077","0.005385","0.019115"
"0.002123","0.005726","0.018479"
"0.002162","0.006072","0.017863"
"0.002203","0.006335","0.017262"
"0.002196","0.006615","0.016830"
"0.002188","0.006709","0.016750"
"0.002209","0.006790","0.016797"
"0.002217","0.006807","0.016917"
"0.002237","0.006766","0.017115"
"0.002282","0.006761","0.017197"
"0.002272","0.006676","0.017283"
"0.002305","0.006625","0.017237"
"0.002351","0.006439","0.017200"
"0.002419","0.006066","0.017111"
"0.002512","0.005769","0.016865"
"0.002625","0.005455","0.016630"
"0.002710","0.005363","0.016355"
"0.002776","0.005256","0.016169"
"0.002870","0.005188","0.016023"
"0.002943","0.005151","0.015816"
"0.002940","0.005213","0.015766"
"0.002914","0.005273","0.015687"
"0.002841","0.005388","0.015610"
"0.002801","0.005507","0.015480"
"0.002792","0.005646","0.015319"
"0.002809","0.005849","0.015212"
"0.002788","0.006002","0.015279"
"0.002685","0.006256","0.015728"
"0.002524","0.006365","0.016496"
"0.002393","0.006315","0.017383"
"0.002280","0.006154","0.018197"
"0.002202","0.005867","0.018804"
"0.002194","0.005699","0.018849"
"0.002100","0.005543","0.019051"
"0.002048","0.005427","0.019182"
"0.002058","0.005265","0.019167"
"0.002057","0.005128","0.019308"
"0.002100","0.005131","0.019432"
"0.002117","0.005176","0.019495"
"0.002073","0.005261","0.019632"
"0.001999","0.005430","0.019802"
"0.001944","0.005538","0.019787"
"0.001983","0.005585","0.019360"
"0.002099","0.005769","0.018651"
"0.002237","0.005942","0.017851"
"0.002350","0.006146","0.017135"
"0.002415","0.006337","0.016815"
"0.002431","0.006342","0.016855"
"0.002478","0.006322","0.016741"
"0.002547","0.006350","0.016676"
"0.002609","0.006444","0.016558"
"0.002684","0.006526","0.016299"
"0.002712","0.006393","0.016429"
"0.002708","0.006108","0.016687"
"0.002726","0.005784","0.016956"
"0.003429","0.005314","0.017536"
"0.004441","0.005238","0.017945"
"0.005466","0.005190","0.018479"
"0.007220","0.005484","0.018940"
"0.009224","0.006254","0.019084"
"0.014631","0.007625","0.018833"
"0.020881","0.009704","0.018275"
"0.028761","0.012355","0.017484"
"0.037145","0.015735","0.016713"
"0.044563","0.019322","0.015823"
"0.050244","0.022788","0.015241"
"0.055959","0.026375","0.014917"
"0.062173","0.030529","0.014185"
"0.069578","0.034587","0.013472"
"0.077919","0.038488","0.012632"
"0.084147","0.041728","0.011628"
"0.089809","0.043974","0.011030"
"0.094748","0.045655","0.010535"
"0.098791","0.046690","0.010060"
"0.102181","0.046960","0.009830"
"0.101622","0.046901","0.009724"
"0.099620","0.046485","0.009641"
"0.094540","0.045611","0.010274"
"0.088648","0.044115","0.010966"
"0.084260","0.042158","0.011765"
"0.081956","0.040187","0.012485"
"0.079558","0.038106","0.012942"
"0.076739","0.035525","0.013378"
"0.072406","0.032153","0.014036"
"0.066711","0.028758","0.014928"
"0.062465","0.026069","0.015621"
"0.058314","0.023974","0.016313"
"0.055316","0.022307","0.016891"
"0.053117","0.020864","0.017425"
"0.051140","0.019774","0.018051"
"0.049567","0.018444","0.018917"
"0.048205","0.016759","0.020043"
"0.048408","0.014859","0.020966"
"0.049343","0.012780","0.021817"
"0.049765","0.010836","0.022706"
"0.050446","0.008942","0.023373"
"0.050938","0.007019","0.024199"
"0.052117","0.005129","0.024813"
"0.053822","0.004231","0.024906"
"0.055941","0.003561","0.024846"
"0.057860","0.002940","0.024641"
"0.059577","0.002393","0.024297"
"0.061055","0.001899","0.023779"
"0.060858","0.001455","0.023397"
"0.060126","0.001001","0.023069"
"0.059003","0.000584","0.022777"
"0.058344","0.000254","0.022724"
"0.057648","0.000100","0.022581"
"0.057261","0.000047","0.022468"
"0.057203","0.000049","0.022550"
"0.055900","0.000104","0.022964"
"0.054507","0.000198","0.023266"
"0.053443","0.000265","0.023644"
"0.052491","0.000320","0.024165"
"0.051103","0.000460","0.024465"
"0.050629","0.000524","0.024819"
"0.049837","0.000524","0.025434"
"0.048554","0.000524","0.025992"
"0.048230","0.000524","0.026358"
"0.048461","0.000524","0.026864"
"0.048028","0.000520","0.027708"
"0.048031","0.000520","0.028380"
"0.048564","0.000520","0.028894"
"0.047535","0.000508","0.029637"
"0.046024","0.000475","0.030137"
"0.045040","0.000419","0.030310"
"0.044086","0.000326","0.030627"
"0.042078","0.000258","0.031028"
"0.039811","0.000204","0.031293"
"0.037773","0.000063","0.031759"
"0.035434","0.000000","0.032174"
"0.034581","0.000000","0.032158"
"0.034238","0.000000","0.032093"
"0.034079","0.000000","0.032205"
"0.034065","0.000000","0.031981"
"0.035190","0.000000","0.031613"
"0.035755","0.000000","0.031279"
"0.034919","0.000000","0.031203"
"0.034301","0.000000","0.031215"
"0.033192","0.000000","0.031428"
"0.032042","0.000000","0.031728"
"0.031119","0.000000","0.031709"
"0.030214","0.000000","0.031779"
"0.029317","0.000000","0.031913"
"0.028649","0.000008","0.031866"
"0.027581","0.000057","0.031717"
"0.025295","0.000174","0.031661"
"0.022557","0.000379","0.031697"
"0.019603","0.000567","0.031716"
"0.016585","0.000775","0.031927"
"0.013641","0.001010","0.031745"
"0.010770","0.001333","0.031110"
"0.008683","0.001673","0.030302"
"0.007216","0.002032","0.029210"
"0.006333","0.002425","0.028032"
"0.005608","0.002801","0.026754"
"0.004945","0.003234","0.025618"
"0.004293","0.003690","0.024389"
"0.003620","0.004145","0.023252"
"0.002947","0.004655","0.022332"
"0.002273","0.005113","0.021672"
"0.001997","0.005492","0.021162"
"0.001910","0.005803","0.020734"
"0.001874","0.006202","0.020361"
"0.001774","0.007052","0.020496"
"0.001659","0.008088","0.020797"
"0.001534","0.008968","0.021293"
"0.001429","0.009717","0.021502"
"0.001379","0.010190","0.021511"
"0.001306","0.010685","0.021514"
"0.001220","0.011159","0.021555"
"0.001167","0.011421","0.021456"
"0.001121","0.011645","0.021421"
"0.001126","0.011661","0.021256"
"0.001038","0.011841","0.021259"
"0.000887","0.012302","0.021473"
"0.000718","0.013046","0.021864"
"0.000581","0.013599","0.022103"
"0.000499","0.013952","0.022290"
"0.000558","0.013705","0.021803"
"0.000592","0.013152","0.021349"
"0.000711","0.012549","0.021265"
"0.000953","0.011704","0.021250"
"0.001123","0.011035","0.021902"
"0.001241","0.010372","0.022436"
"0.001303","0.009767","0.022810"
"0.001367","0.009360","0.022794"
"0.001429","0.008892","0.022684"
"0.001430","0.008669","0.022771"
"0.001481","0.008439","0.022761"
"0.001564","0.008084","0.022516"
"0.001657","0.007426","0.022012"
"0.001715","0.006820","0.021856"
"0.001763","0.006237","0.021723"
"0.001767","0.005865","0.021838"
"0.001783","0.005772","0.022028"
"0.001702","0.005885","0.021983"
"0.001479","0.006541","0.022164"
"0.001263","0.007287","0.021800"
"0.001138","0.007989","0.021487"
"0.001041","0.008944","0.021450"
"0.000948","0.009589","0.021745"
"0.000870","0.010185","0.022014"
"0.000843","0.010566","0.022227"
"0.000984","0.010463","0.021925"
"0.001131","0.010309","0.021592"
"0.001269","0.010174","0.021275"
"0.001439","0.010103","0.020938"
"0.001589","0.010021","0.020680"
"0.001775","0.009841","0.020284"
"0.001955","0.009538","0.019702"
"0.002148","0.009098","0.019160"
"0.002328","0.008593","0.018523"
"0.002521","0.008262","0.017983"
"0.002653","0.008072","0.017467"
"0.002773","0.007570","0.017071"
"0.003058","0.007043","0.017124"
"0.003340","0.006415","0.017193"
"0.003598","0.005979","0.017268"
"0.003535","0.005959","0.017441"
"0.003489","0.005863","0.017647"
"0.003443","0.005820","0.017798"
"0.003393","0.005907","0.017664"
"0.003320","0.006204","0.017476"
"0.003213","0.006544","0.017312"
"0.003112","0.006830","0.017285"
"0.003035","0.007101","0.017225"
"0.002989","0.007209","0.017213"
"0.002984","0.007070","0.017103"
"0.002993","0.006738","0.017087"
"0.003075","0.006372","0.016811"
"0.002930","0.006247","0.016535"
"0.002764","0.006329","0.016296"
"0.002557","0.006362","0.015988"
"0.002556","0.006260","0.015989"
"0.002577","0.006210","0.015750"
"0.002595","0.006091","0.015666"
"0.002569","0.005867","0.016028"
"0.002516","0.005659","0.016676"
"0.002424","0.005524","0.017499"
"0.002407","0.005431","0.017988"
"0.002431","0.005318","0.018202"
"0.002484","0.005123","0.018302"
"0.002478","0.004890","0.018954"
"0.002454","0.004613","0.019915"
"0.002330","0.004316","0.021394"
"0.002225","0.004137","0.022204"
"0.002187","0.003915","0.023219"
"0.002228","0.003744","0.023862"
"0.002247","0.003576","0.024457"
"0.002172","0.003444","0.025205"
"0.002102","0.003424","0.025628"
"0.002123","0.003575","0.025518"
"0.002223","0.003753","0.025075"
"0.002394","0.003884","0.024525"
"0.002477","0.004019","0.024323"
"0.002736","0.004146","0.024379"
"0.003828","0.004296","0.024358"
"0.005636","0.004477","0.023963"
"0.009293","0.004852","0.022692"
"0.014957","0.005600","0.020565"
"0.019748","0.006817","0.018882"
"0.023470","0.008376","0.017435"
"0.027939","0.010178","0.016229"
"0.031931","0.012002","0.015366"
"0.036922","0.014317","0.014149"
"0.042151","0.016780","0.012982"
"0.048828","0.019625","0.011808"
"0.056195","0.022514","0.010619"
"0.063350","0.025376","0.009376"
"0.068777","0.028080","0.008146"
"0.074030","0.031208","0.006841"
"0.078985","0.033904","0.005780"
"0.083514","0.036223","0.004810"
"0.085488","0.038830","0.004771"
"0.084626","0.040921","0.005524"
"0.084995","0.042357","0.006156"
"0.086872","0.043350","0.005966"
"0.087874","0.043521","0.006082"
"0.087815","0.043344","0.006285"
"0.086298","0.042524","0.006851"
"0.084592","0.040580","0.007580"
"0.081243","0.037699","0.008503"
"0.077914","0.034508","0.009377"
"0.074426","0.031270","0.010324"
"0.072682","0.028102","0.011252"
"0.071156","0.024544","0.012243"
"0.069700","0.021412","0.013226"
"0.069299","0.018705","0.013697"
"0.070247","0.015594","0.013643"
"0.071499","0.012752","0.013287"
"0.072609","0.010017","0.012984"
"0.072664","0.007424","0.013422"
"0.072948","0.005402","0.013703"
"0.074314","0.003750","0.013502"
"0.075321","0.002163","0.013602"
"0.075442","0.001415","0.014057"
"0.077064","0.001046","0.014310"
"0.077920","0.000804","0.014664"
"0.079611","0.000586","0.014761"
"0.080967","0.000400","0.014845"
"0.082123","0.000272","0.014890"
"0.081583","0.000250","0.015028"
"0.079969","0.000250","0.015268"
"0.076097","0.000264","0.015901"
"0.072197","0.000265","0.016609"
"0.068131","0.000311","0.017306"
"0.064876","0.000423","0.017563"
"0.061232","0.000557","0.017844"
"0.057979","0.000661","0.018212"
"0.055552","0.000734","0.018527"
"0.054503","0.000830","0.018548"
"0.052637","0.000994","0.018673"
"0.051306","0.001122","0.018733"
"0.049603","0.001237","0.019044"
"0.048470","0.001319","0.019398"
"0.047469","0.001375","0.019881"
"0.048369","0.001495","0.020012"
"0.048776","0.001710","0.020430"
"0.050603","0.001916","0.020663"
"0.051367","0.002190","0.021096"
"0.051509","0.002440","0.021678"
"0.051215","0.002659","0.022317"
"0.051329","0.002857","0.022821"
"0.050670","0.002952","0.023546"
"0.049814","0.002910","0.024389"
"0.048497","0.002843","0.025108"
"0.046553","0.002761","0.025714"
"0.045027","0.002645","0.026100"
"0.043464","0.002529","0.026443"
"0.041331","0.002448","0.026891"
"0.038821","0.002392","0.027307"
"0.035272","0.002272","0.027714"
"0.031860","0.002057","0.028093"
"0.028692","0.001837","0.028277"
"0.026433","0.001531","0.028414"
"0.024331","0.001217","0.028966"
"0.022511","0.000885","0.029440"
"0.020947","0.000547","0.029943"
"0.020196","0.000279","0.030277"
"0.019622","0.000159","0.030202"
"0.018916","0.000093","0.030732"
"0.018308","0.000011","0.031375"
"0.016899","0.000000","0.031905"
"0.015370","0.000000","0.032415"
"0.013794","0.000000","0.032865"
"0.012335","0.000000","0.033227"
"0.011018","0.000000","0.033859"
"0.009859","0.000113","0.033951"
"0.008665","0.000113","0.034550"
"0.008140","0.000118","0.034904"
"0.007998","0.000118","0.034967"
"0.007637","0.000133","0.035086"
"0.006854","0.000186","0.035146"
"0.006107","0.000224","0.035233"
"0.005443","0.000269","0.035373"
"0.004875","0.000434","0.034510"
"0.004307","0.000668","0.033475"
"0.003637","0.000964","0.032599"
"0.003051","0.001272","0.031514"
"0.002849","0.001590","0.030319"
"0.002678","0.001896","0.029139"
"0.002565","0.002218","0.027820"
"0.002383","0.002516","0.026956"
"0.002193","0.003071","0.025719"
"0.002088","0.003774","0.024473"
"0.001924","0.004844","0.023393"
"0.001849","0.006101","0.022500"
"0.001769","0.007429","0.021908"
"0.001680","0.008532","0.021113"
"0.001589","0.009688","0.020376"
"0.001467","0.010744","0.020101"
"0.001338","0.011750","0.020035"
"0.001250","0.012414","0.020081"
"0.001118","0.013017","0.020365"
"0.001029","0.013414","0.020484"
"0.000995","0.013734","0.020468"
"0.000988","0.013978","0.020494"
"0.000993","0.014071","0.020677"
"0.001040","0.013985","0.020788"
"0.001091","0.013644","0.020798"
"0.001203","0.012888","0.020537"
"0.001332","0.011884","0.020341"
"0.001449","0.010744","0.020333"
"0.001577","0.009886","0.020443"
"0.001672","0.008924","0.020842"
"0.001806","0.007899","0.021181"
"0.001964","0.006824","0.021386"
"0.002129","0.006053","0.021280"
"0.002267","0.005389","0.021044"
"0.002298","0.005167","0.021247"
"0.002279","0.005026","0.021672"
"0.002224","0.005015","0.022019"
"0.002222","0.004860","0.022082"
"0.002186","0.004806","0.022187"
"0.002170","0.004879","0.022402"
"0.002168","0.004994","0.022519"
"0.002220","0.005118","0.022207"
"0.002266","0.005219","0.021676"
"0.002301","0.005338","0.021149"
"0.002355","0.005464","0.020375"
"0.002383","0.005579","0.019616"
"0.002387","0.005683","0.019161"
"0.002324","0.005781","0.019207"
"0.002275","0.005912","0.019278"
"0.002318","0.005734","0.018876"
"0.002335","0.005611","0.018552"
"0.002341","0.005361","0.018536"
"0.002306","0.005357","0.018755"
"0.002285","0.005371","0.018850"
"0.002310","0.005348","0.018754"
"0.002367","0.005331","0.018612"
"0.002359","0.005260","0.018812"
"0.002356","0.005281","0.018762"
"0.002238","0.005383","0.019186"
"0.002135","0.005522","0.019498"
"0.002013","0.005685","0.019952"
"0.001948","0.005773","0.020172"
"0.001968","0.005836","0.019837"
"0.001960","0.005961","0.019663"
"0.001910","0.006201","0.019609"
"0.001918","0.006435","0.019681"
"0.001987","0.006608","0.019494"
"0.002061","0.006725","0.019221"
"0.002139","0.006671","0.018861"
"0.002206","0.006658","0.018676"
"0.002265","0.006616","0.018488"
"0.002334","0.006651","0.018277"
"0.002379","0.006539","0.018215"
"0.002544","0.006248","0.017729"
"0.002730","0.006014","0.017184"
"0.002945","0.005851","0.016452"
"0.003026","0.005691","0.016361"
"0.002980","0.005446","0.017101"
"0.002917","0.005045","0.018310"
"0.003234","0.004836","0.019015"
"0.003518","0.004684","0.019337"
"0.003781","0.004618","0.019506"
"0.003656","0.004458","0.020269"
"0.003504","0.004367","0.021554"
"0.003300","0.004398","0.022509"
"0.003119","0.004522","0.023168"
"0.003024","0.004570","0.023149"
"0.002986","0.004643","0.023111"
"0.002981","0.004709","0.022819"
"0.002941","0.004801","0.022733"
"0.002789","0.004966","0.023013"
"0.002703","0.005404","0.022781"
"0.002643","0.005888","0.022342"
"0.002641","0.006272","0.021483"
"0.002299","0.006267","0.021207"
"0.001942","0.005993","0.021411"
"0.001620","0.005775","0.021559"
"0.001680","0.005640","0.021027"
"0.001834","0.005629","0.019672"
"0.002001","0.005475","0.018642"
"0.002106","0.005197","0.018383"
"0.002601","0.005076","0.018622"
"0.004656","0.005372","0.018636"
"0.008151","0.006822","0.018217"
"0.013315","0.009645","0.017331"
"0.018924","0.012434","0.016347"
"0.024235","0.016028","0.015250"
"0.030717","0.019914","0.013973"
"0.037320","0.023579","0.012633"
"0.043136","0.027246","0.011379"
"0.048237","0.031527","0.009632"
"0.053023","0.035980","0.008292"
"0.057299","0.040448","0.007083"
"0.061428","0.045056","0.006250"
"0.065695","0.049163","0.005530"
"0.070200","0.053640","0.004686"
"0.073541","0.058100","0.004071"
"0.073879","0.061329","0.004002"
"0.072641","0.062977","0.004719"
"0.070047","0.062918","0.005905"
"0.067260","0.062389","0.007173"
"0.064852","0.060580","0.008439"
"0.061420","0.058337","0.009904"
"0.057963","0.056012","0.011626"
"0.055196","0.053431","0.013312"
"0.052963","0.049629","0.014814"
"0.050942","0.045437","0.016144"
"0.049467","0.041191","0.017277"
"0.047902","0.036668","0.018522"
"0.045837","0.032620","0.019719"
"0.043812","0.028193","0.020659"
"0.042679","0.023604","0.021438"
"0.043504","0.019926","0.021576"
"0.044091","0.016705","0.021481"
"0.044347","0.013690","0.021346"
"0.044460","0.011036","0.021031"
"0.044514","0.008682","0.020872"
"0.044311","0.006497","0.020565"
"0.043905","0.004719","0.019989"
"0.043834","0.003364","0.019389"
"0.043764","0.002784","0.019147"
"0.043506","0.002417","0.018999"
"0.042510","0.002150","0.019206"
"0.041165","0.001996","0.019591"
"0.039910","0.001913","0.019982"
"0.038507","0.001925","0.020689"
"0.037423","0.002109","0.021703"
"0.035825","0.002327","0.023172"
"0.034594","0.002607","0.024658"
"0.033489","0.002894","0.026064"
"0.032436","0.003182","0.027527"
"0.031430","0.003415","0.029189"
"0.030650","0.003657","0.030782"
"0.029985","0.003864","0.032259"
"0.028980","0.004036","0.033541"
"0.027954","0.004219","0.034472"
"0.026623","0.004278","0.035340"
"0.025991","0.004266","0.035976"
"0.026014","0.004089","0.036523"
"0.026515","0.003831","0.036977"
"0.026715","0.003554","0.037018"
"0.026266","0.003229","0.036627"
"0.025664","0.002843","0.036351"
"0.025035","0.002406","0.036239"
"0.024416","0.002009","0.036207"
"0.023872","0.001639","0.036099"
"0.023265","0.001340","0.035713"
"0.022491","0.001049","0.035472"
"0.021523","0.000794","0.035319"
"0.020017","0.000550","0.035417"
"0.018565","0.000301","0.035980"
"0.017676","0.000152","0.036586"
"0.016831","0.000042","0.036926"
"0.015886","0.000017","0.036977"
"0.014625","0.000017","0.037013"
"0.013856","0.000017","0.037042"
"0.013329","0.000001","0.037375"
"0.012954","0.000000","0.037377"
"0.012835","0.000000","0.037140"
"0.013244","0.000000","0.036828"
"0.013549","0.000000","0.036536"
"0.013878","0.000000","0.036527"
"0.014329","0.000000","0.036766"
"0.014883","0.000026","0.037280"
"0.015970","0.000026","0.038208"
"0.016732","0.000026","0.039437"
"0.017356","0.000026","0.040360"
"0.017938","0.000055","0.041421"
"0.018259","0.000086","0.042803"
"0.018098","0.000170","0.044126"
"0.017578","0.000269","0.045570"
"0.016915","0.000442","0.046493"
"0.016138","0.000539","0.047393"
"0.015121","0.000636","0.048272"
"0.013543","0.000771","0.048674"
"0.011952","0.001008","0.048655"
"0.010345","0.001256","0.048433"
"0.008701","0.001487","0.048027"
"0.007147","0.001712","0.047247"
"0.005654","0.001973","0.045864"
"0.004681","0.002255","0.043715"
"0.003846","0.002490","0.041903"
"0.003021","0.002719","0.040005"
"0.002440","0.002914","0.037872"
"0.002451","0.003043","0.035777"
"0.002536","0.003097","0.033744"
"0.002628","0.003083","0.032051"
"0.002809","0.003159","0.030226"
"0.002983","0.003285","0.028382"
"0.003067","0.003443","0.026809"
"0.003119","0.003501","0.025614"
"0.003118","0.003559","0.024516"
"0.003068","0.003802","0.023338"
"0.002970","0.004299","0.022362"
"0.002865","0.004852","0.021588"
"0.002760","0.005246","0.021219"
"0.002679","0.005484","0.020649"
"0.002579","0.005733","0.020257"
"0.002473","0.005986","0.019841"
"0.002344","0.006266","0.019412"
"0.002213","0.006643","0.018953"
"0.002090","0.007108","0.018628"
"0.001967","0.007627","0.018635"
"0.001804","0.008201","0.018878"
"0.001630","0.008781","0.019374"
"0.001416","0.009507","0.019976"
"0.001244","0.010356","0.020490"
"0.001110","0.011003","0.021002"
"0.001053","0.011174","0.021166"
"0.001074","0.011049","0.021299"
"0.001057","0.010984","0.021299"
"0.000991","0.011031","0.021406"
"0.000954","0.010960","0.021470"
"0.000977","0.010746","0.021642"
"0.001047","0.010439","0.021840"
"0.001112","0.010142","0.022013"
"0.001163","0.009732","0.022102"
"0.001222","0.009302","0.021885"
"0.001271","0.008829","0.021734"
"0.001342","0.008398","0.021519"
"0.001430","0.007867","0.021331"
"0.001521","0.007200","0.021099"
"0.001630","0.006456","0.020742"
"0.001704","0.005945","0.020546"
"0.001767","0.005659","0.020193"
"0.001812","0.005528","0.019927"
"0.001865","0.005523","0.019874"
"0.001858","0.005714","0.020018"
"0.001747","0.006269","0.020217"
"0.001640","0.006850","0.020228"
"0.001561","0.007265","0.020321"
"0.001538","0.007517","0.020503"
"0.001553","0.007635","0.020897"
"0.001620","0.007579","0.021003"
"0.001691","0.007470","0.020894"
"0.001771","0.007321","0.020755"
"0.001831","0.007187","0.020722"
"0.001862","0.007060","0.020943"
"0.001860","0.006914","0.021249"
"0.001829","0.006774","0.021340"
"0.001866","0.006569","0.021391"
"0.001908","0.006380","0.021197"
"0.002020","0.006034","0.021211"
"0.002132","0.005669","0.020974"
"0.002221","0.005431","0.020987"
"0.002281","0.005302","0.020665"
"0.002342","0.005429","0.020101"
"0.002397","0.005545","0.019363"
"0.002451","0.005775","0.018728"
"0.002486","0.005845","0.018522"
"0.002500","0.005873","0.018282"
"0.002524","0.005978","0.018091"
"0.002543","0.006260","0.017698"
"0.002590","0.006780","0.017574"
"0.002610","0.007353","0.017695"
"0.002628","0.007964","0.017752"
"0.002683","0.008235","0.017636"
"0.002722","0.008376","0.017195"
"0.002796","0.008356","0.016970"
"0.002915","0.008301","0.016684"
"0.003075","0.008315","0.016617"
"0.003230","0.008177","0.016860"
"0.003310","0.008096","0.017256"
"0.003307","0.007949","0.017747"
"0.003287","0.007887","0.017931"
"0.003301","0.007814","0.018257"
"0.003349","0.007636","0.018423"
"0.003392","0.007385","0.018879"
"0.003368","0.006857","0.019314"
"0.003327","0.006244","0.019952"
"0.003276","0.005579","0.020385"
"0.003236","0.005221","0.020532"
"0.003210","0.005205","0.020429"
"0.003172","0.005188","0.020384"
"0.003061","0.005131","0.020424"
"0.002884","0.004871","0.020662"
"0.002683","0.004706","0.020523"
"0.002471","0.004667","0.020625"
"0.002307","0.004894","0.020752"
"0.002169","0.005148","0.021340"
"0.002359","0.005699","0.021591"
"0.003384","0.006377","0.021631"
"0.005096","0.007628","0.020983"
"0.006810","0.009578","0.019994"
"0.008037","0.011661","0.018866"
"0.009192","0.014427","0.017662"
"0.010505","0.016683","0.017169"
"0.012000","0.018677","0.016460"
"0.014081","0.021323","0.015399"
"0.016319","0.023807","0.014453"
"0.017948","0.025852","0.013595"
"0.020428","0.027751","0.012990"
"0.024034","0.029580","0.012297"
"0.027517","0.031887","0.012026"
"0.030308","0.033704","0.011774"
"0.032755","0.035086","0.011546"
"0.034132","0.036277","0.011765"
"0.034777","0.036899","0.012380"
"0.035107","0.036485","0.012858"
"0.035998","0.035530","0.013377"
"0.037023","0.033792","0.014284"
"0.039351","0.032439","0.015195"
"0.041638","0.031248","0.016302"
"0.042560","0.029350","0.017852"
"0.043000","0.026975","0.019383"
"0.044595","0.024991","0.020485"
"0.045054","0.023093","0.021512"
"0.043767","0.021315","0.022021"
"0.042524","0.018838","0.022128"
"0.042068","0.016827","0.021873"
"0.041604","0.015217","0.021630"
"0.042081","0.013682","0.021086"
"0.042844","0.012157","0.020489"
"0.043444","0.011122","0.020347"
"0.043749","0.010525","0.020358"
"0.044115","0.010141","0.020350"
"0.042549","0.009840","0.020427"
"0.040687","0.009427","0.020847"
"0.039638","0.008923","0.021416"
"0.039217","0.008905","0.021727"
"0.038939","0.009024","0.021835"
"0.039064","0.009032","0.021920"
"0.039813","0.008965","0.022241"
"0.039976","0.009013","0.022394"
"0.040029","0.009114","0.022405"
"0.040355","0.008926","0.022572"
"0.039730","0.008690","0.022857"
"0.038794","0.008346","0.023235"
"0.038496","0.007698","0.023484"
"0.039027","0.006964","0.023544"
"0.039380","0.006163","0.023426"
"0.040475","0.005415","0.022793"
"0.041651","0.004747","0.022035"
"0.043047","0.004205","0.020907"
"0.043807","0.003870","0.019689"
"0.043135","0.003640","0.018794"
"0.042423","0.003408","0.018465"
"0.041334","0.003095","0.018652"
"0.041034","0.002683","0.019007"
"0.040544","0.002248","0.019536"
"0.040261","0.001870","0.019922"
"0.040038","0.001535","0.020347"
"0.040093","0.001362","0.020278"
"0.040175","0.001332","0.019992"
"0.039690","0.001376","0.019842"
"0.038901","0.001318","0.020123"
"0.037711","0.001233","0.020795"
"0.036533","0.001165","0.021373"
"0.035429","0.001044","0.022197"
"0.034333","0.000930","0.023081"
"0.033514","0.000818","0.023923"
"0.032640","0.000899","0.024228"
"0.032213","0.000975","0.024139"
"0.031499","0.001038","0.024104"
"0.030202","0.001035","0.024269"
"0.028285","0.000981","0.024923"
"0.026954","0.000937","0.025405"
"0.025242","0.000827","0.026377"
"0.023429","0.000747","0.027922"
"0.021623","0.000704","0.029640"
"0.020290","0.000793","0.030841"
"0.018775","0.000892","0.031883"
"0.016939","0.000903","0.033518"
"0.014731","0.001015","0.034760"
"0.012777","0.000957","0.036243"
"0.011232","0.000846","0.037685"
"0.009613","0.000697","0.039314"
"0.007984","0.000574","0.040797"
"0.006527","0.000468","0.043014"
"0.005874","0.000403","0.044943"
"0.005371","0.000403","0.046487"
"0.004447","0.000408","0.048059"
"0.003718","0.000408","0.049283"
"0.002977","0.000481","0.049791"
"0.002223","0.000633","0.049737"
"0.001334","0.000675","0.050024"
"0.000745","0.000774","0.049843"
"0.000504","0.000867","0.049364"
"0.000308","0.000956","0.049122"
"0.000214","0.001128","0.048379"
"0.000266","0.001394","0.047161"
"0.000397","0.001679","0.045808"
"0.000541","0.001948","0.044573"
"0.000763","0.002258","0.042061"
"0.000967","0.002432","0.040259"
"0.001170","0.002546","0.038572"
"0.001407","0.002714","0.036688"
"0.001603","0.002870","0.035077"
"0.001759","0.003138","0.033111"
"0.001848","0.003339","0.031385"
"0.001897","0.003764","0.029678"
"0.001879","0.004522","0.028570"
"0.001924","0.005442","0.027344"
"0.002057","0.006065","0.025891"
"0.002208","0.006362","0.024753"
"0.002218","0.006592","0.024608"
"0.002262","0.006816","0.024475"
"0.002251","0.007047","0.024667"
"0.002198","0.007103","0.024953"
"0.002019","0.007546","0.024732"
"0.001832","0.008190","0.024083"
"0.001607","0.008794","0.023650"
"0.001477","0.009101","0.023407"
"0.001389","0.009232","0.023825"
"0.001346","0.009697","0.024230"
"0.001297","0.010535","0.024382"
"0.001265","0.011160","0.024440"
"0.001176","0.011227","0.024355"
"0.001152","0.011017","0.024140"
"0.001153","0.010867","0.023905"
"0.001223","0.010713","0.023307"
"0.001189","0.010570","0.022708"
"0.001194","0.010455","0.021909"
"0.001155","0.010330","0.021800"
"0.001258","0.009953","0.021686"
"0.001345","0.009446","0.021913"
"0.001461","0.008930","0.022106"
"0.001510","0.008726","0.022147"
"0.001564","0.008634","0.022020"
"0.001641","0.008232","0.021726"
"0.001765","0.007192","0.021511"
"0.001904","0.005846","0.021226"
"0.002065","0.004970","0.020975"
"0.002127","0.004698","0.020921"
"0.002102","0.004919","0.021019"
"0.002057","0.005170","0.021121"
"0.002018","0.005427","0.021282"
"0.001966","0.005548","0.021276"
"0.001955","0.005698","0.020917"
"0.001927","0.005775","0.020554"
"0.001972","0.005767","0.020062"
"0.001973","0.005753","0.019617"
"0.002031","0.005838","0.019017"
"0.002059","0.005774","0.018574"
"0.002109","0.005662","0.018189"
"0.002177","0.005578","0.017838"
"0.002225","0.005623","0.017641"
"0.002237","0.005659","0.017620"
"0.002203","0.005574","0.017809"
"0.002195","0.005298","0.017886"
"0.002190","0.005227","0.017883"
"0.002238","0.005157","0.017836"
"0.002307","0.005188","0.017856"
"0.002402","0.005087","0.017796"
"0.002505","0.005107","0.017510"
"0.002534","0.005282","0.017339"
"0.002590","0.005416","0.017229"
"0.002612","0.005445","0.017123"
"0.002666","0.005482","0.016969"
"0.002666","0.005614","0.016913"
"0.002617","0.005808","0.016949"
"0.002599","0.006075","0.016990"
"0.002532","0.006207","0.017462"
"0.002492","0.006437","0.017963"
"0.002449","0.006610","0.018260"
"0.002540","0.006541","0.018091"
"0.002626","0.006293","0.017972"
"0.002700","0.006005","0.017884"
"0.002730","0.005942","0.018052"
"0.002713","0.005789","0.018512"
"0.002707","0.005581","0.019005"
"0.002648","0.005418","0.019412"
"0.002514","0.005431","0.020117"
"0.002375","0.005432","0.021108"
"0.002291","0.005371","0.021981"
"0.002343","0.005156","0.022306"
"0.002331","0.004862","0.022399"
"0.002668","0.004666","0.021984"
"0.003008","0.004455","0.021339"
"0.003379","0.004338","0.020794"
"0.003372","0.004434","0.020646"
"0.003317","0.004768","0.020409"
"0.003243","0.005164","0.020211"
"0.003137","0.005337","0.020015"
"0.003086","0.005664","0.019706"
"0.003067","0.006090","0.019564"
"0.003123","0.006531","0.019416"
"0.003273","0.006698","0.018993"
"0.003381","0.006820","0.018023"
"0.003496","0.006888","0.017080"
"0.004624","0.007365","0.016393"
"0.007232","0.008391","0.015737"
"0.011848","0.010199","0.014785"
"0.016278","0.013863","0.013889"
"0.021957","0.018935","0.012873"
"0.025742","0.025551","0.011941"
"0.030580","0.030701","0.011000"
"0.035022","0.036153","0.010029"
"0.037987","0.041909","0.008897"
"0.040832","0.047367","0.007725"
"0.043882","0.052195","0.006338"
"0.046799","0.056602","0.005052"
"0.049784","0.060793","0.003876"
"0.053377","0.066829","0.003144"
"0.056361","0.073635","0.002896"
"0.059370","0.079947","0.002919"
"0.061133","0.085113","0.003230"
"0.060459","0.088931","0.004440"
"0.059736","0.090317","0.005829"
"0.058345","0.089585","0.007411"
"0.059457","0.086911","0.009011"
"0.059575","0.085138","0.010629"
"0.059624","0.080978","0.012420"
"0.061565","0.075660","0.014100"
"0.062374","0.070336","0.015750"
"0.062866","0.065279","0.017529"
"0.063584","0.060661","0.019097"
"0.063918","0.056270","0.020775"
"0.062915","0.050135","0.022324"
"0.062360","0.043320","0.023545"
"0.061068","0.036739","0.024794"
"0.060442","0.030700","0.025512"
"0.059516","0.025156","0.025659"
"0.058837","0.020176","0.025748"
"0.057500","0.015869","0.025895"
"0.055754","0.011704","0.025953"
"0.054001","0.008074","0.025813"
"0.052687","0.006555","0.025427"
"0.051053","0.006136","0.025097"
"0.050278","0.005891","0.024712"
"0.049527","0.005934","0.024252"
"0.048304","0.006092","0.024118"
"0.046909","0.006375","0.024092"
"0.046185","0.006576","0.024212"
"0.046045","0.006643","0.024227"
"0.045946","0.006638","0.024193"
"0.045281","0.006647","0.024479"
"0.045243","0.006662","0.024781"
"0.045194","0.006691","0.025024"
"0.044343","0.006683","0.025285"
"0.043658","0.006574","0.025458"
"0.043849","0.006347","0.025476"
"0.044268","0.006029","0.025446"
"0.044309","0.005737","0.025519"
"0.044223","0.005505","0.025618"
"0.044106","0.005198","0.025669"
"0.044306","0.004760","0.025420"
"0.045004","0.004256","0.024931"
"0.045814","0.003798","0.024365"
"0.046090","0.003353","0.023946"
"0.045080","0.002983","0.023647"
"0.043513","0.002688","0.023261"
"0.041570","0.002421","0.023083"
"0.039584","0.002104","0.022934"
"0.038397","0.001824","0.022754"
"0.036691","0.001649","0.022992"
"0.034396","0.001498","0.023673"
"0.032600","0.001503","0.024405"
"0.031194","0.001548","0.025158"
"0.030213","0.001534","0.026309"
"0.029905","0.001454","0.027565"
"0.029853","0.001370","0.028869"
"0.029771","0.001283","0.030293"
"0.029533","0.001233","0.031553"
"0.029217","0.001208","0.032934"
"0.029237","0.001147","0.034432"
"0.028792","0.001017","0.036058"
"0.028250","0.000943","0.037596"
"0.027661","0.000886","0.039203"
"0.026530","0.000822","0.040770"
"0.025571","0.000779","0.041965"
"0.024290","0.000773","0.043159"
"0.022323","0.000665","0.044681"
"0.020278","0.000495","0.046058"
"0.018331","0.000338","0.046910"
"0.016180","0.000276","0.047959"
"0.013876","0.000195","0.048937"
"0.011598","0.000148","0.049443"
"0.009468","0.000077","0.050074"
"0.007562","0.000028","0.050629"
"0.006213","0.000000","0.050597"
"0.005612","0.000000","0.050410"
"0.005316","0.000000","0.050022"
"0.005046","0.000000","0.049663"
"0.005006","0.000036","0.048886"
"0.005182","0.000131","0.048040"
"0.005396","0.000248","0.046939"
"0.005609","0.000408","0.045404"
"0.005772","0.000598","0.043807"
"0.005904","0.000723","0.042707"
"0.005693","0.000883","0.041174"
"0.005440","0.001101","0.039584"
"0.005173","0.001320","0.038157"
"0.004892","0.001576","0.036631"
"0.004529","0.001806","0.034990"
"0.004090","0.001946","0.033967"
"0.003607","0.002029","0.033262"
"0.003116","0.002208","0.032240"
"0.002671","0.002417","0.031008"
"0.002561","0.002879","0.030187"
"0.002421","0.003825","0.029376"
"0.002234","0.004896","0.028704"
"0.002022","0.005914","0.028340"
"0.001913","0.006517","0.027894"
"0.001874","0.006942","0.026932"
"0.001823","0.007175","0.026021"
"0.001759","0.007365","0.025272"
"0.001682","0.007497","0.024833"
"0.001616","0.007653","0.024389"
"0.001528","0.008000","0.024032"
"0.001469","0.008458","0.023349"
"0.001434","0.009043","0.022439"
"0.001456","0.009305","0.021726"
"0.001519","0.009429","0.021034"
"0.001605","0.009212","0.020385"
"0.001766","0.008400","0.019726"
"0.001912","0.007478","0.019115"
"0.002085","0.006559","0.018315"
"0.002176","0.006143","0.017813"
"0.002229","0.005991","0.017521"
"0.002274","0.006061","0.017338"
"0.002335","0.006091","0.017245"
"0.002390","0.006057","0.017035"
"0.002428","0.005922","0.016870"
"0.002508","0.005525","0.016640"
"0.002543","0.005155","0.016381"
"0.002561","0.004729","0.016480"
"0.002520","0.004567","0.016808"
"0.002456","0.004468","0.017229"
"0.002401","0.004406","0.017722"
"0.002394","0.004394","0.018152"
"0.002421","0.004335","0.018547"
"0.002433","0.004282","0.019054"
"0.002479","0.004179","0.019417"
"0.002496","0.004243","0.019752"
"0.002471","0.004336","0.020113"
"0.002410","0.004602","0.020334"
"0.002292","0.005122","0.020700"
"0.002208","0.005572","0.020871"
"0.002181","0.006051","0.020843"
"0.002207","0.006293","0.020752"
"0.002281","0.006407","0.020228"
"0.002352","0.006432","0.019585"
"0.002400","0.006480","0.018940"
"0.002471","0.006550","0.018222"
"0.002484","0.006681","0.017760"
"0.002485","0.006835","0.017394"
"0.002483","0.006978","0.016933"
"0.002448","0.007034","0.016752"
"0.002437","0.006826","0.016545"
"0.002486","0.006514","0.016197"
"0.002535","0.006144","0.015952"
"0.002626","0.005759","0.015518"
"0.002713","0.005501","0.015346"
"0.002737","0.005332","0.015421"
"0.002731","0.005289","0.015686"
"0.002708","0.005333","0.015948"
"0.002653","0.005447","0.016304"
"0.002599","0.005587","0.016478"
"0.002557","0.005637","0.016582"
"0.002512","0.005693","0.016768"
"0.002503","0.005765","0.016754"
"0.002541","0.005912","0.016746"
"0.002624","0.006109","0.016555"
"0.002724","0.006322","0.016384"
"0.002744","0.006674","0.016469"
"0.002758","0.006953","0.016495"
"0.002753","0.007197","0.016568"
"0.002730","0.007377","0.016495"
"0.002736","0.007362","0.016377"
"0.002738","0.007383","0.016246"
"0.002704","0.007381","0.016221"
"0.002670","0.007327","0.016311"
"0.002634","0.007255","0.016601"
"0.002567","0.007171","0.016988"
"0.002523","0.006955","0.017450"
"0.002485","0.006741","0.017815"
"0.002419","0.006389","0.018456"
"0.002355","0.006040","0.018915"
"0.002256","0.005741","0.019503"
"0.002184","0.005278","0.020074"
"0.002092","0.004751","0.020962"
"0.002038","0.004148","0.021864"
"0.002032","0.003635","0.022463"
"0.002041","0.003346","0.022662"
"0.002207","0.003041","0.022859"
"0.002459","0.002715","0.023380"
"0.003065","0.002393","0.023730"
"0.003710","0.002061","0.024142"
"0.004279","0.001851","0.024439"
"0.005225","0.001708","0.024384"
"0.006693","0.001574","0.024520"
"0.008889","0.001935","0.024352"
"0.012367","0.002622","0.024338"
"0.016045","0.003795","0.024504"
"0.019220","0.005433","0.024330"
"0.023798","0.007637","0.023995"
"0.027986","0.010072","0.023632"
"0.034107","0.012206","0.023026"
"0.040464","0.014232","0.022593"
"0.046590","0.017159","0.022295"
"0.052750","0.020146","0.021584"
"0.059174","0.023440","0.020173"
"0.064371","0.027001","0.018430"
"0.069394","0.031023","0.016737"
"0.072540","0.035186","0.015227"
"0.074857","0.039043","0.013929"
"0.076885","0.041580","0.012762"
"0.077701","0.043448","0.011935"
"0.077753","0.044151","0.011243"
"0.078420","0.043781","0.010908"
"0.078151","0.042148","0.010786"
"0.077748","0.040172","0.010866"
"0.076150","0.038285","0.011329"
"0.073901","0.036423","0.011659"
"0.071167","0.033670","0.011828"
"0.068907","0.030847","0.012196"
"0.065417","0.027847","0.013341"
"0.062879","0.024551","0.014720"
"0.060890","0.020741","0.016114"
"0.060039","0.016756","0.017771"
"0.059615","0.013051","0.019090"
"0.058437","0.010226","0.020160"
"0.057249","0.007737","0.020662"
"0.057076","0.005873","0.020691"
"0.057578","0.004592","0.020550"
"0.057055","0.004074","0.020131"
"0.057258","0.003705","0.019305"
"0.056562","0.003445","0.018902"
"0.055980","0.003209","0.018879"
"0.055217","0.002918","0.019108"
"0.054577","0.002682","0.019219"
"0.053974","0.002422","0.019201"
"0.053627","0.002301","0.019090"
"0.052753","0.002256","0.018932"
"0.052900","0.002240","0.018288"
"0.053185","0.002175","0.017786"
"0.054003","0.002148","0.017297"
"0.054595","0.002093","0.016941"
"0.054716","0.002024","0.016713"
"0.054450","0.001918","0.016467"
"0.054822","0.001778","0.016245"
"0.055368","0.001596","0.016343"
"0.055761","0.001644","0.016603"
"0.055513","0.001849","0.016910"
"0.055473","0.002203","0.017053"
"0.055159","0.002575","0.017150"
"0.054856","0.002900","0.017453"
"0.054198","0.003126","0.018021"
"0.053227","0.003246","0.018639"
"0.052153","0.003163","0.019107"
"0.051618","0.002991","0.019518"
"0.050753","0.002800","0.020206"
"0.050146","0.002612","0.021095"
"0.049584","0.002501","0.021852"
"0.048617","0.002488","0.022505"
"0.047010","0.002488","0.023187"
"0.044984","0.002488","0.023877"
"0.043516","0.002315","0.023971"
"0.042744","0.001997","0.023891"
"0.042338","0.001618","0.023894"
"0.041512","0.001246","0.024041"
"0.041398","0.000847","0.024109"
"0.042056","0.000457","0.024174"
"0.043089","0.000124","0.024432"
"0.042838","0.000000","0.025431"
"0.041450","0.000000","0.026615"
"0.039968","0.000000","0.027702"
"0.038190","0.000000","0.028765"
"0.036351","0.000000","0.029884"
"0.034019","0.000000","0.031339"
"0.031650","0.000000","0.033073"
"0.029868","0.000000","0.034697"
"0.027873","0.000000","0.036533"
"0.026124","0.000000","0.038223"
"0.024560","0.000000","0.039762"
"0.022976","0.000000","0.041139"
"0.021331","0.000000","0.042345"
"0.018977","0.000000","0.043067"
"0.016434","0.000025","0.043425"
"0.014517","0.000053","0.043335"
"0.012918","0.000075","0.043016"
"0.011482","0.000155","0.042816"
"0.010184","0.000208","0.042799"
"0.008958","0.000402","0.042188"
"0.008227","0.000534","0.041681"
"0.008024","0.000677","0.040826"
"0.007276","0.000864","0.039893"
"0.006419","0.001044","0.039011"
"0.005584","0.001216","0.038127"
"0.004777","0.001432","0.036816"
"0.003996","0.001637","0.035601"
"0.003189","0.001903","0.034224"
"0.002653","0.002186","0.033164"
"0.002417","0.002520","0.032429"
"0.002299","0.003032","0.031724"
"0.002163","0.003548","0.031168"
"0.002063","0.004029","0.030449"
"0.002044","0.004550","0.029249"
"0.002002","0.004739","0.028341"
"0.001981","0.004942","0.027080"
"0.002077","0.005155","0.025809"
"0.002107","0.005665","0.024840"
"0.002173","0.006223","0.023841"
"0.002142","0.006859","0.023036"
"0.002002","0.007512","0.023136"
"0.001853","0.008190","0.023190"
"0.001672","0.008657","0.023470"
"0.001665","0.008763","0.022973"
"0.001730","0.008692","0.022482"
"0.001748","0.008442","0.022115"
"0.001786","0.008155","0.021642"
"0.001777","0.008239","0.021227"
"0.001707","0.008499","0.021094"
"0.001631","0.008959","0.021195"
"0.001627","0.009114","0.021186"
"0.001649","0.009035","0.021026"
"0.001734","0.008628","0.020716"
"0.001754","0.008247","0.020623"
"0.001742","0.008044","0.020754"
"0.001777","0.007753","0.020574"
"0.001844","0.007366","0.020403"
"0.001934","0.006821","0.020435"
"0.001893","0.006662","0.020985"
"0.001858","0.006711","0.021173"
"0.001843","0.007004","0.020976"
"0.001769","0.007478","0.020914"
"0.001641","0.007844","0.021270"
"0.001539","0.007897","0.021578"
"0.001459","0.007846","0.021880"
"0.001445","0.007808","0.021965"
"0.001397","0.007972","0.022134"
"0.001368","0.008078","0.022261"
"0.001384","0.008036","0.022269"
"0.001517","0.007701","0.022277"
"0.001706","0.007357","0.022035"
"0.001846","0.007116","0.021680"
"0.001939","0.007187","0.020989"
"0.001947","0.007208","0.020657"
"0.001924","0.007160","0.020524"
"0.001890","0.006866","0.020605"
"0.001881","0.006558","0.020631"
"0.001964","0.006061","0.020215"
"0.002058","0.005707","0.019765"
"0.002182","0.005354","0.019311"
"0.002202","0.005234","0.019283"
"0.002227","0.005188","0.019315"
"0.002219","0.005275","0.019389"
"0.002221","0.005512","0.019159"
"0.002174","0.005749","0.018680"
"0.002129","0.005932","0.018134"
"0.002114","0.006031","0.017743"
"0.002111","0.006103","0.017571"
"0.002145","0.006165","0.017371"
"0.002208","0.006171","0.017197"
"0.002306","0.006254","0.016976"
"0.002462","0.006288","0.016655"
"0.002607","0.006215","0.016397"
"0.002723","0.006034","0.016337"
"0.002747","0.005849","0.016652"
"0.002710","0.005691","0.017182"
"0.002653","0.005438","0.017734"
"0.002651","0.005078","0.017956"
"0.002608","0.004544","0.018708"
"0.002550","0.004227","0.019654"
"0.002454","0.004113","0.020685"
"0.002428","0.004244","0.021142"
"0.002451","0.004303","0.021273"
"0.002494","0.004333","0.021421"
"0.002499","0.004436","0.021524"
"0.002467","0.004480","0.021859"
"0.002399","0.004513","0.022098"
"0.002372","0.004561","0.022236"
"0.002354","0.004780","0.022059"
"0.002354","0.005057","0.021730"
"0.002381","0.005297","0.021120"
"0.002424","0.005493","0.020450"
"0.002465","0.005795","0.019811"
"0.002544","0.006211","0.018893"
"0.002621","0.006445","0.017838"
"0.002716","0.006403","0.016938"
"0.002744","0.006161","0.016607"
"0.002750","0.005996","0.016527"
"0.002767","0.005880","0.016255"
"0.002795","0.005732","0.015988"
"0.002826","0.005567","0.015715"
"0.002832","0.005341","0.015777"
"0.002774","0.005181","0.016142"
"0.002677","0.004961","0.016780"
"0.002586","0.004763","0.017300"
"0.002563","0.004656","0.017788"
"0.003697","0.004476","0.018775"
"0.006539","0.004895","0.019484"
"0.010971","0.005796","0.019620"
"0.018847","0.007607","0.018661"
"0.026980","0.010831","0.017547"
"0.036784","0.016390","0.016420"
"0.044943","0.022510","0.015310"
"0.051608","0.028820","0.014306"
"0.057897","0.035347","0.013431"
"0.064009","0.041073","0.012857"
"0.069561","0.046412","0.012065"
"0.075175","0.051591","0.010699"
"0.080014","0.056688","0.009415"
"0.084509","0.061810","0.008373"
"0.089696","0.065643","0.007605"
"0.093624","0.069301","0.006342"
"0.095558","0.071801","0.005490"
"0.095731","0.073888","0.005031"
"0.092411","0.074766","0.005544"
"0.088615","0.074383","0.006151"
"0.083177","0.072056","0.006462"
"0.079443","0.068947","0.007031"
"0.077410","0.065033","0.007684"
"0.075318","0.060333","0.008429"
"0.073109","0.056071","0.008940"
"0.072244","0.051937","0.009624"
"0.071421","0.047562","0.010781"
"0.071492","0.042956","0.011780"
"0.072059","0.038234","0.012381"
"0.072562","0.034570","0.012685"
"0.073450","0.030784","0.013310"
"0.074435","0.027439","0.013853"
"0.074668","0.024018","0.014439"
"0.074118","0.020941","0.015124"
"0.072829","0.017879","0.015758"
"0.070921","0.014485","0.016604"
"0.068976","0.011316","0.017202"
"0.067272","0.008726","0.017705"
"0.065879","0.006681","0.018069"
"0.064042","0.005060","0.018293"
"0.061311","0.003730","0.018381"
"0.058743","0.002715","0.018373"
"0.056158","0.001957","0.018457"
"0.053399","0.001252","0.018820"
"0.049790","0.000813","0.019313"
"0.045974","0.000804","0.019548"
"0.042140","0.000838","0.020025"
"0.039209","0.000841","0.020805"
"0.037226","0.000804","0.021636"
"0.036254","0.000764","0.022401"
"0.035758","0.000785","0.023253"
"0.035199","0.000926","0.024033"
"0.034131","0.001149","0.024731"
"0.033625","0.001368","0.025337"
"0.034607","0.001475","0.025933"
"0.035646","0.001559","0.026610"
"0.036486","0.001646","0.027175"
"0.036716","0.001798","0.027515"
"0.036855","0.001967","0.027823"
"0.037157","0.002112","0.028137"
"0.037613","0.002141","0.028418"
"0.038294","0.002107","0.028788"
"0.038981","0.002104","0.028997"
"0.038967","0.002104","0.029193"
"0.038270","0.002104","0.029732"
"0.037746","0.002002","0.030309"
"0.037184","0.001794","0.030978"
"0.036772","0.001538","0.031762"
"0.035859","0.001288","0.032556"
"0.034109","0.001088","0.033519"
"0.031934","0.000870","0.034394"
"0.029532","0.000681","0.035174"
"0.027667","0.000474","0.036002"
"0.025950","0.000277","0.036849"
"0.023866","0.000104","0.037679"
"0.021418","0.000082","0.038528"
"0.018887","0.000082","0.039285"
"0.016253","0.000082","0.039981"
"0.014238","0.000082","0.040503"
"0.012850","0.000082","0.040771"
"0.011345","0.000082","0.041129"
"0.009908","0.000082","0.041499"
"0.008304","0.000082","0.042114"
"0.006716","0.000082","0.042609"
"0.005261","0.000082","0.042704"
"0.004281","0.000082","0.042963"
"0.003509","0.000066","0.043203"
"0.002759","0.000037","0.043442"
"0.001986","0.000036","0.043573"
"0.001638","0.000048","0.043367"
"0.001522","0.000027","0.043153"
"0.001451","0.000037","0.042816"
"0.001540","0.000103","0.042127"
"0.001621","0.000209","0.041423"
"0.001705","0.000310","0.040617"
"0.001876","0.000471","0.039370"
"0.002085","0.000624","0.038075"
"0.002354","0.000767","0.036540"
"0.002673","0.000917","0.035082"
"0.002876","0.001077","0.033945"
"0.003060","0.001236","0.032512"
"0.003224","0.001420","0.031150"
"0.003371","0.001616","0.029794"
"0.003522","0.001851","0.028512"
"0.003550","0.002101","0.027733"
"0.003430","0.002352","0.027197"
"0.003285","0.002703","0.026653"
"0.003142","0.003038","0.026220"
"0.003052","0.003370","0.025651"
"0.002956","0.003794","0.025065"
"0.002757","0.004376","0.024945"
"0.002418","0.005468","0.025198"
"0.002082","0.006667","0.025319"
"0.001740","0.007749","0.025274"
"0.001507","0.008410","0.024937"
"0.001410","0.008681","0.024602"
"0.001413","0.008781","0.024210"
"0.001382","0.008974","0.023829"
"0.001380","0.009165","0.023372"
"0.001422","0.009487","0.022620"
"0.001447","0.009979","0.021717"
"0.001446","0.010596","0.020955"
"0.001350","0.011432","0.020541"
"0.001195","0.012264","0.020467"
"0.001065","0.012888","0.020509"
"0.001076","0.013025","0.020245"
"0.001150","0.012804","0.019700"
"0.001206","0.012466","0.019247"
"0.001237","0.012301","0.019149"
"0.001304","0.012133","0.019054"
"0.001321","0.012210","0.019093"
"0.001278","0.012364","0.019102"
"0.001228","0.012752","0.019404"
"0.001187","0.012985","0.019684"
"0.001155","0.013042","0.020074"
"0.001197","0.012955","0.020247"
"0.001246","0.012563","0.020327"
"0.001336","0.011975","0.020233"
"0.001465","0.011366","0.019977"
"0.001558","0.010877","0.019731"
"0.001555","0.010704","0.019631"
"0.001558","0.010372","0.019653"
"0.001587","0.009865","0.019706"
"0.001652","0.009186","0.019588"
"0.001675","0.008973","0.019567"
"0.001647","0.008992","0.019471"
"0.001639","0.009082","0.019508"
"0.001686","0.008757","0.019410"
"0.001722","0.008450","0.019375"
"0.001770","0.008158","0.019296"
"0.001811","0.007799","0.019212"
"0.001887","0.007581","0.018877"
"0.002006","0.007318","0.018530"
"0.002092","0.006993","0.018346"
"0.002199","0.006598","0.018152"
"0.002285","0.006123","0.018034"
"0.002390","0.005647","0.017668"
"0.002466","0.005414","0.017354"
"0.002571","0.005271","0.017125"
"0.002623","0.005059","0.017028"
"0.002690","0.004690","0.017193"
"0.002715","0.004338","0.017344"
"0.002726","0.004099","0.017275"
"0.002736","0.003967","0.017185"
"0.002738","0.003904","0.017089"
"0.002702","0.004089","0.017254"
"0.002662","0.004220","0.017579"
"0.002599","0.004324","0.017895"
"0.002558","0.004339","0.018053"
"0.002505","0.004364","0.018088"
"0.002462","0.004496","0.018052"
"0.002451","0.004704","0.017909"
"0.002463","0.004896","0.017691"
"0.002452","0.005073","0.017455"
"0.002475","0.005267","0.017193"
"0.002494","0.005547","0.016826"
"0.002523","0.005836","0.016552"
"0.002556","0.006166","0.016272"
"0.002592","0.006421","0.015912"
"0.002609","0.006604","0.015529"
"0.002654","0.006497","0.014987"
"0.002718","0.006320","0.014544"
"0.002747","0.006130","0.014154"
"0.002767","0.006068","0.013981"
"0.002773","0.006050","0.013911"
"0.002792","0.005981","0.013981"
"0.002809","0.005881","0.014177"
"0.002830","0.005729","0.014411"
"0.002842","0.005576","0.014725"
"0.002777","0.005230","0.015708"
"0.002668","0.004811","0.016989"
"0.002483","0.004345","0.018812"
"0.002307","0.004107","0.020434"
"0.002164","0.004080","0.021571"
"0.002090","0.004099","0.022374"
"0.002095","0.004238","0.022669"
"0.002085","0.004242","0.023478"
"0.002110","0.004298","0.024214"
"0.002090","0.004303","0.024997"
"0.002411","0.004495","0.025053"
"0.004291","0.005162","0.024662"
"0.006941","0.006158","0.024459"
"0.010989","0.007443","0.023880"
"0.015599","0.010388","0.022836"
"0.020787","0.014640","0.021255"
"0.028787","0.019594","0.018994"
"0.037078","0.025388","0.016155"
"0.045514","0.030582","0.013588"
"0.053617","0.035465","0.011536"
"0.061362","0.039158","0.009850"
"0.067714","0.041835","0.008908"
"0.074164","0.044870","0.007318"
"0.081151","0.047624","0.006019"
"0.088800","0.050506","0.004465"
"0.096423","0.052682","0.003700"
"0.101994","0.053973","0.003580"
"0.106511","0.054913","0.003443"
"0.109635","0.055614","0.003550"
"0.111810","0.054804","0.004020"
"0.113723","0.052450","0.004755"
"0.112691","0.049271","0.005790"
"0.108607","0.044976","0.007404"
"0.103034","0.040718","0.009344"
"0.099510","0.036401","0.010691"
"0.096469","0.033125","0.011931"
"0.094397","0.030525","0.013110"
"0.092189","0.027586","0.014571"
"0.089441","0.024873","0.015671"
"0.085393","0.022065","0.016865"
"0.080847","0.019730","0.018063"
"0.076683","0.017785","0.018809"
"0.071464","0.015849","0.019482"
"0.065872","0.013781","0.020329"
"0.060873","0.011441","0.021492"
"0.056299","0.009485","0.022331"
"0.052493","0.007692","0.023142"
"0.052066","0.006193","0.023224"
"0.053024","0.004957","0.022866"
"0.052439","0.004050","0.023074"
"0.052038","0.003263","0.023597"
"0.051603","0.002764","0.024257"
"0.050706","0.002481","0.024894"
"0.049433","0.002274","0.025527"
"0.048465","0.002134","0.026147"
"0.046904","0.002092","0.026695"
"0.045702","0.002001","0.027407"
"0.045881","0.001758","0.027990"
"0.046290","0.001534","0.028404"
"0.046766","0.001471","0.028289"
"0.046670","0.001454","0.028031"
"0.046220","0.001458","0.027806"
"0.045092","0.001458","0.027958"
"0.043940","0.001453","0.028292"
"0.042425","0.001345","0.028848"
"0.039947","0.001221","0.029351"
"0.038140","0.001120","0.029632"
"0.036457","0.000981","0.029995"
"0.034825","0.000792","0.030555"
"0.033607","0.000564","0.031097"
"0.033096","0.000302","0.031713"
"0.032338","0.000085","0.032142"
"0.031545","0.000004","0.032487"
"0.030971","0.000004","0.032723"
"0.029637","0.000004","0.033182"
"0.029309","0.000004","0.033408"
"0.029241","0.000000","0.033493"
"0.029365","0.000000","0.033305"
"0.029191","0.000000","0.033001"
"0.029050","0.000000","0.032548"
"0.029431","0.000000","0.032002"
"0.029434","0.000000","0.031396"
"0.029847","0.000000","0.030674"
"0.030004","0.000000","0.030073"
"0.028849","0.000000","0.029901"
"0.027754","0.000000","0.029545"
"0.026976","0.000000","0.029312"
"0.026385","0.000000","0.029030"
"0.025798","0.000000","0.028986"
"0.025950","0.000000","0.029249"
"0.025045","0.000000","0.029868"
"0.023562","0.000000","0.030677"
"0.021951","0.000000","0.031493"
"0.020555","0.000000","0.032698"
"0.019093","0.000000","0.033933"
"0.017406","0.000000","0.035210"
"0.015620","0.000000","0.036754"
"0.013705","0.000021","0.037983"
"0.012099","0.000122","0.038959"
"0.011753","0.000302","0.039323"
"0.011429","0.000483","0.039689"
"0.010820","0.000711","0.039651"
"0.009975","0.001020","0.039460"
"0.009055","0.001365","0.039133"
"0.007859","0.001788","0.038354"
"0.006644","0.002266","0.037294"
"0.005515","0.002730","0.036230"
"0.004474","0.003152","0.035277"
"0.003503","0.003576","0.034046"
"0.002708","0.004001","0.032663"
"0.002237","0.004434","0.031143"
"0.001955","0.004868","0.029336"
"0.001776","0.005244","0.027722"
"0.001858","0.005503","0.026185"
"0.001896","0.005918","0.024856"
"0.001850","0.006481","0.023727"
"0.001792","0.007030","0.022909"
"0.001707","0.007878","0.022698"
"0.001606","0.008933","0.022810"
"0.001519","0.009991","0.023069"
"0.001405","0.010958","0.023363"
"0.001286","0.012033","0.023688"
"0.001146","0.012924","0.023856"
"0.001057","0.013415","0.023701"
"0.000915","0.015155","0.024341"
"0.000765","0.017395","0.025396"
"0.000611","0.020059","0.026706"
"0.000443","0.021620","0.027501"
"0.000276","0.022557","0.027908"
"0.000151","0.024484","0.029143"
"0.000109","0.026198","0.030110"
"0.000055","0.027447","0.030944"
"0.000187","0.026784","0.030451"
"0.000335","0.026004","0.029795"
"0.000415","0.025470","0.029429"
"0.000432","0.025220","0.029444"
"0.000432","0.024839","0.029305"
"0.000432","0.024638","0.029385"
"0.000389","0.024621","0.029635"
"0.000490","0.023076","0.028888"
"0.000685","0.020851","0.027379"
"0.000874","0.018343","0.025768"
"0.001017","0.016952","0.024780"
"0.001175","0.016222","0.024205"
"0.001313","0.014367","0.022861"
"0.001432","0.012633","0.021780"
"0.001517","0.011374","0.020928"
"0.001463","0.011580","0.021146"
"0.001419","0.011540","0.021249"
"0.001479","0.010961","0.021009"
"0.001652","0.010130","0.020445"
"0.001840","0.009355","0.019965"
"0.002000","0.008794","0.019431"
"0.002003","0.008854","0.019290"
"0.001924","0.009157","0.019370"
"0.001848","0.009310","0.019586"
"0.001858","0.008966","0.019500"
"0.001918","0.008693","0.019344"
"0.001903","0.008645","0.019222"
"0.001878","0.008501","0.019062"
"0.001867","0.008119","0.019046"
"0.001901","0.007651","0.019088"
"0.001975","0.007209","0.019000"
"0.002058","0.006942","0.018655"
"0.002142","0.006973","0.018245"
"0.002161","0.007038","0.018059"
"0.002177","0.007068","0.017764"
"0.002220","0.006820","0.017465"
"0.002379","0.006171","0.016879"
"0.002598","0.005852","0.016154"
"0.002725","0.006031","0.015652"
"0.002744","0.006597","0.015378"
"0.002712","0.006803","0.015357"
"0.002738","0.006676","0.015319"
"0.002799","0.006515","0.015334"
"0.002841","0.006532","0.015004"
"0.002968","0.006561","0.014464"
"0.003098","0.006558","0.013957"
"0.003134","0.006632","0.013932"
"0.003039","0.006748","0.014179"
"0.002938","0.006839","0.014364"
"0.002937","0.006736","0.014394"
"0.002983","0.006723","0.014352"
"0.003092","0.006656","0.014267"
"0.003100","0.006367","0.014454"
"0.003077","0.005943","0.014817"
"0.003042","0.005439","0.015225"
"0.003067","0.005263","0.015304"
"0.003113","0.005151","0.015219"
"0.003181","0.005119","0.014967"
"0.003326","0.005130","0.014665"
"0.003346","0.005265","0.014470"
"0.003263","0.005467","0.014446"
"0.003186","0.005585","0.014367"
"0.003171","0.005545","0.014213"
"0.003206","0.005453","0.014050"
"0.003171","0.005559","0.014078"
"0.003135","0.005572","0.014076"
"0.003090","0.005721","0.014000"
"0.003007","0.006065","0.013989"
"0.002922","0.006379","0.013843"
"0.002856","0.006594","0.013746"
"0.002859","0.006534","0.013709"
"0.002853","0.006497","0.013904"
"0.002869","0.006380","0.014342"
"0.002877","0.006264","0.014850"
"0.002911","0.006156","0.015346"
"0.002920","0.006066","0.015794"
"0.002968","0.005945","0.016183"
"0.003021","0.005732","0.016787"
"0.004046","0.006140","0.016669"
"0.005668","0.006964","0.016476"
"0.007181","0.008284","0.016032"
"0.008771","0.009229","0.015795"
"0.010154","0.010521","0.015207"
"0.012167","0.012401","0.014803"
"0.014399","0.014809","0.014603"
"0.017522","0.018096","0.014259"
"0.020640","0.021146","0.014152"
"0.023513","0.024148","0.013851"
"0.026108","0.027055","0.013603"
"0.028658","0.029476","0.013428"
"0.031258","0.031707","0.013103"
"0.033723","0.033866","0.012620"
"0.035728","0.036084","0.011709"
"0.036606","0.037903","0.011515"
"0.037649","0.038731","0.011259"
"0.038988","0.039397","0.011326"
"0.040330","0.041811","0.010812"
"0.042119","0.043845","0.010690"
"0.043309","0.045256","0.010549"
"0.044316","0.046307","0.010135"
"0.044472","0.046695","0.009923"
"0.044859","0.047060","0.009340"
"0.044197","0.047037","0.009203"
"0.043823","0.046974","0.009005"
"0.044199","0.046191","0.009120"
"0.044672","0.044529","0.009457"
"0.045549","0.042758","0.009718"
"0.047223","0.040954","0.009963"
"0.049110","0.038885","0.010150"
"0.049832","0.037408","0.010663"
"0.050098","0.035692","0.011245"
"0.050790","0.032428","0.012347"
"0.051133","0.028776","0.013352"
"0.051012","0.024948","0.014290"
"0.050846","0.021055","0.015112"
"0.050353","0.017254","0.015976"
"0.049793","0.013737","0.016930"
"0.050459","0.010681","0.017489"
"0.051438","0.007667","0.018111"
"0.052032","0.005778","0.018177"
"0.052567","0.004945","0.017992"
"0.052239","0.004317","0.018118"
"0.051440","0.003780","0.018637"
"0.050468","0.003290","0.019325"
"0.049467","0.002788","0.019807"
"0.048478","0.002283","0.020112"
"0.046827","0.001843","0.020367"
"0.045068","0.001562","0.020555"
"0.043347","0.001485","0.020715"
"0.041466","0.001495","0.020845"
"0.040643","0.001389","0.020768"
"0.040028","0.001277","0.020504"
"0.039527","0.001155","0.020260"
"0.038664","0.001074","0.019960"
"0.037499","0.000984","0.019888"
"0.036316","0.000899","0.020042"
"0.035434","0.000776","0.020256"
"0.034483","0.000648","0.020451"
"0.033284","0.000551","0.020918"
"0.031535","0.000465","0.021706"
"0.030077","0.000399","0.022757"
"0.028710","0.000352","0.023968"
"0.027593","0.000301","0.025368"
"0.026861","0.000245","0.026994"
"0.026292","0.000147","0.028784"
"0.024926","0.000112","0.030662"
"0.023096","0.000083","0.033026"
"0.021055","0.000070","0.036040"
"0.018627","0.000067","0.039405"
"0.016039","0.000054","0.042826"
"0.013407","0.000036","0.046435"
"0.011081","0.000014","0.049771"
"0.009196","0.000003","0.052706"
"0.007935","0.000003","0.055142"
"0.007560","0.000000","0.057596"
"0.007155","0.000000","0.059524"
"0.006855","0.000000","0.060790"
"0.006600","0.000000","0.061740"
"0.006381","0.000000","0.062150"
"0.006203","0.000000","0.062154"
"0.005949","0.000000","0.062300"
"0.005345","0.000000","0.062438"
"0.004750","0.000042","0.061957"
"0.004537","0.000216","0.060822"
"0.004470","0.000406","0.059542"
"0.004470","0.000674","0.057595"
"0.004473","0.000946","0.055539"
"0.004267","0.001249","0.053554"
"0.003788","0.001549","0.051503"
"0.003432","0.001830","0.048936"
"0.003054","0.001970","0.046645"
"0.002648","0.002140","0.044629"
"0.002259","0.002263","0.042679"
"0.001865","0.002343","0.040979"
"0.001425","0.002453","0.039573"
"0.000980","0.002503","0.038354"
"0.000956","0.002552","0.036909"
"0.001009","0.002527","0.035571"
"0.001089","0.002396","0.034500"
"0.001208","0.002296","0.033346"
"0.001349","0.002125","0.032523"
"0.001514","0.001994","0.031693"
"0.001717","0.001887","0.030909"
"0.001951","0.001835","0.030348"
"0.002156","0.001977","0.029798"
"0.002366","0.002317","0.029071"
"0.002396","0.003043","0.028868"
"0.002234","0.004441","0.028841"
"0.002082","0.005928","0.028790"
"0.001959","0.007328","0.028651"
"0.001899","0.008413","0.028020"
"0.001886","0.009424","0.027253"
"0.001895","0.010612","0.026416"
"0.001891","0.011483","0.025735"
"0.001913","0.011895","0.025062"
"0.001895","0.012271","0.024616"
"0.001888","0.012353","0.024210"
"0.001797","0.012311","0.024144"
"0.001628","0.012120","0.024149"
"0.001419","0.011807","0.024483"
"0.001209","0.011447","0.025023"
"0.001141","0.010946","0.025143"
"0.001214","0.009903","0.025092"
"0.001313","0.008933","0.024679"
"0.001427","0.007916","0.024273"
"0.001506","0.007155","0.024142"
"0.001567","0.006425","0.024043"
"0.001594","0.005565","0.023859"
"0.001681","0.005011","0.023351"
"0.001697","0.004892","0.023049"
"0.001758","0.004787","0.022544"
"0.001772","0.004931","0.022286"
"0.001814","0.005091","0.021693"
"0.001858","0.005343","0.021241"
"0.001924","0.005518","0.020750"
"0.001975","0.005726","0.020200"
"0.002060","0.005630","0.019783"
"0.002144","0.005526","0.019291"
"0.002204","0.005285","0.019348"
"0.002236","0.005192","0.019650"
"0.002262","0.005163","0.019887"
"0.002293","0.005151","0.019987"
"0.002378","0.005113","0.019961"
"0.002398","0.005056","0.020106"
"0.002409","0.004961","0.020219"
"0.002366","0.004857","0.020521"
"0.002327","0.004751","0.020598"
"0.002247","0.004892","0.020991"
"0.002230","0.005046","0.021071"
"0.002227","0.005294","0.020849"
"0.002277","0.005447","0.020540"
"0.002308","0.005612","0.020083"
"0.002323","0.005804","0.019851"
"0.002303","0.006052","0.019446"
"0.002278","0.006232","0.018995"
"0.002281","0.006434","0.018530"
"0.002298","0.006610","0.018166"
"0.002316","0.006738","0.017991"
"0.002328","0.006756","0.017832"
"0.002347","0.006937","0.017625"
"0.002397","0.007259","0.017133"
"0.002421","0.007625","0.016745"
"0.002524","0.007611","0.016159"
"0.002586","0.007470","0.015616"
"0.002626","0.007215","0.015380"
"0.002607","0.007018","0.015260"
"0.002562","0.006874","0.015496"
"0.002524","0.006406","0.016293"
"0.002513","0.005919","0.017189"
"0.002513","0.005531","0.017861"
"0.002452","0.005265","0.018544"
"0.002377","0.005059","0.019195"
"0.002191","0.004811","0.020445"
"0.001997","0.004829","0.021673"
"0.001820","0.004705","0.022808"
"0.001740","0.004677","0.023311"
"0.001829","0.004547","0.023230"
"0.001947","0.004666","0.023027"
"0.002253","0.004842","0.022969"
"0.002513","0.005195","0.023001"
"0.002724","0.005553","0.023406"
"0.002683","0.005865","0.023709"
"0.002670","0.006291","0.023287"
"0.003010","0.006646","0.022620"
"0.003646","0.006976","0.021653"
"0.004289","0.007183","0.021088"
"0.004811","0.007324","0.020756"
"0.004991","0.007582","0.019813"
"0.005133","0.007610","0.018944"
"0.005283","0.007675","0.018143"
"0.005303","0.007378","0.018259"
"0.005200","0.007118","0.018766"
"0.005088","0.006833","0.019112"
"0.004764","0.006576","0.019368"
"0.004527","0.006213","0.019421"
"0.004310","0.005783","0.019263"
"0.004722","0.005348","0.019122"
"0.005484","0.005165","0.018818"
"0.006315","0.005283","0.018967"
"0.007528","0.006322","0.019056"
"0.009501","0.007932","0.018939"
"0.011096","0.010482","0.018286"
"0.013441","0.013331","0.017138"
"0.015986","0.016531","0.016036"
"0.018547","0.019777","0.015058"
"0.021816","0.022996","0.013780"
"0.025204","0.026365","0.012779"
"0.027825","0.029969","0.012217"
"0.030203","0.033400","0.011620"
"0.032320","0.036725","0.011278"
"0.034746","0.040118","0.010928"
"0.037599","0.043391","0.010251"
"0.040037","0.046579","0.009778"
"0.042840","0.049458","0.008879"
"0.045090","0.050436","0.008358"
"0.046533","0.050669","0.007800"
"0.048061","0.049963","0.007602"
"0.049270","0.048266","0.008005"
"0.049846","0.045827","0.008467"
"0.049619","0.043243","0.009044"
"0.048370","0.040786","0.009962"
"0.046494","0.038278","0.010929"
"0.045655","0.035488","0.011628"
"0.045585","0.032793","0.012277"
"0.045987","0.030088","0.012902"
"0.046381","0.027248","0.013213"
"0.046900","0.024170","0.013730"
"0.047685","0.020998","0.014197"
"0.047934","0.017794","0.014780"
"0.047944","0.015474","0.015692"
"0.047900","0.013326","0.016489"
"0.048190","0.011273","0.017147"
"0.048445","0.009893","0.017525"
"0.048753","0.008911","0.017950"
"0.049664","0.007952","0.018306"
"0.050238","0.007084","0.018500"
"0.051005","0.006181","0.018534"
"0.051451","0.005304","0.018498"
"0.051776","0.004461","0.018466"
"0.051577","0.003687","0.018334"
"0.051093","0.003023","0.018397"
"0.049252","0.002742","0.018575"
"0.047070","0.002528","0.018709"
"0.044669","0.002404","0.018860"
"0.042888","0.002220","0.018891"
"0.041919","0.002064","0.018903"
"0.040454","0.001905","0.019414"
"0.038939","0.001761","0.020128"
"0.037768","0.001796","0.020866"
"0.036518","0.001942","0.021685"
"0.036032","0.002018","0.022737"
"0.035823","0.002104","0.023618"
"0.034640","0.002240","0.024614"
"0.032977","0.002369","0.025659"
"0.032000","0.002492","0.026465"
"0.031495","0.002582","0.027164"
"0.031545","0.002536","0.027592"
"0.031854","0.002412","0.027834"
"0.031910","0.002312","0.027966"
"0.031432","0.002306","0.028120"
"0.030111","0.002282","0.028450"
"0.029053","0.002268","0.028411"
"0.027585","0.002271","0.028435"
"0.025942","0.002127","0.028552"
"0.024815","0.001867","0.028798"
"0.023726","0.001637","0.028887"
"0.022683","0.001356","0.029222"
"0.022667","0.001008","0.029595"
"0.022668","0.000744","0.029977"
"0.022143","0.000507","0.030467"
"0.021101","0.000319","0.031108"
"0.019912","0.000252","0.031747"
"0.018143","0.000241","0.032468"
"0.016551","0.000228","0.033335"
"0.014885","0.000221","0.034133"
"0.013284","0.000269","0.034668"
"0.011956","0.000236","0.035312"
"0.011088","0.000161","0.035937"
"0.010444","0.000161","0.036214"
"0.009504","0.000184","0.036402"
"0.008458","0.000261","0.036212"
"0.007423","0.000330","0.035868"
"0.006349","0.000412","0.035526"
"0.005348","0.000501","0.035260"
"0.004444","0.000627","0.035034"
"0.003565","0.000819","0.034759"
"0.002721","0.000930","0.034959"
"0.002327","0.001027","0.035521"
"0.001935","0.001071","0.036311"
"0.001628","0.001157","0.036971"
"0.001426","0.001192","0.037732"
"0.001241","0.001244","0.038297"
"0.001143","0.001343","0.038349"
"0.001044","0.001347","0.038647"
"0.000984","0.001425","0.038403"
"0.000947","0.001549","0.038080"
"0.000909","0.001717","0.037714"
"0.000878","0.001884","0.037255"
"0.000883","0.002109","0.036478"
"0.000944","0.002282","0.035714"
"0.001043","0.002409","0.034829"
"0.001160","0.002703","0.033415"
"0.001293","0.003048","0.031872"
"0.001475","0.003434","0.029995"
"0.001654","0.003926","0.028300"
"0.001675","0.004883","0.026932"
"0.001678","0.005897","0.025697"
"0.001632","0.007328","0.025274"
"0.001619","0.008701","0.024396"
"0.001590","0.010080","0.023903"
"0.001569","0.010877","0.023333"
"0.001557","0.011316","0.022849"
"0.001599","0.011392","0.022333"
"0.001595","0.011361","0.022356"
"0.001614","0.011351","0.022224"
"0.001595","0.011321","0.022169"
"0.001577","0.011315","0.021969"
"0.001528","0.011246","0.021835"
"0.001434","0.011297","0.021938"
"0.001336","0.011143","0.022110"
"0.001348","0.010597","0.022198"
"0.001404","0.009897","0.022333"
"0.001408","0.008620","0.022306"
"0.001456","0.007464","0.022343"
"0.001503","0.006231","0.022131"
"0.001555","0.005510","0.022086"
"0.001615","0.005081","0.021946"
"0.001631","0.004950","0.021975"
"0.001675","0.004859","0.021631"
"0.001608","0.005019","0.021629"
"0.001460","0.005467","0.021763"
"0.001274","0.005976","0.022420"
"0.001122","0.006444","0.022894"
"0.001085","0.006534","0.023193"
"0.001119","0.006610","0.023165"
"0.001216","0.006445","0.022761"
"0.001261","0.006389","0.022580"
"0.001384","0.006433","0.022217"
"0.001443","0.006509","0.022218"
"0.001505","0.006718","0.022218"
"0.001509","0.006788","0.022351"
"0.001493","0.006896","0.022623"
"0.001488","0.006989","0.022727"
"0.001472","0.007092","0.022799"
"0.001519","0.006942","0.022584"
"0.001660","0.006536","0.022119"
"0.001767","0.006142","0.021645"
"0.001834","0.005861","0.021457"
"0.001809","0.005914","0.021452"
"0.001776","0.006007","0.021500"
"0.001753","0.006198","0.021480"
"0.001786","0.006271","0.021009"
"0.001777","0.006518","0.020512"
"0.001745","0.007026","0.020208"
"0.001664","0.007577","0.020150"
"0.001636","0.008034","0.020067"
"0.001628","0.008210","0.019815"
"0.001664","0.008290","0.019442"
"0.001670","0.008314","0.019342"
"0.001660","0.008350","0.019354"
"0.001638","0.008288","0.019548"
"0.001695","0.008032","0.019520"
"0.001789","0.007788","0.019313"
"0.001910","0.007439","0.018952"
"0.001974","0.007138","0.018791"
"0.002027","0.006909","0.018737"
"0.002095","0.006901","0.018730"
"0.002177","0.006973","0.018458"
"0.002341","0.006875","0.017768"
"0.002540","0.006535","0.017060"
"0.002705","0.006257","0.016655"
"0.002783","0.006115","0.016541"
"0.002766","0.006094","0.016802"
"0.002788","0.006088","0.016759"
"0.002775","0.006169","0.016802"
"0.002795","0.006350","0.016833"
"0.002770","0.006587","0.016797"
"0.002736","0.006876","0.016868"
"0.002693","0.007128","0.016845"
"0.002658","0.007389","0.016778"
"0.002618","0.007475","0.016969"
"0.002541","0.007551","0.017424"
"0.002458","0.007471","0.018046"
"0.002368","0.007216","0.018505"
"0.002293","0.007020","0.018558"
"0.002224","0.006865","0.018483"
"0.002193","0.006802","0.018384"
"0.002140","0.006698","0.018563"
"0.002085","0.006609","0.018974"
"0.002064","0.006424","0.019284"
"0.002066","0.006244","0.019418"
"0.002102","0.006012","0.019435"
"0.002141","0.005570","0.019684"
"0.002182","0.005193","0.019922"
"0.002201","0.004772","0.020134"
"0.002241","0.004623","0.020015"
"0.002243","0.004397","0.020012"
"0.002435","0.004207","0.020324"
"0.003737","0.004750","0.020233"
"0.005744","0.005959","0.020074"
"0.008561","0.007993","0.019318"
"0.011224","0.010958","0.018544"
"0.013745","0.014057","0.017548"
"0.016279","0.016945","0.016756"
"0.018114","0.020332","0.016252"
"0.020122","0.023680","0.016314"
"0.022893","0.027483","0.016419"
"0.025104","0.031199","0.016200"
"0.027070","0.035254","0.015933"
"0.029180","0.040030","0.015220"
"0.031317","0.043744","0.014586"
"0.035185","0.047217","0.013128"
"0.038650","0.050847","0.011485"
"0.041012","0.053884","0.010278"
"0.042500","0.055985","0.009545"
"0.043641","0.056110","0.009911"
"0.045799","0.055039","0.010363"
"0.046584","0.053520","0.011234"
"0.047876","0.051300","0.011623"
"0.049958","0.048102","0.011952"
"0.051892","0.044926","0.011940"
"0.052670","0.041470","0.012075"
"0.053553","0.038164","0.012158"
"0.055408","0.034433","0.012078"
"0.056544","0.029983","0.012472"
"0.057812","0.026511","0.012831"
"0.057332","0.023217","0.013589"
"0.056558","0.019642","0.014166"
"0.055845","0.016038","0.014847"
"0.055026","0.012773","0.015448"
"0.053470","0.010750","0.015675"
"0.050863","0.009092","0.016036"
"0.049786","0.007813","0.015926"
"0.049179","0.007297","0.015955"
"0.048776","0.007141","0.015989"
"0.048286","0.006949","0.016147"
"0.048025","0.006644","0.016397"
"0.048358","0.006268","0.016466"
"0.049501","0.005779","0.016802"
"0.051090","0.005298","0.017164"
"0.052166","0.004825","0.017699"
"0.052563","0.004405","0.018474"
"0.053780","0.004007","0.019334"
"0.055154","0.003601","0.020575"
"0.055348","0.003277","0.021985"
"0.055071","0.003046","0.023189"
"0.054823","0.002841","0.023920"
"0.055586","0.002558","0.024487"
"0.055158","0.002357","0.025237"
"0.054811","0.002100","0.025595"
"0.054862","0.001849","0.025715"
"0.055071","0.001544","0.026163"
"0.054998","0.001337","0.026942"
"0.053208","0.001327","0.027644"
"0.051891","0.001327","0.028079"
"0.050033","0.001366","0.028621"
"0.048884","0.001464","0.028941"
"0.047514","0.001557","0.029050"
"0.045854","0.001578","0.028938"
"0.045497","0.001414","0.028816"
"0.046489","0.001142","0.028574"
"0.047852","0.000787","0.028509"
"0.048234","0.000527","0.028450"
"0.049132","0.000351","0.028166"
"0.049604","0.000393","0.028166"
"0.049233","0.000546","0.028137"
"0.048642","0.000727","0.027666"
"0.048467","0.000912","0.026796"
"0.048127","0.000995","0.026346"
"0.047099","0.001027","0.026399"
"0.046928","0.000989","0.026130"
"0.047081","0.000891","0.025843"
"0.046375","0.000798","0.025855"
"0.045185","0.000716","0.026087"
"0.044383","0.000688","0.026186"
"0.043459","0.000683","0.026130"
"0.042436","0.000709","0.025974"
"0.042121","0.000709","0.026385"
"0.041765","0.000709","0.027003"
"0.041842","0.000661","0.027481"
"0.042590","0.000508","0.028022"
"0.042886","0.000327","0.028802"
"0.042836","0.000142","0.030271"
"0.041938","0.000059","0.031072"
"0.041284","0.000026","0.031651"
"0.040317","0.000026","0.032575"
"0.038418","0.000026","0.034029"
"0.037179","0.000026","0.035964"
"0.036201","0.000026","0.037621"
"0.034739","0.000026","0.040353"
"0.032431","0.000026","0.043449"
"0.029954","0.000000","0.046502"
"0.026765","0.000000","0.048690"
"0.023342","0.000000","0.050061"
"0.019536","0.000000","0.051284"
"0.015622","0.000037","0.051509"
"0.012298","0.000167","0.051345"
"0.009044","0.000386","0.050493"
"0.007012","0.000697","0.049587"
"0.005136","0.001018","0.048384"
"0.003631","0.001393","0.046807"
"0.002739","0.001790","0.044843"
"0.001900","0.002392","0.042478"
"0.001255","0.003219","0.040374"
"0.000855","0.004201","0.037312"
"0.000800","0.005407","0.034381"
"0.000800","0.006766","0.031624"
"0.000907","0.007661","0.028949"
"0.001004","0.008200","0.027107"
"0.001101","0.008722","0.025389"
"0.001135","0.009111","0.024667"
"0.001128","0.009883","0.024339"
"0.001156","0.010790","0.024376"
"0.001241","0.011473","0.024594"
"0.001249","0.012153","0.025039"
"0.001326","0.012218","0.025434"
"0.001284","0.012333","0.025727"
"0.001313","0.012209","0.025832"
"0.001469","0.011809","0.025492"
"0.001643","0.011215","0.025045"
"0.001801","0.010249","0.024586"
"0.001968","0.009126","0.024273"
"0.001948","0.008502","0.024702"
"0.001825","0.008315","0.025332"
"0.001702","0.008184","0.025973"
"0.001574","0.008097","0.026583"
"0.001691","0.007410","0.026428"
"0.001784","0.006509","0.026100"
"0.001789","0.005806","0.025870"
"0.001833","0.005180","0.025546"
"0.001725","0.005051","0.025410"
"0.001787","0.004827","0.025355"
"0.001836","0.004597","0.025338"
"0.001865","0.004412","0.025405"
"0.001891","0.004352","0.025378"
"0.001936","0.004488","0.025117"
"0.001974","0.004574","0.024702"
"0.002120","0.004629","0.023669"
"0.002323","0.004508","0.022241"
"0.002531","0.004359","0.020882"
"0.002699","0.004293","0.019623"
"0.002723","0.004414","0.018931"
"0.002752","0.004581","0.018381"
"0.002787","0.004668","0.017966"
"0.002817","0.004685","0.017623"
"0.002859","0.004761","0.017376"
"0.002894","0.004875","0.017129"
"0.002893","0.005061","0.016915"
"0.002909","0.005222","0.016844"
"0.002909","0.005250","0.016905"
"0.002830","0.005358","0.017175"
"0.002752","0.005568","0.017403"
"0.002608","0.005791","0.017663"
"0.002488","0.006114","0.017927"
"0.002442","0.006196","0.017951"
"0.002405","0.006206","0.017903"
"0.002393","0.006163","0.017939"
"0.002381","0.006069","0.017935"
"0.002357","0.006061","0.018008"
"0.002333","0.006105","0.018031"
"0.002348","0.006120","0.017862"
"0.002312","0.006145","0.017599"
"0.002349","0.006072","0.017307"
"0.002341","0.006010","0.017019"
"0.002327","0.005999","0.016766"
"0.002404","0.005858","0.016475"
"0.002473","0.005648","0.016198"
"0.002571","0.005406","0.016126"
"0.002675","0.005140","0.015963"
"0.002657","0.005045","0.016486"
"0.002672","0.004973","0.017054"
"0.002664","0.004750","0.017953"
"0.002607","0.004506","0.019026"
"0.002572","0.004272","0.019638"
"0.002568","0.004034","0.020206"
"0.002562","0.003894","0.020443"
"0.002629","0.003742","0.020704"
"0.002660","0.003655","0.020776"
"0.002620","0.003799","0.020996"
"0.002598","0.003995","0.021195"
"0.002531","0.004233","0.021210"
"0.002507","0.004398","0.021226"
"0.002487","0.004525","0.021105"
"0.002469","0.004630","0.020980"
"0.002489","0.004782","0.020399"
"0.002490","0.004895","0.020043"
"0.002505","0.005093","0.019365"
"0.002584","0.005251","0.018675"
"0.002650","0.005324","0.018178"
"0.002700","0.005366","0.017590"
"0.002671","0.005249","0.017916"
"0.002556","0.005093","0.018485"
"0.002460","0.004947","0.019237"
"0.002425","0.004591","0.019706"
"0.002404","0.004238","0.019949"
"0.002400","0.003823","0.020406"
"0.002600","0.003473","0.020977"
"0.002786","0.003143","0.021727"
"0.003029","0.003018","0.022179"
"0.003265","0.002988","0.022521"
"0.004322","0.003041","0.022683"
"0.006827","0.003854","0.022143"
"0.009649","0.005902","0.021454"
"0.013538","0.008947","0.020872"
"0.017125","0.012876","0.020097"
"0.020737","0.017632","0.018478"
"0.024094","0.022366","0.016713"
"0.027632","0.027234","0.014941"
"0.031127","0.033383","0.013288"
"0.034198","0.039240","0.011813"
"0.036868","0.045636","0.010223"
"0.039206","0.053276","0.008560"
"0.041333","0.060116","0.006799"
"0.043599","0.065719","0.006028"
"0.047020","0.070516","0.005429"
"0.050042","0.074913","0.004716"
"0.051359","0.077274","0.005044"
"0.052338","0.077878","0.005563"
"0.052606","0.076123","0.006300"
"0.053224","0.072931","0.007478"
"0.053504","0.069005","0.008936"
"0.054497","0.064849","0.010334"
"0.054643","0.060358","0.011980"
"0.054558","0.054485","0.013619"
"0.054860","0.048951","0.015181"
"0.055674","0.042847","0.016655"
"0.056715","0.035530","0.017953"
"0.058257","0.029028","0.019136"
"0.059986","0.023600","0.019688"
"0.059673","0.018953","0.020257"
"0.058889","0.014673","0.020788"
"0.058276","0.011656","0.020911"
"0.057615","0.009013","0.020987"
"0.056473","0.007691","0.020979"
"0.055359","0.006830","0.020784"
"0.054297","0.005953","0.020653"
"0.052887","0.005325","0.020610"
"0.052009","0.004893","0.020278"
"0.051898","0.004527","0.020005"
"0.052120","0.004085","0.019585"
"0.052776","0.003635","0.019189"
"0.053137","0.003174","0.018991"
"0.052451","0.002731","0.018971"
"0.051069","0.002290","0.019024"
"0.050708","0.001788","0.019030"
"0.050570","0.001294","0.019081"
"0.049469","0.000894","0.019137"
"0.048117","0.000756","0.019030"
"0.046224","0.000724","0.018759"
"0.044106","0.000802","0.018478"
"0.042455","0.000902","0.018234"
"0.040815","0.001018","0.017997"
"0.039578","0.001030","0.018056"
"0.037733","0.001049","0.018198"
"0.035933","0.000980","0.018709"
"0.033762","0.000973","0.019272"
"0.031815","0.000973","0.019933"
"0.030737","0.000973","0.020573"
"0.030167","0.000973","0.021119"
"0.030240","0.000973","0.021313"
"0.029659","0.000973","0.021842"
"0.029975","0.000949","0.022509"
"0.030348","0.000867","0.023256"
"0.031886","0.000719","0.023999"
"0.033637","0.000527","0.025033"
"0.035089","0.000329","0.026151"
"0.035652","0.000174","0.027543"
"0.035614","0.000192","0.028606"
"0.036080","0.000240","0.029266"
"0.036690","0.000337","0.029646"
"0.036862","0.000481","0.029898"
"0.036540","0.000630","0.030132"
"0.036058","0.000783","0.030125"
"0.035358","0.000783","0.030498"
"0.033762","0.000783","0.031211"
"0.032636","0.000783","0.031698"
"0.031450","0.000783","0.032022"
"0.029998","0.000783","0.032348"
"0.028003","0.000783","0.032858"
"0.026052","0.000783","0.033040"
"0.024154","0.000783","0.032971"
"0.023040","0.000753","0.032624"
"0.022266","0.000649","0.032181"
"0.020566","0.000551","0.032132"
"0.018286","0.000474","0.032280"
"0.016311","0.000406","0.032411"
"0.014717","0.000312","0.032598"
"0.013080","0.000213","0.032956"
"0.011453","0.000288","0.032876"
"0.009981","0.000422","0.032436"
"0.008503","0.000571","0.031915"
"0.007249","0.000749","0.031255"
"0.006485","0.000958","0.030434"
"0.005737","0.001232","0.029521"
"0.004888","0.001544","0.028674"
"0.004167","0.001874","0.027907"
"0.003501","0.002205","0.027154"
"0.002816","0.002596","0.026679"
"0.002650","0.003063","0.026047"
"0.002565","0.003518","0.025373"
"0.002480","0.003882","0.024827"
"0.002469","0.004227","0.024049"
"0.002598","0.004554","0.023195"
"0.002682","0.004887","0.022440"
"0.002726","0.005138","0.021982"
"0.002781","0.005483","0.021536"
"0.002781","0.006002","0.021222"
"0.002674","0.006880","0.021179"
"0.002576","0.007829","0.021128"
"0.002454","0.008804","0.021319"
"0.002330","0.009564","0.021544"
"0.002175","0.010279","0.021699"
"0.001991","0.011052","0.021845"
"0.001836","0.011696","0.021822"
"0.001654","0.012579","0.021908"
"0.001442","0.013507","0.022045"
"0.001235","0.014246","0.022234"
"0.001097","0.014730","0.022292"
"0.001009","0.015270","0.022477"
"0.000975","0.015701","0.022692"
"0.000878","0.016100","0.022946"
"0.000816","0.016143","0.023150"
"0.000904","0.015534","0.022984"
"0.001022","0.014660","0.022753"
"0.001162","0.013668","0.022277"
"0.001288","0.012800","0.021956"
"0.001411","0.011942","0.021865"
"0.001581","0.010958","0.021560"
"0.001757","0.009968","0.021538"
"0.001976","0.008771","0.021176"
"0.002192","0.007634","0.020661"
"0.002400","0.006752","0.020267"
"0.002474","0.006198","0.020043"
"0.002547","0.005558","0.019728"
"0.002565","0.005049","0.019368"
"0.002621","0.004493","0.019066"
"0.002661","0.004145","0.018855"
"0.002686","0.004056","0.018769"
"0.002683","0.004233","0.018822"
"0.002560","0.004847","0.019129"
"0.002412","0.005781","0.019595"
"0.002260","0.006915","0.019956"
"0.002091","0.007882","0.020299"
"0.001945","0.008616","0.020309"
"0.001804","0.009291","0.020512"
"0.001694","0.009735","0.020781"
"0.001562","0.010246","0.020977"
"0.001497","0.010586","0.021065"
"0.001463","0.010813","0.021016"
"0.001471","0.011046","0.020964"
"0.001482","0.011153","0.020701"
"0.001528","0.011186","0.020393"
"0.001555","0.011204","0.020154"
"0.001577","0.011105","0.019877"
"0.001720","0.010614","0.019503"
"0.001894","0.009826","0.018833"
"0.002092","0.008832","0.017983"
"0.002288","0.008021","0.017283"
"0.002443","0.007487","0.016798"
"0.002587","0.007035","0.016283"
"0.002695","0.006959","0.015852"
"0.002804","0.006849","0.015372"
"0.002857","0.006949","0.014976"
"0.002854","0.007128","0.014771"
"0.002840","0.007177","0.014559"
"0.002862","0.007387","0.014437"
"0.002870","0.007564","0.014348"
"0.002901","0.007656","0.014267"
"0.002922","0.007767","0.014209"
"0.002923","0.007732","0.014209"
"0.002906","0.007774","0.014154"
"0.002838","0.007960","0.014192"
"0.002780","0.008214","0.014229"
"0.002624","0.008579","0.014734"
"0.002402","0.008728","0.015833"
"0.002189","0.008383","0.017508"
"0.001989","0.007815","0.019099"
"0.001848","0.007102","0.020479"
"0.001804","0.006529","0.021350"
"0.001730","0.006155","0.022072"
"0.001590","0.005608","0.023299"
"0.001471","0.005113","0.024520"
"0.001350","0.004743","0.025680"
"0.001303","0.004425","0.026471"
"0.001267","0.004240","0.027176"
"0.001207","0.003963","0.028296"
"0.001161","0.003548","0.029435"
"0.001145","0.003238","0.030117"
"0.001153","0.002873","0.030778"
"0.001226","0.002765","0.030649"
"0.001306","0.002981","0.029821"
"0.001344","0.003310","0.029172"
"0.001400","0.003751","0.028205"
"0.001389","0.004067","0.027568"
"0.001404","0.004255","0.027118"
"0.001619","0.004457","0.026145"
"0.001820","0.004539","0.025344"
"0.001982","0.004511","0.024875"
"0.002043","0.004429","0.024628"
"0.002312","0.004392","0.024389"
"0.003268","0.004734","0.023761"
"0.007473","0.005696","0.022629"
"0.012769","0.007020","0.022056"
"0.019304","0.009208","0.020745"
"0.026151","0.012219","0.019415"
"0.026294","0.011823","0.019566"
"0.026370","0.011463","0.019370"
"0.026418","0.011304","0.019432"
"0.026519","0.011683","0.019898"
"0.026824","0.011793","0.019738"
"0.026828","0.011845","0.020537"
"0.027024","0.011901","0.020445"
"0.026860","0.012856","0.020120"
"0.027079","0.013121","0.019725"
"0.026821","0.013214","0.019558"
"0.026567","0.013065","0.018965"
"0.022454","0.012325","0.018819"
"0.017293","0.013100","0.019794"
"0.015023","0.015659","0.020435"
"0.008719","0.012521","0.021556"
"0.008707","0.012829","0.020429"
"0.008851","0.012970","0.019666"
"0.008896","0.013071","0.019131"
"0.009878","0.012235","0.019885"
"0.009862","0.012181","0.019788"
"0.010062","0.012580","0.018826"
"0.010758","0.013713","0.019396"
"0.010944","0.014636","0.020025"
"0.010704","0.016118","0.020463"
"0.011082","0.017467","0.020134"
"0.010283","0.019099","0.021189"
"0.010691","0.020960","0.022355"
"0.011304","0.020560","0.021939"
"0.007132","0.016742","0.021963"
"0.007733","0.017524","0.021174"
"0.008207","0.017930","0.021515"
"0.008714","0.018115","0.021650"
"0.008512","0.019750","0.022542"
"0.008906","0.021608","0.021741"
"0.008704","0.022843","0.021871"
"0.008384","0.027502","0.022720"
"0.007382","0.031395","0.022485"
"0.008428","0.032522","0.022461"
"0.008654","0.032015","0.022274"
"0.008162","0.033066","0.023535"
"0.009835","0.032505","0.022873"
"0.010397","0.032272","0.024147"
"0.010506","0.031090","0.024731"
"0.010360","0.032086","0.025512"
"0.009892","0.033160","0.025490"
"0.009975","0.034306","0.024483"
"0.009856","0.035855","0.024063"
"0.010498","0.036321","0.022424"
"0.009523","0.036005","0.021057"
"0.009858","0.035648","0.021005"
"0.010328","0.031821","0.019875"
"0.010957","0.028118","0.019105"
"0.010319","0.026232","0.018038"
"0.010302","0.026630","0.017295"
"0.012019","0.025001","0.015975"
"0.013731","0.024070","0.015314"
"0.013273","0.025524","0.014061"
"0.015611","0.025964","0.013193"
"0.015618","0.025043","0.012535"
"0.014870","0.025320","0.013728"
"0.014099","0.025523","0.015812"
"0.014448","0.024448","0.017116"
"0.015168","0.023869","0.018717"
"0.014986","0.023682","0.020125"
"0.014440","0.024501","0.021150"
"0.014434","0.024308","0.023479"
"0.017036","0.023673","0.024423"
"0.017869","0.023976","0.025098"
"0.017491","0.024117","0.026570"
"0.015933","0.024535","0.026537"
"0.012759","0.025079","0.026679"
"0.012360","0.023494","0.026043"
"0.009232","0.023286","0.025838"
"0.009638","0.022347","0.025481"
"0.009777","0.020305","0.024540"
"0.010782","0.023429","0.027258"
"0.009892","0.023049","0.026519"
"0.008930","0.021387","0.026616"
"0.008647","0.020656","0.025966"
"0.008883","0.020392","0.025041"
"0.008390","0.020902","0.023787"
"0.005137","0.020390","0.023412"
"0.003620","0.021488","0.023432"
"0.004416","0.020218","0.022447"
"0.004484","0.019648","0.022956"
"0.004646","0.019776","0.024255"
"0.005412","0.018893","0.026122"
"0.005223","0.018956","0.027072"
"0.005764","0.019239","0.028299"
"0.005855","0.019395","0.028368"
"0.005185","0.015074","0.025471"
"0.005167","0.014921","0.026326"
"0.004807","0.016808","0.026186"
"0.004841","0.019424","0.026692"
"0.005504","0.018787","0.027092"
"0.005517","0.017149","0.026993"
"0.005518","0.017333","0.028114"
"0.005809","0.015173","0.028991"
"0.005368","0.014524","0.030265"
"0.005194","0.014323","0.030228"
"0.004902","0.013674","0.029765"
"0.003968","0.013120","0.027942"
"0.004111","0.012312","0.027221"
"0.003322","0.011849","0.026091"
"0.003249","0.011513","0.026299"
"0.003085","0.010753","0.025692"
"0.003136","0.010579","0.025249"
