"1 Chan 1","2 Chan 2","3 Chan 3"
"0.004390","0.0171316","0.010265"
"0.004275","0.0166056","0.011449"
"0.004098","0.0162315","0.012728"
"0.003778","0.0163356","0.014529"
"0.003541","0.0166627","0.015996"
"0.003416","0.0170357","0.016889"
"0.003258","0.0172216","0.017513"
"0.002985","0.0170896","0.017939"
"0.002514","0.0169867","0.018862"
"0.002084","0.0168031","0.019872"
"0.001883","0.0167653","0.021268"
"0.001664","0.0168667","0.022742"
"0.001676","0.0167403","0.023667"
"0.001634","0.0166228","0.024763"
"0.001586","0.0165283","0.025367"
"0.001619","0.0162854","0.025597"
"0.001672","0.0162052","0.025276"
"0.001742","0.0159462","0.024446"
"0.001755","0.0153742","0.023574"
"0.001591","0.0148315","0.023097"
"0.001320","0.0143546","0.023001"
"0.001043","0.0144113","0.023157"
"0.000822","0.0148392","0.023007"
"0.000762","0.0152484","0.022439"
"0.000731","0.0156956","0.021579"
"0.000703","0.0158647","0.020378"
"0.000651","0.0159414","0.019866"
"0.000536","0.0162387","0.020626"
"0.000475","0.0162717","0.021628"
"0.000421","0.0163651","0.023196"
"0.000382","0.0163959","0.024313"
"0.000397","0.0161607","0.024927"
"0.000360","0.0161272","0.025654"
"0.000376","0.0160173","0.025708"
"0.000384","0.0159635","0.025497"
"0.000418","0.0158891","0.024985"
"0.000473","0.0154718","0.024343"
"0.000486","0.0151290","0.024403"
"0.000523","0.0146891","0.024439"
"0.000603","0.0141719","0.024459"
"0.000673","0.0139051","0.024573"
"0.000824","0.0135681","0.023996"
"0.000973","0.0130905","0.022664"
"0.001121","0.0127889","0.020855"
"0.001257","0.0124815","0.018907"
"0.001341","0.0123065","0.017621"
"0.001403","0.0123214","0.016834"
"0.001438","0.0122974","0.016644"
"0.001453","0.0122499","0.016676"
"0.001488","0.0121371","0.016852"
"0.001495","0.0119269","0.017539"
"0.001520","0.0117305","0.018130"
"0.001569","0.0114371","0.018596"
"0.001607","0.0111555","0.019367"
"0.001620","0.0109684","0.020400"
"0.001640","0.0107204","0.021175"
"0.001648","0.0104475","0.022329"
"0.001643","0.0102929","0.023294"
"0.001636","0.0101092","0.024506"
"0.001627","0.0099335","0.025803"
"0.001672","0.0098534","0.026439"
"0.001723","0.0097201","0.026984"
"0.001838","0.0096118","0.026703"
"0.001976","0.0095527","0.026241"
"0.002153","0.0094227","0.025603"
"0.002323","0.0093906","0.024865"
"0.002462","0.0093550","0.024295"
"0.002568","0.0093237","0.023904"
"0.002538","0.0097724","0.023020"
"0.002498","0.0102736","0.021700"
"0.002606","0.0107936","0.020510"
"0.002798","0.0113540","0.018880"
"0.003107","0.0113372","0.017690"
"0.003408","0.0113456","0.016418"
"0.003506","0.0113197","0.015024"
"0.003520","0.0113205","0.014224"
"0.003408","0.0117931","0.013498"
"0.003323","0.0121701","0.013208"
"0.003225","0.0124690","0.013120"
"0.003115","0.0129393","0.012961"
"0.003066","0.0130720","0.012728"
"0.003010","0.0132692","0.012522"
"0.003145","0.0136071","0.012006"
"0.003460","0.0131922","0.012186"
"0.003770","0.0128083","0.012349"
"0.003893","0.0124938","0.012491"
"0.003726","0.0121245","0.012914"
"0.003585","0.0121482","0.013178"
"0.003809","0.0122672","0.013983"
"0.004933","0.0124267","0.015317"
"0.006888","0.0126640","0.016636"
"0.009653","0.0123423","0.018481"
"0.012522","0.0116916","0.020984"
"0.015070","0.0111591","0.023648"
"0.017537","0.0103624","0.028772"
"0.019236","0.0098868","0.034844"
"0.021180","0.0094738","0.040693"
"0.022951","0.0090481","0.045988"
"0.024488","0.0089854","0.051420"
"0.026083","0.0089255","0.058474"
"0.027849","0.0087471","0.065837"
"0.029761","0.0085534","0.072855"
"0.031427","0.0085823","0.078528"
"0.033144","0.0084846","0.082567"
"0.033885","0.0083868","0.086149"
"0.033594","0.0081426","0.090748"
"0.033463","0.0080133","0.094504"
"0.033194","0.0081293","0.097243"
"0.032953","0.0083402","0.099086"
"0.033184","0.0087580","0.098532"
"0.034551","0.0092091","0.096426"
"0.035682","0.0095500","0.094217"
"0.039153","0.0097223","0.092570"
"0.043005","0.0099180","0.089696"
"0.046253","0.0102935","0.084669"
"0.049139","0.0109332","0.077979"
"0.052620","0.0114693","0.070686"
"0.056312","0.0117747","0.064505"
"0.059150","0.0122013","0.059433"
"0.063669","0.0125127","0.054563"
"0.066950","0.0128655","0.049006"
"0.068781","0.0133458","0.043758"
"0.070314","0.0137489","0.038987"
"0.072856","0.0137570","0.034812"
"0.075149","0.0137554","0.030644"
"0.076597","0.0138219","0.027201"
"0.078504","0.0138526","0.023840"
"0.077554","0.0139980","0.020337"
"0.075045","0.0143113","0.017103"
"0.074038","0.0140970","0.014344"
"0.073547","0.0137811","0.012855"
"0.073037","0.0137552","0.012063"
"0.072248","0.0138644","0.011453"
"0.071697","0.0138656","0.010772"
"0.069760","0.0139673","0.009835"
"0.069266","0.0140025","0.008593"
"0.069688","0.0138575","0.007298"
"0.069408","0.0139875","0.006019"
"0.068271","0.0141992","0.004860"
"0.065748","0.0142754","0.003914"
"0.063312","0.0142086","0.002967"
"0.060548","0.0141353","0.002253"
"0.058078","0.0140086","0.001893"
"0.057214","0.0136653","0.001845"
"0.055265","0.0135737","0.002054"
"0.053412","0.0135103","0.002212"
"0.051159","0.0134812","0.002321"
"0.048787","0.0134818","0.002423"
"0.046495","0.0136174","0.002456"
"0.044064","0.0137896","0.002502"
"0.041332","0.0140682","0.002561"
"0.037981","0.0145648","0.002613"
"0.035973","0.0150520","0.002484"
"0.034295","0.0155167","0.002353"
"0.034169","0.0158037","0.002201"
"0.034476","0.0161792","0.002042"
"0.034716","0.0166840","0.001877"
"0.035231","0.0172507","0.001641"
"0.035469","0.0180019","0.001413"
"0.035788","0.0186206","0.001139"
"0.034974","0.0192089","0.001008"
"0.033768","0.0198139","0.000936"
"0.032738","0.0204674","0.000807"
"0.032122","0.0209153","0.000714"
"0.031699","0.0213846","0.000609"
"0.031957","0.0217571","0.000473"
"0.032688","0.0217245","0.000366"
"0.033079","0.0217104","0.000354"
"0.033242","0.0219876","0.000311"
"0.033177","0.0223965","0.000204"
"0.032854","0.0226995","0.000120"
"0.031773","0.0230012","0.000079"
"0.030427","0.0232417","0.000076"
"0.028678","0.0232993","0.000111"
"0.026663","0.0237743","0.000111"
"0.025362","0.0242340","0.000083"
"0.024382","0.0243774","0.000138"
"0.023479","0.0242781","0.000298"
"0.021946","0.0242799","0.000601"
"0.020273","0.0243134","0.001016"
"0.018228","0.0243112","0.001583"
"0.015963","0.0245117","0.002296"
"0.013742","0.0245867","0.003025"
"0.011587","0.0245013","0.003742"
"0.009308","0.0243488","0.004491"
"0.007179","0.0242308","0.005244"
"0.005723","0.0240895","0.006010"
"0.004451","0.0239310","0.006846"
"0.003610","0.0237962","0.007568"
"0.003116","0.0232705","0.008282"
"0.002629","0.0225944","0.009051"
"0.002056","0.0219398","0.009755"
"0.001527","0.0215652","0.010328"
"0.001348","0.0212212","0.010757"
"0.001321","0.0207131","0.011016"
"0.001364","0.0201529","0.010997"
"0.001421","0.0195262","0.011014"
"0.001389","0.0191420","0.010949"
"0.001295","0.0189512","0.010840"
"0.001190","0.0194580","0.010418"
"0.001093","0.0200760","0.009777"
"0.001038","0.0204211","0.009147"
"0.001007","0.0209889","0.008312"
"0.001063","0.0209871","0.007740"
"0.001083","0.0211264","0.007191"
"0.001040","0.0215917","0.006489"
"0.001042","0.0219677","0.005825"
"0.001031","0.0221978","0.005260"
"0.001032","0.0223073","0.004805"
"0.001014","0.0221356","0.004511"
"0.000897","0.0224315","0.004268"
"0.000768","0.0232798","0.003666"
"0.000682","0.0237804","0.003116"
"0.000669","0.0239264","0.002744"
"0.000739","0.0231893","0.002712"
"0.000862","0.0219609","0.003078"
"0.000932","0.0210482","0.003544"
"0.000929","0.0202914","0.004240"
"0.000842","0.0201565","0.004758"
"0.000790","0.0198701","0.005270"
"0.000837","0.0192401","0.005710"
"0.000938","0.0184518","0.006028"
"0.001059","0.0175868","0.006398"
"0.001158","0.0169247","0.006835"
"0.001173","0.0167139","0.007266"
"0.001269","0.0160656","0.007805"
"0.001394","0.0149636","0.008610"
"0.001543","0.0139078","0.009290"
"0.001678","0.0129812","0.009778"
"0.001756","0.0124801","0.010251"
"0.001795","0.0123367","0.010388"
"0.001845","0.0121343","0.010391"
"0.001999","0.0115310","0.010279"
"0.002160","0.0108268","0.010147"
"0.002272","0.0102332","0.010208"
"0.002336","0.0097233","0.010687"
"0.002271","0.0096788","0.011666"
"0.002219","0.0096704","0.012952"
"0.002203","0.0095487","0.014111"
"0.002181","0.0093762","0.015794"
"0.002147","0.0093237","0.017331"
"0.002028","0.0094386","0.018816"
"0.001879","0.0096859","0.020421"
"0.001770","0.0099369","0.021148"
"0.001748","0.0099990","0.021633"
"0.001818","0.0098650","0.022261"
"0.001887","0.0097523","0.023255"
"0.001862","0.0097322","0.024920"
"0.001722","0.0099559","0.026681"
"0.001599","0.0103008","0.027850"
"0.001559","0.0106026","0.028275"
"0.001625","0.0108750","0.027665"
"0.001688","0.0110114","0.026628"
"0.001680","0.0113910","0.025538"
"0.001670","0.0118303","0.023719"
"0.001670","0.0121783","0.022084"
"0.001828","0.0123117","0.020370"
"0.002212","0.0120885","0.018748"
"0.002664","0.0118232","0.018173"
"0.002978","0.0117930","0.018174"
"0.003130","0.0121802","0.018049"
"0.003075","0.0126091","0.017530"
"0.003003","0.0129006","0.016568"
"0.003066","0.0128169","0.015219"
"0.003164","0.0124324","0.014383"
"0.003181","0.0121858","0.014047"
"0.003153","0.0121578","0.014034"
"0.003134","0.0122778","0.013987"
"0.003287","0.0121790","0.013974"
"0.003552","0.0118625","0.014575"
"0.003827","0.0113279","0.015058"
"0.004019","0.0109456","0.015544"
"0.003910","0.0110607","0.015890"
"0.004334","0.0113568","0.015649"
"0.004908","0.0114849","0.015211"
"0.005579","0.0112817","0.015208"
"0.006585","0.0109830","0.015652"
"0.007805","0.0105635","0.016510"
"0.009280","0.0105614","0.017685"
"0.011180","0.0107816","0.018628"
"0.012617","0.0108459","0.019262"
"0.013854","0.0106289","0.020003"
"0.015585","0.0102024","0.020988"
"0.017348","0.0097685","0.021948"
"0.019041","0.0094282","0.022524"
"0.021318","0.0093395","0.023011"
"0.023268","0.0090248","0.024228"
"0.025665","0.0084513","0.025352"
"0.028463","0.0075500","0.028075"
"0.030191","0.0067699","0.030634"
"0.031883","0.0064442","0.032438"
"0.033504","0.0062548","0.034600"
"0.035884","0.0065884","0.034889"
"0.039175","0.0065335","0.035652"
"0.043068","0.0062140","0.036804"
"0.047657","0.0059796","0.038417"
"0.052503","0.0059300","0.039888"
"0.056432","0.0061733","0.041166"
"0.059855","0.0064620","0.043260"
"0.063086","0.0067084","0.045282"
"0.065680","0.0069067","0.047368"
"0.067606","0.0073028","0.048771"
"0.068662","0.0077820","0.050332"
"0.068593","0.0084560","0.051216"
"0.069884","0.0091212","0.051747"
"0.071172","0.0094325","0.052483"
"0.071482","0.0097296","0.052232"
"0.070747","0.0097411","0.052948"
"0.068697","0.0098794","0.053100"
"0.065609","0.0101211","0.052119"
"0.062504","0.0103384","0.050722"
"0.059419","0.0105938","0.049603"
"0.056895","0.0108287","0.048456"
"0.054988","0.0110548","0.046390"
"0.053085","0.0113463","0.044182"
"0.051286","0.0117261","0.041528"
"0.050138","0.0120646","0.038744"
"0.049453","0.0124890","0.035896"
"0.049122","0.0129837","0.032503"
"0.048365","0.0134561","0.029377"
"0.047648","0.0139842","0.026449"
"0.047835","0.0144765","0.023625"
"0.048059","0.0149208","0.020951"
"0.048773","0.0152840","0.018380"
"0.049449","0.0157131","0.016701"
"0.049679","0.0161698","0.015224"
"0.049218","0.0166185","0.013653"
"0.048359","0.0172259","0.012303"
"0.047319","0.0178081","0.011101"
"0.046127","0.0184132","0.010115"
"0.044655","0.0189010","0.009747"
"0.043838","0.0193420","0.009543"
"0.043189","0.0196812","0.009360"
"0.042495","0.0199121","0.009265"
"0.041549","0.0201922","0.009177"
"0.040337","0.0205455","0.009079"
"0.039833","0.0208344","0.009021"
"0.039824","0.0210924","0.009073"
"0.039578","0.0213866","0.009014"
"0.039377","0.0216476","0.008782"
"0.039475","0.0218939","0.008444"
"0.040259","0.0218972","0.008173"
"0.041151","0.0216697","0.007668"
"0.041930","0.0213524","0.007115"
"0.042972","0.0210664","0.006435"
"0.043986","0.0208515","0.005656"
"0.044898","0.0206042","0.004823"
"0.045189","0.0204309","0.004046"
"0.044332","0.0203732","0.003349"
"0.043720","0.0202019","0.002745"
"0.043219","0.0199167","0.002218"
"0.042204","0.0197267","0.001706"
"0.040930","0.0196708","0.001208"
"0.039658","0.0197482","0.000765"
"0.038133","0.0200582","0.000490"
"0.036416","0.0204682","0.000383"
"0.034645","0.0208586","0.000324"
"0.032918","0.0213955","0.000324"
"0.030899","0.0223432","0.000320"
"0.028806","0.0234173","0.000320"
"0.026935","0.0244761","0.000320"
"0.024698","0.0257111","0.000320"
"0.022872","0.0270852","0.000320"
"0.021468","0.0283266","0.000263"
"0.019897","0.0295206","0.000175"
"0.018297","0.0308008","0.000074"
"0.016528","0.0318812","0.000031"
"0.014627","0.0328979","0.000000"
"0.012584","0.0339775","0.000000"
"0.010778","0.0346392","0.000000"
"0.009118","0.0348330","0.000000"
"0.007461","0.0350423","0.000000"
"0.005888","0.0351573","0.000000"
"0.004694","0.0345216","0.000158"
"0.003631","0.0337216","0.000309"
"0.002552","0.0330423","0.000437"
"0.001649","0.0322368","0.000583"
"0.000845","0.0310805","0.000783"
"0.000549","0.0299743","0.001003"
"0.000483","0.0287898","0.001299"
"0.000599","0.0273595","0.001651"
"0.000712","0.0260206","0.002051"
"0.000835","0.0246663","0.002469"
"0.000968","0.0231254","0.002941"
"0.001092","0.0218712","0.003418"
"0.001222","0.0208954","0.003939"
"0.001362","0.0198787","0.004522"
"0.001496","0.0189218","0.005092"
"0.001575","0.0183852","0.005519"
"0.001679","0.0178796","0.005914"
"0.001816","0.0172832","0.006322"
"0.001943","0.0167078","0.006727"
"0.002061","0.0163324","0.007039"
"0.002119","0.0162676","0.007205"
"0.002155","0.0163125","0.007264"
"0.002160","0.0164292","0.007249"
"0.002143","0.0165968","0.007236"
"0.002105","0.0166828","0.007180"
"0.002038","0.0169063","0.007032"
"0.001992","0.0172104","0.006775"
"0.001852","0.0181877","0.006678"
"0.001690","0.0192038","0.006672"
"0.001534","0.0202479","0.006666"
"0.001378","0.0208551","0.006695"
"0.001356","0.0208261","0.006567"
"0.001234","0.0212072","0.006397"
"0.001093","0.0215445","0.006193"
"0.000939","0.0217881","0.006033"
"0.000811","0.0224378","0.005785"
"0.000691","0.0227220","0.005701"
"0.000575","0.0229444","0.005653"
"0.000574","0.0225677","0.005688"
"0.000612","0.0220822","0.005823"
"0.000597","0.0220226","0.005839"
"0.000565","0.0219307","0.005960"
"0.000629","0.0212914","0.005840"
"0.000702","0.0207055","0.005539"
"0.000844","0.0195278","0.005332"
"0.000975","0.0188028","0.005061"
"0.000945","0.0188762","0.004976"
"0.001003","0.0184958","0.004962"
"0.001093","0.0181305","0.005000"
"0.001227","0.0174426","0.005141"
"0.001389","0.0159336","0.005672"
"0.001545","0.0148480","0.006148"
"0.001673","0.0139471","0.006651"
"0.001723","0.0136309","0.007056"
"0.001716","0.0135693","0.007516"
"0.001788","0.0129723","0.008118"
"0.001850","0.0123192","0.008790"
"0.001909","0.0115889","0.009360"
"0.002003","0.0108532","0.009774"
"0.002007","0.0106851","0.009939"
"0.002038","0.0104401","0.010043"
"0.002096","0.0099879","0.010133"
"0.002184","0.0094799","0.010250"
"0.002263","0.0089863","0.010327"
"0.002288","0.0089116","0.010328"
"0.002274","0.0089791","0.010163"
"0.002260","0.0089887","0.009943"
"0.002277","0.0089144","0.009735"
"0.002254","0.0088747","0.009928"
"0.002287","0.0088044","0.010153"
"0.002320","0.0087094","0.010939"
"0.002375","0.0085686","0.011889"
"0.002483","0.0083905","0.012801"
"0.002528","0.0082298","0.014273"
"0.002636","0.0081616","0.015905"
"0.002764","0.0082069","0.017551"
"0.003098","0.0084667","0.019083"
"0.003394","0.0087506","0.020509"
"0.003607","0.0089439","0.021956"
"0.003767","0.0089374","0.023167"
"0.003911","0.0089641","0.024121"
"0.003995","0.0092884","0.024822"
"0.004170","0.0096937","0.025649"
"0.004417","0.0100583","0.026253"
"0.004495","0.0103519","0.026673"
"0.004606","0.0105158","0.026195"
"0.004551","0.0106899","0.025316"
"0.004447","0.0108865","0.024539"
"0.004324","0.0112567","0.023373"
"0.004194","0.0114647","0.022335"
"0.004011","0.0116778","0.021274"
"0.003689","0.0114333","0.020302"
"0.003380","0.0112067","0.019281"
"0.003128","0.0110398","0.018297"
"0.002980","0.0110208","0.017413"
"0.002823","0.0111508","0.016761"
"0.002750","0.0110873","0.016275"
"0.002556","0.0110783","0.015492"
"0.002331","0.0110183","0.014417"
"0.002267","0.0108120","0.013530"
"0.002152","0.0107625","0.012948"
"0.002216","0.0106377","0.012644"
"0.002261","0.0105974","0.012341"
"0.002360","0.0103341","0.012096"
"0.002383","0.0103032","0.011628"
"0.002403","0.0101957","0.011219"
"0.002359","0.0103193","0.010752"
"0.002311","0.0104209","0.010340"
"0.002320","0.0104120","0.010048"
"0.002240","0.0105295","0.010139"
"0.002171","0.0106483","0.010357"
"0.002570","0.0106059","0.010717"
"0.003395","0.0103413","0.011338"
"0.004978","0.0098813","0.012209"
"0.007442","0.0095712","0.013749"
"0.009634","0.0095587","0.015471"
"0.012061","0.0095763","0.018107"
"0.014190","0.0093535","0.021411"
"0.017575","0.0091171","0.024717"
"0.021493","0.0083757","0.028206"
"0.028365","0.0076482","0.031988"
"0.035526","0.0069154","0.036527"
"0.042488","0.0062384","0.040973"
"0.049784","0.0056822","0.045322"
"0.057052","0.0049744","0.049740"
"0.065740","0.0040786","0.053897"
"0.074769","0.0032615","0.057763"
"0.083525","0.0026064","0.061503"
"0.091607","0.0021962","0.064938"
"0.098276","0.0018381","0.067554"
"0.104688","0.0013581","0.070588"
"0.110248","0.0010017","0.072674"
"0.114843","0.0010634","0.073919"
"0.117785","0.0013551","0.074386"
"0.120051","0.0019235","0.073971"
"0.119246","0.0025762","0.072957"
"0.118177","0.0032876","0.070839"
"0.116657","0.0040614","0.068728"
"0.112996","0.0050185","0.066537"
"0.108864","0.0061119","0.063839"
"0.103754","0.0072566","0.061201"
"0.097938","0.0084114","0.058736"
"0.091819","0.0094349","0.055824"
"0.085409","0.0104012","0.052420"
"0.079339","0.0113937","0.048789"
"0.073819","0.0121683","0.044507"
"0.069249","0.0128234","0.040051"
"0.067089","0.0131854","0.035698"
"0.064942","0.0135809","0.032099"
"0.062679","0.0141286","0.029302"
"0.061310","0.0145982","0.026732"
"0.060305","0.0150168","0.024465"
"0.059698","0.0153361","0.022357"
"0.060334","0.0154663","0.020173"
"0.061652","0.0154667","0.018135"
"0.062672","0.0154646","0.016100"
"0.063646","0.0154453","0.013963"
"0.064813","0.0156057","0.012123"
"0.065965","0.0158797","0.010842"
"0.066483","0.0162191","0.009775"
"0.066404","0.0166310","0.008808"
"0.066553","0.0168578","0.007904"
"0.065639","0.0171213","0.007085"
"0.064236","0.0172843","0.006334"
"0.062964","0.0172515","0.005614"
"0.060940","0.0171913","0.004971"
"0.058387","0.0170918","0.004490"
"0.055879","0.0170080","0.003968"
"0.053828","0.0169407","0.003482"
"0.051613","0.0168436","0.003054"
"0.049277","0.0166082","0.002717"
"0.046879","0.0163240","0.002535"
"0.044245","0.0160194","0.002598"
"0.041329","0.0157267","0.002903"
"0.038325","0.0155022","0.003336"
"0.035612","0.0154988","0.003734"
"0.032375","0.0157255","0.004118"
"0.029290","0.0160488","0.004509"
"0.027148","0.0163895","0.004750"
"0.025168","0.0168576","0.004929"
"0.023204","0.0173206","0.005194"
"0.021395","0.0177662","0.005487"
"0.019836","0.0181943","0.005802"
"0.018353","0.0186316","0.006150"
"0.016879","0.0191740","0.006452"
"0.015259","0.0200475","0.006484"
"0.013590","0.0210521","0.006477"
"0.012151","0.0218365","0.006287"
"0.011218","0.0224088","0.005978"
"0.011005","0.0227512","0.005586"
"0.010808","0.0229398","0.005243"
"0.010480","0.0231460","0.004955"
"0.009908","0.0232970","0.004725"
"0.009215","0.0235608","0.004446"
"0.008461","0.0238664","0.004195"
"0.007654","0.0242863","0.003896"
"0.006813","0.0246984","0.003572"
"0.005958","0.0250434","0.003283"
"0.005129","0.0250883","0.003077"
"0.004320","0.0249666","0.002894"
"0.003673","0.0245902","0.003016"
"0.003050","0.0241641","0.003220"
"0.002415","0.0239264","0.003498"
"0.001788","0.0236965","0.003808"
"0.001346","0.0234717","0.004139"
"0.001163","0.0232333","0.004455"
"0.001108","0.0227117","0.004835"
"0.001067","0.0221279","0.005210"
"0.001066","0.0213374","0.005675"
"0.001141","0.0204169","0.006168"
"0.001254","0.0194661","0.006626"
"0.001358","0.0187097","0.007056"
"0.001427","0.0181066","0.007512"
"0.001472","0.0178132","0.007895"
"0.001531","0.0175988","0.008257"
"0.001596","0.0173700","0.008594"
"0.001664","0.0171452","0.008838"
"0.001736","0.0168768","0.009048"
"0.001780","0.0167495","0.009200"
"0.001788","0.0167621","0.009322"
"0.001799","0.0168786","0.009405"
"0.001706","0.0176055","0.009191"
"0.001654","0.0183062","0.008809"
"0.001628","0.0189870","0.008357"
"0.001644","0.0192415","0.008006"
"0.001585","0.0197338","0.007578"
"0.001559","0.0200763","0.007239"
"0.001563","0.0203941","0.006805"
"0.001571","0.0205086","0.006433"
"0.001567","0.0204767","0.006112"
"0.001506","0.0203749","0.005946"
"0.001464","0.0202733","0.005816"
"0.001386","0.0203796","0.005626"
"0.001266","0.0209937","0.005469"
"0.001175","0.0215792","0.005464"
"0.001097","0.0218617","0.005672"
"0.001100","0.0215237","0.005914"
"0.001134","0.0207515","0.006313"
"0.001111","0.0202579","0.006721"
"0.001021","0.0204257","0.006850"
"0.001012","0.0201799","0.006963"
"0.000994","0.0198691","0.007063"
"0.000974","0.0194530","0.007174"
"0.000970","0.0192637","0.007198"
"0.000976","0.0192449","0.007203"
"0.001066","0.0190921","0.007186"
"0.001159","0.0187549","0.007224"
"0.001277","0.0182063","0.007308"
"0.001475","0.0170064","0.007313"
"0.001630","0.0161711","0.006962"
"0.001768","0.0155227","0.006551"
"0.001867","0.0151756","0.006420"
"0.001905","0.0150352","0.006417"
"0.001961","0.0147099","0.006432"
"0.002037","0.0141487","0.006483"
"0.002092","0.0136977","0.006692"
"0.002153","0.0132786","0.006840"
"0.002216","0.0127595","0.007073"
"0.002229","0.0122381","0.007477"
"0.002231","0.0117034","0.007934"
"0.002209","0.0113959","0.008240"
"0.002190","0.0112438","0.008317"
"0.002161","0.0111074","0.008309"
"0.002099","0.0111921","0.008303"
"0.002086","0.0108574","0.008538"
"0.002101","0.0104835","0.008764"
"0.002176","0.0099950","0.008941"
"0.002219","0.0098174","0.008984"
"0.002262","0.0095664","0.009052"
"0.002297","0.0093037","0.009427"
"0.002301","0.0091124","0.009913"
"0.002345","0.0089661","0.010324"
"0.002582","0.0092496","0.010509"
"0.003351","0.0094033","0.010340"
"0.004123","0.0095136","0.010634"
"0.004660","0.0097614","0.011258"
"0.004809","0.0099583","0.012348"
"0.004851","0.0102196","0.013184"
"0.005065","0.0101315","0.014180"
"0.005476","0.0100029","0.015398"
"0.005795","0.0099936","0.016917"
"0.006015","0.0102078","0.018371"
"0.005873","0.0104952","0.019224"
"0.005765","0.0107045","0.019870"
"0.005806","0.0108009","0.020420"
"0.005930","0.0107741","0.020723"
"0.005992","0.0108235","0.021177"
"0.005884","0.0105988","0.021288"
"0.005309","0.0105983","0.021306"
"0.004748","0.0106373","0.020696"
"0.004774","0.0104771","0.019848"
"0.005005","0.0103156","0.018805"
"0.005320","0.0102887","0.018078"
"0.005121","0.0106027","0.017197"
"0.004702","0.0109762","0.015929"
"0.004397","0.0111333","0.014362"
"0.004169","0.0109652","0.012819"
"0.004287","0.0107327","0.011845"
"0.004371","0.0106335","0.011043"
"0.004328","0.0106786","0.010159"
"0.004271","0.0107509","0.009430"
"0.004180","0.0110989","0.008557"
"0.004048","0.0113838","0.008184"
"0.003872","0.0114602","0.008452"
"0.003759","0.0112209","0.009135"
"0.003492","0.0110644","0.009738"
"0.003386","0.0110198","0.010430"
"0.003273","0.0110190","0.010591"
"0.003344","0.0108619","0.010727"
"0.003348","0.0107149","0.011117"
"0.003424","0.0108451","0.011330"
"0.003466","0.0111202","0.011581"
"0.003567","0.0113188","0.011553"
"0.003605","0.0113238","0.011669"
"0.003804","0.0112807","0.011940"
"0.004555","0.0112821","0.012388"
"0.006122","0.0108233","0.014002"
"0.008610","0.0105629","0.015872"
"0.011394","0.0103302","0.017726"
"0.014558","0.0105871","0.018507"
"0.020085","0.0105847","0.019815"
"0.025219","0.0105423","0.020899"
"0.030156","0.0103295","0.022402"
"0.035596","0.0102247","0.023893"
"0.042212","0.0100087","0.025142"
"0.049460","0.0096153","0.026549"
"0.056327","0.0092673","0.028240"
"0.062701","0.0089609","0.030494"
"0.069219","0.0087713","0.032570"
"0.075565","0.0086980","0.034461"
"0.081333","0.0086916","0.036109"
"0.085895","0.0089049","0.036785"
"0.088263","0.0091177","0.037332"
"0.089471","0.0094842","0.037143"
"0.090026","0.0096312","0.037557"
"0.087952","0.0100463","0.037359"
"0.086398","0.0104059","0.037280"
"0.084635","0.0107755","0.037339"
"0.081433","0.0110985","0.037564"
"0.077101","0.0114804","0.037618"
"0.072123","0.0118765","0.037207"
"0.068123","0.0122435","0.036308"
"0.065402","0.0125228","0.035045"
"0.063170","0.0127835","0.033890"
"0.060885","0.0130374","0.032640"
"0.058529","0.0132928","0.031219"
"0.056558","0.0134617","0.029574"
"0.055778","0.0135837","0.027679"
"0.055825","0.0135566","0.026155"
"0.055899","0.0135877","0.024725"
"0.055688","0.0136987","0.023273"
"0.055352","0.0139690","0.021600"
"0.055473","0.0143678","0.019752"
"0.056348","0.0149524","0.017675"
"0.056868","0.0156701","0.015763"
"0.056318","0.0164662","0.014250"
"0.054408","0.0172955","0.012937"
"0.051486","0.0181162","0.011777"
"0.047949","0.0188533","0.010614"
"0.044699","0.0195030","0.009479"
"0.041691","0.0201028","0.008427"
"0.038860","0.0208294","0.007399"
"0.036106","0.0218102","0.006395"
"0.033242","0.0229587","0.005432"
"0.030624","0.0240555","0.004518"
"0.028612","0.0249702","0.003693"
"0.026620","0.0258369","0.003014"
"0.024582","0.0266475","0.002545"
"0.022875","0.0273136","0.002186"
"0.021555","0.0279235","0.001907"
"0.021220","0.0284702","0.001604"
"0.021686","0.0290048","0.001273"
"0.022061","0.0296764","0.000915"
"0.022358","0.0307115","0.000559"
"0.022145","0.0318487","0.000285"
"0.021904","0.0327576","0.000263"
"0.021631","0.0333554","0.000495"
"0.021321","0.0335451","0.000858"
"0.020667","0.0337363","0.001239"
"0.019780","0.0339110","0.001681"
"0.018554","0.0341223","0.002158"
"0.017274","0.0343759","0.002617"
"0.015964","0.0347439","0.003024"
"0.014660","0.0351296","0.003387"
"0.013340","0.0354876","0.003733"
"0.012012","0.0358033","0.004090"
"0.010696","0.0359969","0.004472"
"0.009892","0.0358931","0.004708"
"0.009424","0.0354383","0.004829"
"0.009138","0.0349077","0.004829"
"0.008624","0.0347126","0.004668"
"0.007983","0.0347463","0.004334"
"0.007374","0.0348228","0.003971"
"0.007300","0.0345998","0.003590"
"0.007402","0.0342009","0.003224"
"0.007628","0.0335609","0.002875"
"0.007913","0.0326267","0.002632"
"0.008272","0.0314164","0.002464"
"0.008694","0.0301842","0.002335"
"0.009163","0.0290455","0.002181"
"0.009595","0.0279374","0.002016"
"0.009725","0.0270124","0.001831"
"0.009459","0.0264830","0.001785"
"0.008961","0.0259392","0.001913"
"0.008593","0.0251214","0.002227"
"0.008378","0.0241924","0.002522"
"0.008357","0.0232018","0.002803"
"0.008383","0.0222903","0.003046"
"0.008468","0.0216738","0.003217"
"0.008689","0.0213889","0.003249"
"0.008939","0.0214259","0.003172"
"0.009215","0.0216547","0.002982"
"0.009404","0.0219201","0.002805"
"0.009523","0.0221197","0.002662"
"0.009570","0.0222027","0.002562"
"0.009627","0.0221788","0.002504"
"0.009964","0.0219983","0.002458"
"0.010470","0.0217442","0.002388"
"0.010972","0.0217459","0.002187"
"0.011288","0.0220738","0.001896"
"0.011409","0.0224468","0.001601"
"0.010973","0.0226486","0.001411"
"0.010739","0.0229546","0.001213"
"0.010451","0.0229506","0.001213"
"0.009939","0.0231469","0.001279"
"0.009128","0.0231254","0.001490"
"0.008289","0.0228991","0.001732"
"0.007590","0.0225408","0.001852"
"0.006885","0.0222618","0.001880"
"0.006255","0.0221061","0.001954"
"0.005653","0.0221707","0.002013"
"0.005012","0.0223239","0.002304"
"0.004205","0.0222969","0.003102"
"0.003444","0.0220192","0.004103"
"0.002881","0.0216889","0.004700"
"0.002475","0.0210509","0.005251"
"0.002437","0.0205612","0.005686"
"0.002199","0.0197135","0.006301"
"0.001857","0.0193243","0.007346"
"0.001566","0.0186870","0.008377"
"0.001542","0.0181125","0.009013"
"0.001531","0.0175971","0.009315"
"0.001458","0.0172154","0.009608"
"0.001386","0.0168775","0.010006"
"0.001324","0.0166151","0.010204"
"0.001270","0.0164597","0.010252"
"0.001240","0.0163265","0.009985"
"0.001352","0.0159643","0.009354"
"0.001459","0.0158284","0.008564"
"0.001558","0.0156687","0.008191"
"0.001654","0.0158264","0.007911"
"0.001763","0.0157382","0.007746"
"0.001730","0.0160103","0.007810"
"0.001754","0.0158668","0.007514"
"0.001788","0.0155368","0.007304"
"0.001765","0.0153252","0.007402"
"0.001718","0.0153079","0.008158"
"0.001752","0.0153004","0.009167"
"0.001832","0.0151610","0.009753"
"0.001847","0.0147967","0.010290"
"0.001844","0.0141356","0.010746"
"0.001834","0.0134430","0.011509"
"0.001844","0.0131349","0.011997"
"0.001851","0.0127346","0.012512"
"0.001792","0.0123823","0.013064"
"0.001716","0.0119111","0.013453"
"0.001583","0.0119401","0.013900"
"0.001551","0.0119449","0.013825"
"0.001533","0.0121522","0.013603"
"0.001579","0.0122614","0.013201"
"0.001629","0.0122911","0.012942"
"0.001669","0.0122540","0.012398"
"0.001611","0.0122130","0.011899"
"0.001487","0.0125074","0.012020"
"0.001418","0.0127323","0.012316"
"0.001415","0.0129007","0.012392"
"0.001437","0.0129027","0.012072"
"0.001455","0.0128833","0.011886"
"0.001443","0.0129293","0.012163"
"0.001459","0.0130347","0.012620"
"0.001478","0.0131946","0.013076"
"0.001562","0.0130327","0.013185"
"0.001638","0.0126983","0.013367"
"0.001703","0.0123892","0.013380"
"0.001718","0.0122740","0.013451"
"0.001786","0.0120333","0.013477"
"0.001840","0.0117794","0.013838"
"0.001902","0.0115581","0.014061"
"0.001973","0.0111869","0.013968"
"0.002021","0.0108459","0.013750"
"0.002012","0.0106188","0.013933"
"0.002003","0.0105357","0.014272"
"0.002002","0.0105901","0.014820"
"0.001959","0.0110115","0.015053"
"0.001915","0.0112851","0.014763"
"0.001841","0.0116068","0.014464"
"0.001817","0.0117014","0.014322"
"0.001821","0.0118771","0.014241"
"0.001875","0.0116575","0.014572"
"0.001948","0.0114554","0.014781"
"0.001970","0.0116649","0.014856"
"0.001980","0.0120646","0.014289"
"0.001969","0.0125879","0.013561"
"0.001999","0.0127492","0.013055"
"0.001999","0.0130074","0.012908"
"0.001982","0.0134096","0.012737"
"0.002130","0.0138443","0.012557"
"0.002494","0.0139996","0.012172"
"0.002948","0.0133745","0.011822"
"0.003081","0.0128381","0.011642"
"0.003205","0.0122991","0.011545"
"0.003254","0.0122838","0.011330"
"0.003287","0.0122345","0.010997"
"0.003253","0.0123017","0.010452"
"0.003138","0.0123899","0.010591"
"0.003315","0.0122680","0.011105"
"0.004217","0.0120031","0.012382"
"0.006189","0.0115759","0.013824"
"0.008292","0.0112864","0.015244"
"0.010693","0.0108382","0.016752"
"0.012980","0.0102119","0.019376"
"0.014878","0.0095164","0.022949"
"0.017516","0.0088853","0.027720"
"0.020181","0.0086123","0.033269"
"0.022542","0.0082705","0.038695"
"0.024664","0.0080143","0.044240"
"0.026684","0.0077279","0.050599"
"0.028637","0.0075523","0.056961"
"0.030674","0.0074807","0.063552"
"0.032992","0.0074293","0.069509"
"0.035445","0.0073832","0.074409"
"0.037473","0.0073437","0.077944"
"0.039274","0.0071859","0.083765"
"0.040990","0.0070469","0.091279"
"0.042281","0.0070244","0.098579"
"0.044373","0.0069071","0.103890"
"0.047731","0.0069043","0.107491"
"0.050499","0.0070780","0.109749"
"0.053934","0.0072483","0.110634"
"0.057311","0.0075594","0.111907"
"0.059787","0.0079620","0.111934"
"0.062064","0.0083553","0.108710"
"0.065464","0.0086515","0.103841"
"0.069235","0.0090950","0.098270"
"0.071603","0.0095616","0.092886"
"0.073246","0.0101085","0.088458"
"0.074192","0.0106806","0.084917"
"0.074793","0.0113343","0.078751"
"0.075833","0.0117986","0.072052"
"0.077098","0.0120281","0.065717"
"0.077525","0.0123725","0.060284"
"0.075448","0.0127211","0.055891"
"0.073059","0.0130183","0.051772"
"0.070094","0.0132787","0.047866"
"0.067688","0.0134013","0.043711"
"0.066175","0.0132569","0.040749"
"0.064186","0.0130800","0.039869"
"0.061949","0.0132520","0.039155"
"0.059949","0.0133407","0.038792"
"0.059161","0.0133373","0.038339"
"0.059091","0.0131676","0.037433"
"0.059788","0.0129389","0.036459"
"0.060591","0.0126829","0.035809"
"0.060981","0.0126782","0.034058"
"0.060659","0.0129772","0.032031"
"0.060635","0.0132084","0.029947"
"0.060530","0.0134721","0.027650"
"0.060932","0.0137462","0.024915"
"0.062108","0.0140676","0.022229"
"0.062811","0.0144041","0.019655"
"0.063195","0.0147641","0.017022"
"0.064151","0.0149155","0.014680"
"0.064716","0.0146675","0.013709"
"0.064728","0.0144101","0.012724"
"0.064565","0.0142383","0.011814"
"0.064401","0.0141611","0.011083"
"0.062849","0.0141169","0.010483"
"0.060536","0.0141279","0.009906"
"0.058104","0.0140718","0.009155"
"0.056427","0.0139702","0.008228"
"0.054499","0.0140648","0.007344"
"0.054052","0.0141218","0.006346"
"0.053020","0.0141330","0.005621"
"0.050820","0.0141005","0.005072"
"0.048893","0.0139942","0.004538"
"0.047127","0.0140783","0.004014"
"0.045686","0.0143985","0.003642"
"0.044037","0.0149371","0.003443"
"0.041671","0.0156263","0.003353"
"0.039496","0.0162394","0.003221"
"0.037021","0.0169792","0.003075"
"0.035545","0.0178262","0.002813"
"0.034219","0.0189761","0.002462"
"0.032876","0.0203285","0.002105"
"0.031358","0.0216825","0.001753"
"0.029623","0.0230968","0.001433"
"0.027777","0.0246070","0.001171"
"0.025775","0.0261438","0.000969"
"0.023451","0.0276261","0.000743"
"0.021371","0.0292494","0.000520"
"0.019703","0.0305859","0.000346"
"0.017950","0.0316306","0.000246"
"0.015942","0.0325247","0.000219"
"0.014353","0.0330717","0.000177"
"0.012702","0.0335522","0.000191"
"0.010957","0.0337147","0.000341"
"0.009268","0.0336824","0.000566"
"0.007619","0.0333270","0.000860"
"0.006051","0.0327097","0.001226"
"0.004496","0.0323882","0.001469"
"0.003293","0.0317767","0.001773"
"0.002273","0.0310000","0.002009"
"0.001467","0.0301018","0.002183"
"0.001236","0.0292476","0.002368"
"0.001087","0.0283132","0.002550"
"0.000935","0.0275195","0.002727"
"0.000788","0.0267638","0.002924"
"0.000737","0.0258099","0.003163"
"0.000893","0.0247062","0.003545"
"0.001012","0.0237703","0.003850"
"0.001091","0.0234248","0.003921"
"0.001136","0.0234861","0.003776"
"0.001142","0.0235993","0.003614"
"0.001090","0.0242929","0.003585"
"0.001090","0.0242494","0.003867"
"0.001069","0.0243154","0.004125"
"0.001028","0.0244879","0.004374"
"0.000983","0.0245994","0.004595"
"0.000982","0.0245553","0.004818"
"0.000967","0.0247055","0.004868"
"0.000991","0.0244982","0.005017"
"0.001005","0.0242381","0.005178"
"0.000954","0.0240719","0.005310"
"0.000919","0.0239049","0.005391"
"0.000891","0.0239609","0.005273"
"0.000912","0.0236103","0.005386"
"0.000951","0.0229740","0.005677"
"0.001019","0.0223399","0.005956"
"0.001075","0.0216216","0.005870"
"0.001119","0.0212986","0.005548"
"0.001206","0.0208574","0.005211"
"0.001283","0.0201880","0.004995"
"0.001368","0.0194105","0.004936"
"0.001443","0.0187374","0.004866"
"0.001529","0.0178843","0.004951"
"0.001572","0.0175187","0.004980"
"0.001589","0.0172243","0.005060"
"0.001585","0.0171232","0.005174"
"0.001521","0.0171728","0.005492"
"0.001498","0.0169420","0.006017"
"0.001523","0.0165037","0.006534"
"0.001582","0.0159525","0.006945"
"0.001686","0.0153961","0.007167"
"0.001835","0.0144556","0.007496"
"0.001971","0.0136358","0.007806"
"0.002068","0.0128974","0.008078"
"0.002170","0.0123253","0.008341"
"0.002234","0.0119539","0.008586"
"0.002216","0.0117447","0.008954"
"0.002190","0.0115728","0.009376"
"0.002161","0.0112582","0.009853"
"0.002165","0.0110732","0.010202"
"0.002248","0.0107088","0.010405"
"0.002337","0.0106086","0.010145"
"0.002427","0.0103755","0.009939"
"0.002465","0.0102992","0.009653"
"0.002456","0.0102240","0.009554"
"0.002422","0.0101031","0.009596"
"0.002368","0.0100481","0.009656"
"0.002360","0.0098596","0.009703"
"0.002328","0.0097042","0.009938"
"0.002301","0.0095246","0.010195"
"0.002285","0.0093869","0.010412"
"0.002279","0.0092773","0.010630"
"0.002280","0.0091180","0.010734"
"0.002299","0.0090071","0.010751"
"0.002342","0.0087819","0.010660"
"0.002335","0.0086066","0.010600"
"0.002341","0.0083938","0.010598"
"0.002332","0.0082792","0.010606"
"0.002323","0.0081670","0.010638"
"0.002297","0.0081339","0.010711"
"0.002295","0.0080968","0.010803"
"0.002303","0.0080237","0.010984"
"0.002309","0.0079983","0.011159"
"0.002330","0.0079975","0.011277"
"0.002348","0.0080316","0.011200"
"0.002357","0.0081228","0.011027"
"0.002412","0.0081101","0.010663"
"0.002470","0.0081562","0.010305"
"0.002499","0.0083244","0.009870"
"0.002491","0.0086107","0.009583"
"0.002519","0.0088579","0.009415"
"0.002518","0.0090851","0.009474"
"0.002562","0.0090891","0.009543"
"0.002571","0.0091119","0.009548"
"0.002592","0.0091946","0.009262"
"0.002826","0.0093621","0.008939"
"0.003020","0.0096051","0.008890"
"0.003175","0.0098352","0.009191"
"0.003130","0.0099328","0.009444"
"0.003068","0.0100152","0.009710"
"0.003066","0.0101322","0.009604"
"0.003181","0.0103863","0.009567"
"0.003291","0.0106676","0.009684"
"0.003442","0.0107087","0.009928"
"0.003436","0.0107450","0.010257"
"0.003385","0.0106154","0.010542"
"0.003387","0.0104337","0.010638"
"0.003339","0.0105939","0.010548"
"0.003333","0.0107961","0.010383"
"0.003319","0.0109063","0.010354"
"0.003067","0.0109908","0.010365"
"0.003066","0.0109572","0.010006"
"0.003455","0.0109720","0.009432"
"0.005133","0.0110291","0.009237"
"0.006852","0.0109294","0.009898"
"0.009343","0.0107194","0.011432"
"0.011695","0.0104541","0.013346"
"0.014756","0.0101849","0.014993"
"0.017899","0.0098294","0.017905"
"0.021019","0.0092926","0.021746"
"0.024429","0.0089239","0.025864"
"0.027532","0.0086460","0.030101"
"0.030598","0.0082053","0.035049"
"0.033663","0.0077707","0.040883"
"0.037426","0.0073363","0.046784"
"0.041531","0.0068892","0.052719"
"0.045212","0.0064444","0.059057"
"0.048011","0.0061595","0.065410"
"0.049476","0.0060155","0.071074"
"0.050856","0.0061292","0.075519"
"0.051240","0.0064194","0.079180"
"0.052075","0.0067262","0.081483"
"0.052176","0.0069625","0.083640"
"0.051976","0.0073281","0.084684"
"0.052141","0.0078601","0.084361"
"0.052307","0.0084959","0.082845"
"0.053755","0.0090279","0.081058"
"0.056068","0.0095143","0.078601"
"0.058974","0.0099585","0.074975"
"0.061480","0.0103241","0.070430"
"0.063667","0.0106875","0.065675"
"0.066088","0.0112000","0.060498"
"0.069079","0.0116023","0.055018"
"0.071691","0.0120466","0.049695"
"0.073869","0.0124271","0.044641"
"0.076344","0.0127025","0.039518"
"0.078318","0.0129407","0.035186"
"0.080066","0.0131574","0.031118"
"0.080698","0.0134387","0.026832"
"0.080186","0.0137167","0.022895"
"0.079116","0.0139406","0.019829"
"0.076670","0.0142915","0.016966"
"0.073414","0.0148190","0.014198"
"0.069578","0.0153976","0.011812"
"0.065799","0.0159319","0.010313"
"0.062506","0.0163600","0.008957"
"0.059260","0.0166504","0.007675"
"0.055683","0.0168442","0.006634"
"0.052518","0.0168771","0.005653"
"0.049789","0.0168745","0.004872"
"0.046934","0.0168848","0.004568"
"0.043868","0.0168589","0.004459"
"0.040695","0.0169114","0.004450"
"0.038952","0.0168898","0.004484"
"0.038278","0.0167485","0.004527"
"0.038545","0.0164862","0.004626"
"0.039061","0.0162360","0.004699"
"0.039002","0.0159869","0.004773"
"0.038681","0.0157213","0.004869"
"0.037974","0.0156280","0.004955"
"0.036744","0.0156331","0.005096"
"0.035420","0.0156669","0.005226"
"0.034339","0.0156724","0.005294"
"0.033361","0.0158292","0.005348"
"0.032130","0.0162091","0.005358"
"0.030703","0.0167200","0.005262"
"0.029389","0.0173041","0.005099"
"0.027943","0.0178162","0.004904"
"0.026356","0.0182845","0.004752"
"0.024619","0.0189625","0.004575"
"0.022248","0.0198256","0.004377"
"0.020016","0.0205907","0.004197"
"0.018326","0.0214102","0.004003"
"0.016869","0.0222962","0.003778"
"0.015504","0.0231822","0.003540"
"0.014175","0.0239650","0.003320"
"0.012879","0.0245450","0.003170"
"0.011605","0.0249612","0.003157"
"0.010432","0.0252009","0.003224"
"0.009441","0.0252737","0.003346"
"0.008399","0.0252680","0.003469"
"0.007509","0.0250322","0.003663"
"0.007097","0.0247720","0.003844"
"0.006709","0.0246160","0.003956"
"0.006355","0.0243873","0.004003"
"0.005984","0.0239598","0.004108"
"0.005567","0.0234945","0.004231"
"0.005178","0.0228859","0.004343"
"0.004772","0.0222460","0.004497"
"0.004328","0.0216916","0.004622"
"0.003856","0.0212414","0.004680"
"0.003379","0.0209549","0.004679"
"0.002924","0.0207806","0.004634"
"0.002476","0.0206457","0.004571"
"0.002150","0.0205409","0.004530"
"0.002046","0.0203636","0.004530"
"0.001983","0.0201457","0.004557"
"0.001975","0.0199217","0.004587"
"0.001968","0.0196666","0.004599"
"0.001956","0.0193904","0.004678"
"0.001952","0.0192060","0.004689"
"0.001961","0.0190986","0.004732"
"0.001961","0.0191162","0.004867"
"0.001964","0.0190821","0.004996"
"0.001964","0.0190085","0.005135"
"0.001951","0.0189629","0.005304"
"0.001948","0.0188608","0.005463"
"0.001937","0.0188000","0.005609"
"0.001925","0.0187781","0.005752"
"0.001865","0.0188290","0.006084"
"0.001836","0.0188837","0.006369"
"0.001764","0.0191966","0.006537"
"0.001632","0.0196861","0.006479"
"0.001573","0.0198971","0.006304"
"0.001552","0.0197822","0.006262"
"0.001527","0.0197833","0.006198"
"0.001484","0.0196923","0.006151"
"0.001457","0.0195602","0.005996"
"0.001462","0.0192019","0.005903"
"0.001511","0.0186283","0.005833"
"0.001562","0.0180338","0.005845"
"0.001599","0.0174500","0.005927"
"0.001593","0.0170914","0.005899"
"0.001576","0.0167822","0.005868"
"0.001626","0.0162984","0.005628"
"0.001680","0.0157932","0.005593"
"0.001741","0.0151101","0.005681"
"0.001826","0.0143463","0.005977"
"0.001859","0.0137509","0.006340"
"0.001858","0.0134283","0.006598"
"0.001886","0.0131319","0.006899"
"0.001909","0.0130451","0.007117"
"0.001946","0.0128526","0.007343"
"0.001983","0.0127048","0.007474"
"0.002001","0.0125255","0.007819"
"0.001991","0.0123503","0.008240"
"0.001979","0.0123083","0.008607"
"0.001993","0.0120893","0.009087"
"0.002096","0.0117443","0.009266"
"0.002172","0.0114055","0.009529"
"0.002204","0.0111610","0.009880"
"0.002226","0.0110210","0.010173"
"0.002239","0.0108191","0.010466"
"0.002303","0.0106501","0.010522"
"0.002365","0.0104248","0.010520"
"0.002428","0.0101286","0.010439"
"0.002530","0.0097107","0.010441"
"0.002620","0.0093366","0.010400"
"0.002651","0.0092174","0.010504"
"0.002651","0.0092160","0.010375"
"0.002670","0.0092271","0.010222"
"0.002717","0.0091203","0.010098"
"0.002774","0.0089974","0.009888"
"0.002761","0.0089378","0.009934"
"0.002752","0.0088913","0.009876"
"0.002750","0.0087962","0.009796"
"0.002756","0.0086889","0.009839"
"0.002764","0.0086607","0.010063"
"0.002713","0.0087158","0.010500"
"0.002668","0.0088198","0.010917"
"0.002538","0.0089803","0.011490"
"0.002397","0.0091615","0.012015"
"0.002365","0.0095191","0.012592"
"0.002483","0.0099402","0.012868"
"0.002661","0.0104496","0.012851"
"0.002821","0.0110840","0.012750"
"0.002718","0.0117084","0.012790"
"0.002611","0.0122679","0.012933"
"0.002643","0.0127411","0.013317"
"0.002745","0.0131156","0.013584"
"0.002885","0.0135801","0.013578"
"0.002919","0.0138649","0.013435"
"0.002917","0.0140421","0.012963"
"0.002886","0.0141354","0.012590"
"0.002859","0.0143276","0.012292"
"0.002887","0.0144590","0.011947"
"0.002917","0.0145562","0.011471"
"0.002861","0.0144260","0.010935"
"0.002682","0.0141302","0.010614"
"0.002484","0.0136805","0.010699"
"0.002285","0.0131882","0.010673"
"0.002353","0.0127826","0.010399"
"0.002488","0.0125680","0.009923"
"0.002511","0.0125307","0.009202"
"0.002583","0.0126993","0.008594"
"0.002679","0.0125386","0.008137"
"0.002727","0.0126054","0.008099"
"0.002820","0.0125832","0.008383"
"0.002903","0.0127544","0.008671"
"0.003003","0.0128247","0.008700"
"0.003142","0.0127906","0.008501"
"0.003213","0.0127785","0.008350"
"0.003204","0.0128405","0.008220"
"0.003226","0.0128062","0.008126"
"0.003235","0.0128504","0.007946"
"0.003295","0.0127775","0.007819"
"0.003692","0.0127979","0.007609"
"0.004086","0.0128477","0.007525"
"0.004754","0.0128117","0.007660"
"0.005052","0.0125621","0.007956"
"0.005293","0.0125441","0.008293"
"0.005487","0.0121681","0.008339"
"0.005640","0.0119401","0.008230"
"0.006154","0.0116606","0.008462"
"0.007251","0.0113392","0.009754"
"0.009472","0.0111204","0.011876"
"0.013261","0.0104497","0.014963"
"0.018053","0.0096228","0.019004"
"0.022890","0.0089034","0.022691"
"0.027357","0.0082627","0.026212"
"0.031328","0.0079114","0.029931"
"0.035961","0.0074297","0.035034"
"0.042154","0.0066865","0.040861"
"0.047606","0.0062219","0.045551"
"0.052837","0.0059910","0.051126"
"0.059733","0.0055991","0.056774"
"0.067449","0.0054835","0.062396"
"0.075880","0.0053231","0.067362"
"0.083680","0.0052110","0.070662"
"0.090235","0.0052196","0.072428"
"0.094691","0.0052709","0.073189"
"0.097564","0.0057677","0.071738"
"0.098971","0.0064317","0.068910"
"0.098059","0.0072404","0.066196"
"0.097258","0.0078931","0.063688"
"0.095429","0.0083127","0.061135"
"0.091882","0.0087804","0.057201"
"0.086118","0.0094476","0.052212"
"0.081713","0.0096885","0.048211"
"0.078366","0.0097027","0.043171"
"0.073758","0.0097732","0.037912"
"0.068981","0.0099121","0.032601"
"0.063840","0.0100365","0.027782"
"0.059462","0.0099090","0.024419"
"0.056013","0.0096570","0.021852"
"0.053155","0.0093558","0.019694"
"0.049625","0.0091656","0.018811"
"0.046433","0.0090112","0.018536"
"0.045252","0.0087007","0.018563"
"0.043775","0.0085842","0.018713"
"0.043644","0.0085678","0.018624"
"0.043944","0.0085097","0.018631"
"0.044963","0.0084223","0.018746"
"0.045306","0.0085615","0.018621"
"0.045927","0.0088111","0.018382"
"0.046695","0.0090340","0.018296"
"0.047180","0.0092193","0.018249"
"0.048674","0.0092470","0.018184"
"0.049675","0.0094057","0.018112"
"0.050350","0.0096596","0.018052"
"0.051030","0.0098579","0.018266"
"0.051613","0.0099505","0.018681"
"0.052140","0.0099274","0.018940"
"0.052613","0.0099805","0.018669"
"0.052731","0.0100349","0.018212"
"0.052656","0.0100324","0.017737"
"0.052802","0.0101539","0.017111"
"0.052706","0.0103123","0.016774"
"0.053039","0.0103574","0.016488"
"0.052504","0.0104139","0.016241"
"0.051462","0.0105997","0.015840"
"0.050360","0.0107503","0.015482"
"0.047980","0.0110626","0.015512"
"0.045402","0.0114029","0.015467"
"0.043021","0.0116304","0.015368"
"0.041090","0.0119629","0.014701"
"0.039853","0.0122667","0.013792"
"0.038616","0.0126620","0.012911"
"0.037667","0.0131446","0.012337"
"0.037769","0.0134736","0.011509"
"0.037786","0.0136553","0.010750"
"0.037663","0.0137879","0.010093"
"0.037554","0.0138209","0.009409"
"0.036444","0.0140099","0.009093"
"0.035280","0.0142173","0.009058"
"0.033843","0.0143337","0.009100"
"0.032520","0.0144444","0.009045"
"0.031546","0.0147210","0.008707"
"0.030930","0.0151446","0.008239"
"0.030152","0.0157786","0.007703"
"0.029277","0.0165106","0.007132"
"0.029142","0.0172830","0.006443"
"0.029553","0.0179727","0.005740"
"0.030310","0.0185256","0.005131"
"0.030301","0.0190479","0.004799"
"0.030542","0.0194510","0.004502"
"0.031017","0.0196834","0.004299"
"0.031639","0.0197089","0.004145"
"0.032485","0.0195778","0.003777"
"0.033334","0.0194457","0.003213"
"0.033920","0.0193540","0.002674"
"0.034209","0.0193885","0.002078"
"0.034329","0.0193484","0.001517"
"0.034454","0.0192120","0.001004"
"0.034643","0.0189444","0.000535"
"0.034760","0.0187054","0.000351"
"0.033813","0.0183960","0.000351"
"0.032704","0.0181521","0.000351"
"0.031282","0.0177879","0.000370"
"0.030552","0.0173935","0.000508"
"0.029662","0.0170745","0.000718"
"0.028706","0.0170612","0.000872"
"0.027546","0.0172462","0.000979"
"0.026735","0.0173797","0.001102"
"0.026003","0.0174502","0.001253"
"0.025527","0.0176375","0.001305"
"0.025075","0.0178967","0.001312"
"0.024919","0.0184257","0.001296"
"0.024698","0.0189613","0.001296"
"0.024453","0.0195199","0.001296"
"0.024345","0.0198634","0.001296"
"0.024960","0.0202166","0.001296"
"0.025509","0.0205455","0.001301"
"0.026035","0.0211046","0.001281"
"0.026460","0.0217998","0.001144"
"0.027224","0.0225841","0.000948"
"0.027908","0.0231779","0.000846"
"0.028574","0.0237015","0.000764"
"0.028532","0.0241229","0.000734"
"0.028316","0.0244357","0.000743"
"0.028264","0.0245772","0.000814"
"0.028229","0.0244852","0.000979"
"0.027564","0.0240399","0.001227"
"0.026193","0.0236393","0.001504"
"0.024650","0.0232411","0.001805"
"0.022955","0.0228227","0.002155"
"0.020999","0.0223693","0.002517"
"0.018909","0.0218591","0.002921"
"0.016805","0.0212237","0.003346"
"0.014740","0.0205322","0.003773"
"0.012687","0.0198318","0.004180"
"0.010834","0.0190690","0.004557"
"0.009550","0.0183238","0.004877"
"0.009072","0.0177537","0.005100"
"0.008855","0.0173043","0.005237"
"0.008772","0.0169409","0.005329"
"0.009016","0.0165937","0.005380"
"0.009553","0.0162107","0.005421"
"0.010728","0.0157915","0.005400"
"0.012029","0.0154008","0.005339"
"0.013414","0.0150300","0.005259"
"0.014825","0.0147091","0.005205"
"0.016274","0.0144894","0.005211"
"0.017521","0.0143631","0.005402"
"0.018422","0.0143539","0.005806"
"0.019058","0.0143876","0.006323"
"0.019523","0.0144909","0.006849"
"0.019502","0.0146538","0.007474"
"0.018951","0.0148530","0.008141"
"0.018339","0.0150273","0.008875"
"0.017658","0.0151238","0.009723"
"0.016685","0.0152590","0.010643"
"0.015512","0.0154823","0.011595"
"0.014334","0.0156350","0.012594"
"0.013162","0.0157147","0.013496"
"0.012001","0.0158101","0.014226"
"0.010786","0.0158766","0.014752"
"0.009535","0.0157994","0.015146"
"0.008512","0.0155753","0.015363"
"0.007923","0.0152271","0.015349"
"0.007480","0.0148862","0.015264"
"0.006994","0.0145448","0.015139"
"0.006636","0.0141767","0.014895"
"0.006508","0.0137517","0.014636"
"0.006396","0.0132966","0.014395"
"0.006370","0.0128725","0.014017"
"0.006386","0.0124286","0.013600"
"0.006434","0.0119370","0.013198"
"0.006494","0.0114360","0.012812"
"0.006619","0.0109744","0.012606"
"0.006812","0.0106549","0.012623"
"0.007023","0.0104288","0.012807"
"0.007246","0.0102737","0.013067"
"0.007438","0.0101733","0.013351"
"0.007521","0.0101077","0.013663"
"0.007698","0.0100136","0.013870"
"0.007918","0.0099686","0.014007"
"0.008177","0.0099942","0.014198"
"0.008431","0.0101106","0.014482"
"0.008642","0.0102693","0.014731"
"0.008761","0.0104650","0.014947"
"0.008778","0.0107545","0.015094"
"0.008833","0.0110385","0.015079"
"0.009030","0.0112631","0.015045"
"0.009287","0.0114705","0.014890"
"0.009466","0.0116301","0.014578"
"0.009764","0.0118960","0.014213"
"0.010381","0.0122370","0.013820"
"0.011442","0.0125578","0.013510"
"0.012487","0.0128959","0.013320"
"0.013678","0.0133064","0.013211"
"0.015208","0.0137955","0.013161"
"0.016851","0.0143169","0.013173"
"0.018899","0.0148202","0.013372"
"0.020997","0.0153583","0.013881"
"0.023462","0.0159954","0.014743"
"0.027605","0.0165642","0.015640"
"0.032262","0.0172455","0.016650"
"0.036749","0.0179702","0.017657"
"0.040956","0.0187696","0.018702"
"0.045352","0.0195048","0.019622"
"0.049825","0.0201889","0.020434"
"0.055022","0.0209475","0.020923"
"0.060018","0.0217947","0.021185"
"0.065080","0.0226344","0.021180"
"0.069591","0.0233600","0.020788"
"0.073602","0.0239514","0.020160"
"0.076680","0.0245476","0.019177"
"0.077691","0.0252836","0.017910"
"0.078330","0.0258989","0.016321"
"0.078643","0.0263987","0.014446"
"0.077367","0.0268131","0.012607"
"0.075528","0.0271096","0.010774"
"0.073661","0.0274174","0.008931"
"0.071790","0.0277409","0.007107"
"0.069397","0.0282495","0.005481"
"0.066627","0.0287867","0.004016"
"0.062772","0.0292669","0.002850"
"0.058623","0.0296053","0.001781"
"0.053763","0.0299934","0.000847"
"0.048764","0.0303444","0.000287"
"0.043527","0.0307007","0.000000"
"0.038854","0.0309697","0.000000"
"0.035718","0.0310785","0.000000"
"0.032777","0.0313176","0.000000"
"0.029762","0.0316151","0.000000"
"0.026696","0.0320568","0.000000"
"0.023607","0.0325689","0.000000"
"0.020524","0.0330798","0.000000"
"0.017622","0.0335057","0.000000"
"0.015034","0.0337065","0.000000"
"0.012643","0.0337801","0.000000"
"0.010315","0.0338229","0.000000"
"0.008001","0.0340300","0.000000"
"0.006300","0.0342603","0.000000"
"0.005121","0.0345410","0.000000"
"0.004341","0.0348785","0.000000"
"0.003728","0.0353187","0.000000"
"0.003205","0.0357374","0.000000"
"0.002789","0.0360756","0.000000"
"0.002432","0.0362446","0.000000"
"0.002096","0.0362804","0.000000"
"0.001783","0.0362432","0.000000"
"0.001515","0.0362009","0.000000"
"0.001228","0.0361126","0.000000"
"0.000951","0.0360186","0.000000"
"0.000692","0.0359601","0.000000"
"0.000450","0.0359079","0.000000"
"0.000259","0.0358489","0.000000"
"0.000124","0.0357139","0.000000"
"0.000036","0.0355978","0.000000"
"0.000015","0.0354246","0.000000"
"0.000021","0.0351597","0.000000"
"0.000047","0.0349367","0.000000"
"0.000059","0.0347696","0.000000"
"0.000074","0.0346972","0.000000"
"0.000109","0.0346429","0.000000"
"0.000163","0.0345234","0.000000"
"0.000236","0.0343503","0.000000"
"0.000325","0.0341580","0.000000"
"0.000398","0.0340175","0.000000"
"0.000473","0.0338094","0.000027"
"0.000538","0.0335495","0.000053"
"0.000587","0.0332649","0.000099"
"0.000629","0.0329804","0.000249"
"0.000682","0.0326718","0.000459"
"0.000736","0.0323441","0.000689"
"0.000793","0.0320066","0.000946"
"0.000821","0.0316363","0.001255"
"0.000872","0.0312283","0.001600"
"0.000928","0.0307861","0.001980"
"0.000981","0.0303062","0.002390"
"0.001029","0.0298279","0.002845"
"0.001075","0.0293167","0.003320"
"0.001138","0.0287651","0.003824"
"0.001239","0.0281080","0.004349"
"0.001339","0.0274323","0.004879"
"0.001446","0.0267241","0.005469"
"0.001537","0.0259287","0.006070"
"0.001634","0.0250880","0.006587"
"0.001732","0.0242654","0.007047"
"0.001825","0.0234441","0.007488"
"0.001919","0.0226302","0.007890"
"0.002015","0.0217787","0.008246"
"0.002106","0.0209321","0.008583"
"0.002207","0.0200823","0.008882"
"0.002299","0.0192996","0.009148"
"0.002387","0.0185455","0.009393"
"0.002466","0.0178068","0.009628"
"0.002533","0.0170957","0.009758"
"0.002574","0.0164537","0.009835"
"0.002614","0.0158719","0.009863"
"0.002640","0.0154046","0.009774"
"0.002698","0.0149978","0.009644"
"0.002751","0.0146583","0.009526"
"0.002751","0.0143853","0.009655"
"0.002724","0.0141576","0.009931"
"0.002669","0.0139963","0.010293"
"0.002597","0.0139346","0.010687"
"0.002461","0.0140395","0.011126"
"0.002291","0.0142426","0.011617"
"0.002110","0.0144970","0.012139"
"0.001924","0.0148073","0.012642"
"0.001732","0.0151873","0.013187"
"0.001525","0.0156510","0.013881"
"0.001311","0.0161389","0.014658"
"0.001095","0.0166793","0.015636"
"0.000897","0.0171745","0.016797"
"0.000699","0.0176751","0.018060"
"0.000508","0.0182423","0.019719"
"0.000354","0.0186770","0.021175"
"0.000229","0.0189728","0.022405"
"0.000124","0.0191193","0.023253"
"0.000041","0.0191459","0.023852"
"0.000046","0.0189019","0.023950"
"0.000109","0.0185576","0.023583"
"0.000165","0.0183125","0.023099"
"0.000232","0.0181776","0.022319"
"0.000314","0.0179486","0.021572"
"0.000395","0.0177177","0.020828"
"0.000493","0.0175417","0.020018"
"0.000595","0.0173323","0.019039"
"0.000669","0.0170801","0.018017"
"0.000773","0.0166382","0.016940"
"0.000862","0.0161521","0.015465"
"0.000968","0.0156860","0.013897"
"0.001076","0.0153528","0.012518"
"0.001181","0.0150906","0.011450"
"0.001298","0.0148530","0.010567"
"0.001375","0.0147846","0.010151"
"0.001425","0.0147598","0.010115"
"0.001463","0.0146881","0.010197"
"0.001482","0.0144906","0.010674"
"0.001485","0.0143366","0.011062"
"0.001489","0.0142016","0.011384"
"0.001508","0.0139852","0.011658"
"0.001516","0.0137202","0.011889"
"0.001528","0.0135704","0.011951"
"0.001497","0.0135981","0.011754"
"0.001493","0.0136379","0.011492"
"0.001475","0.0136861","0.011323"
"0.001461","0.0136986","0.011138"
"0.001465","0.0137099","0.011029"
"0.001472","0.0136435","0.011120"
"0.001486","0.0135447","0.011476"
"0.001483","0.0134157","0.011953"
"0.001509","0.0131768","0.012424"
"0.001533","0.0129878","0.012689"
"0.001565","0.0128329","0.012856"
"0.001612","0.0126528","0.012901"
"0.001670","0.0124386","0.012785"
"0.001728","0.0122641","0.012683"
"0.001804","0.0119634","0.012770"
"0.001888","0.0116805","0.013139"
"0.002037","0.0114086","0.013595"
"0.002180","0.0111713","0.014009"
"0.002315","0.0109420","0.014337"
"0.002441","0.0107985","0.014537"
"0.002586","0.0108845","0.014417"
"0.002745","0.0109306","0.013967"
"0.002799","0.0110623","0.013392"
"0.002851","0.0112170","0.012836"
"0.002913","0.0113790","0.012371"
"0.002949","0.0116804","0.011928"
"0.002898","0.0121486","0.011471"
"0.002837","0.0126496","0.011243"
"0.002809","0.0130960","0.011058"
"0.002776","0.0135912","0.010657"
"0.002753","0.0141410","0.010130"
"0.002668","0.0144572","0.009601"
"0.002610","0.0146222","0.009202"
"0.002536","0.0148597","0.008808"
"0.002785","0.0149523","0.008501"
"0.003034","0.0148846","0.008433"
"0.003273","0.0147176","0.008451"
"0.003614","0.0146686","0.008477"
"0.003962","0.0146167","0.008370"
"0.004300","0.0145643","0.008189"
"0.004298","0.0146287","0.007942"
"0.004330","0.0145657","0.007761"
"0.004350","0.0145248","0.007565"
"0.004344","0.0143709","0.007494"
"0.004360","0.0141333","0.007599"
"0.004394","0.0137217","0.007805"
"0.004427","0.0133054","0.008017"
"0.004453","0.0130743","0.008076"
"0.004717","0.0127758","0.008110"
"0.004656","0.0125810","0.007980"
"0.004521","0.0126410","0.007711"
"0.004354","0.0128925","0.007496"
"0.004197","0.0130304","0.007484"
"0.004135","0.0131660","0.007845"
"0.003869","0.0132878","0.008334"
"0.003938","0.0132799","0.009035"
"0.004256","0.0131321","0.009811"
"0.004746","0.0129559","0.010597"
"0.005232","0.0129170","0.011110"
"0.005690","0.0129226","0.011420"
"0.006813","0.0129508","0.011663"
"0.008115","0.0129333","0.012089"
"0.009230","0.0127450","0.012864"
"0.009966","0.0125720","0.013686"
"0.010688","0.0124437","0.014805"
"0.011367","0.0120590","0.016160"
"0.011363","0.0117242","0.017468"
"0.011814","0.0113734","0.018894"
"0.012738","0.0110437","0.020401"
"0.014246","0.0106082","0.021885"
"0.016232","0.0097455","0.023988"
"0.018657","0.0089065","0.026362"
"0.021204","0.0081351","0.029809"
"0.024311","0.0074158","0.033018"
"0.026822","0.0068952","0.036073"
"0.028754","0.0063328","0.041038"
"0.030187","0.0060353","0.046899"
"0.031832","0.0061854","0.053422"
"0.034612","0.0064457","0.059238"
"0.037066","0.0065963","0.064421"
"0.039686","0.0066666","0.069948"
"0.043092","0.0071689","0.074661"
"0.046110","0.0078485","0.076991"
"0.048833","0.0085199","0.077940"
"0.050222","0.0092855","0.079149"
"0.050969","0.0102881","0.079678"
"0.050963","0.0113885","0.079830"
"0.050138","0.0124062","0.078431"
"0.048799","0.0130069","0.077956"
"0.048537","0.0135295","0.077835"
"0.047845","0.0141840","0.074567"
"0.048460","0.0146474","0.070645"
"0.049551","0.0147444","0.065692"
"0.049956","0.0145867","0.061369"
"0.050626","0.0144923","0.057100"
"0.052586","0.0144413","0.051432"
"0.055263","0.0137769","0.046355"
"0.057921","0.0131691","0.042519"
"0.058728","0.0127362","0.039642"
"0.060744","0.0123029","0.036693"
"0.062767","0.0119679","0.034110"
"0.064605","0.0115979","0.031798"
"0.065327","0.0114995","0.030018"
"0.065365","0.0117826","0.027662"
"0.064986","0.0119944","0.025172"
"0.065175","0.0122042","0.023869"
"0.064487","0.0125442","0.021697"
"0.062606","0.0130988","0.019439"
"0.060597","0.0137621","0.017323"
"0.059219","0.0142566","0.015782"
"0.057153","0.0145678","0.015427"
"0.053617","0.0149573","0.015477"
"0.049948","0.0150995","0.016300"
"0.048231","0.0149865","0.017165"
"0.046530","0.0148809","0.017649"
"0.044373","0.0148398","0.017735"
"0.042577","0.0148738","0.017464"
"0.042135","0.0147892","0.016691"
"0.042424","0.0147159","0.015910"
"0.042558","0.0147963","0.015241"
"0.042483","0.0149644","0.014547"
"0.042899","0.0151195","0.014090"
"0.043647","0.0151835","0.013719"
"0.044587","0.0151727","0.013208"
"0.044925","0.0153550","0.012525"
"0.045890","0.0156155","0.011385"
"0.047789","0.0157278","0.009937"
"0.049059","0.0159385","0.008609"
"0.049399","0.0162172","0.007355"
"0.049068","0.0165773","0.006319"
"0.049116","0.0169901","0.005279"
"0.048785","0.0173156","0.004509"
"0.047748","0.0177465","0.004212"
"0.046906","0.0180783","0.003926"
"0.045972","0.0183844","0.003566"
"0.046003","0.0183235","0.003215"
"0.045485","0.0181772","0.003072"
"0.045206","0.0180014","0.002949"
"0.044569","0.0181304","0.002819"
"0.043572","0.0181468","0.002718"
"0.041027","0.0182648","0.002779"
"0.038210","0.0184858","0.002941"
"0.035662","0.0186369","0.003082"
"0.034077","0.0188245","0.003082"
"0.032814","0.0188967","0.003000"
"0.031538","0.0188962","0.002940"
"0.030523","0.0190350","0.002763"
"0.030005","0.0190257","0.002603"
"0.028962","0.0191049","0.002550"
"0.027673","0.0193099","0.002689"
"0.025130","0.0200172","0.002904"
"0.022492","0.0207885","0.003105"
"0.019949","0.0215793","0.003317"
"0.017368","0.0223664","0.003460"
"0.015171","0.0233365","0.003484"
"0.013297","0.0243341","0.003329"
"0.011511","0.0249863","0.003153"
"0.010090","0.0255586","0.002971"
"0.008247","0.0260315","0.002882"
"0.006518","0.0262851","0.002946"
"0.005061","0.0264122","0.003108"
"0.003614","0.0267135","0.003206"
"0.002607","0.0271566","0.003237"
"0.001860","0.0275683","0.003194"
"0.001489","0.0280801","0.002915"
"0.001366","0.0283645","0.002644"
"0.001268","0.0286606","0.002293"
"0.001224","0.0288201","0.001939"
"0.001271","0.0282787","0.001855"
"0.001288","0.0276715","0.001910"
"0.001213","0.0272118","0.002042"
"0.001121","0.0268616","0.002211"
"0.001079","0.0265206","0.002407"
"0.000974","0.0265393","0.002401"
"0.000856","0.0267620","0.002369"
"0.000747","0.0269608","0.002362"
"0.000712","0.0265243","0.002613"
"0.000744","0.0260650","0.002838"
"0.000811","0.0252266","0.003094"
"0.000918","0.0241459","0.003365"
"0.000944","0.0236927","0.003337"
"0.000933","0.0232006","0.003444"
"0.000886","0.0234540","0.003400"
"0.000786","0.0241276","0.003204"
"0.000739","0.0241178","0.003231"
"0.000694","0.0238952","0.003593"
"0.000619","0.0236534","0.004190"
"0.000573","0.0234497","0.004784"
"0.000590","0.0232164","0.005288"
"0.000670","0.0227673","0.005453"
"0.000738","0.0223876","0.005407"
"0.000752","0.0222601","0.005181"
"0.000723","0.0220749","0.004986"
"0.000601","0.0225335","0.004654"
"0.000512","0.0228243","0.004389"
"0.000574","0.0221073","0.004612"
"0.000735","0.0210361","0.004969"
"0.000896","0.0193101","0.005588"
"0.001051","0.0176064","0.006243"
"0.001182","0.0165482","0.006599"
"0.001310","0.0156345","0.006617"
"0.001415","0.0150784","0.006302"
"0.001516","0.0145192","0.005959"
"0.001623","0.0137167","0.005917"
"0.001671","0.0131839","0.006215"
"0.001772","0.0125480","0.006607"
"0.001874","0.0120435","0.006969"
"0.002014","0.0113430","0.007283"
"0.002191","0.0104265","0.007656"
"0.002343","0.0096057","0.008061"
"0.002427","0.0091142","0.008393"
"0.002436","0.0090462","0.008492"
"0.002414","0.0090404","0.008828"
"0.002387","0.0090977","0.009133"
"0.002356","0.0091492","0.009681"
"0.002319","0.0091700","0.010428"
"0.002303","0.0091102","0.011065"
"0.002256","0.0091090","0.011855"
"0.002196","0.0091022","0.012613"
"0.002166","0.0090097","0.013171"
"0.002123","0.0090193","0.013585"
"0.002128","0.0089183","0.013963"
"0.002109","0.0089101","0.014348"
"0.002058","0.0089323","0.014883"
"0.001999","0.0089506","0.015579"
"0.001939","0.0090422","0.016014"
"0.001909","0.0090600","0.016576"
"0.001928","0.0089591","0.016436"
"0.001956","0.0088330","0.016161"
"0.002000","0.0087401","0.015564"
"0.002067","0.0086771","0.014838"
"0.002109","0.0086166","0.014510"
"0.002190","0.0084815","0.014050"
"0.002276","0.0083853","0.013586"
"0.002299","0.0085083","0.013075"
"0.002282","0.0086586","0.012604"
"0.002226","0.0088460","0.012209"
"0.002187","0.0089418","0.011902"
"0.002181","0.0089462","0.011720"
"0.002205","0.0089319","0.011421"
"0.002217","0.0090908","0.011151"
"0.002203","0.0093651","0.010639"
"0.002203","0.0095812","0.010309"
"0.002202","0.0097663","0.010172"
"0.002234","0.0097530","0.010220"
"0.002256","0.0097467","0.010267"
"0.002245","0.0099244","0.009899"
"0.002227","0.0101905","0.009529"
"0.002238","0.0103833","0.009354"
"0.002258","0.0104528","0.009348"
"0.002323","0.0103350","0.009472"
"0.002380","0.0102599","0.009486"
"0.002429","0.0103389","0.009368"
"0.002458","0.0103898","0.009149"
"0.002465","0.0104595","0.008989"
"0.002501","0.0102425","0.009066"
"0.002497","0.0102766","0.009103"
"0.002516","0.0104372","0.009233"
"0.002583","0.0104404","0.009579"
"0.002628","0.0105007","0.010032"
"0.002733","0.0105603","0.010418"
"0.002878","0.0105248","0.010693"
"0.003517","0.0103163","0.010805"
"0.004384","0.0101268","0.010777"
"0.006505","0.0096905","0.011736"
"0.010105","0.0092991","0.013703"
"0.013629","0.0090334","0.016039"
"0.016794","0.0087406","0.019570"
"0.019649","0.0086608","0.022556"
"0.023791","0.0082878","0.025457"
"0.029748","0.0076817","0.030190"
"0.035752","0.0067845","0.034693"
"0.041631","0.0058794","0.038610"
"0.047630","0.0052156","0.043158"
"0.053386","0.0046639","0.047779"
"0.059184","0.0040893","0.052407"
"0.064751","0.0035981","0.056884"
"0.068114","0.0033610","0.061584"
"0.070840","0.0032077","0.066314"
"0.072316","0.0033710","0.069963"
"0.072151","0.0037728","0.073391"
"0.071781","0.0042154","0.076107"
"0.070770","0.0046886","0.077569"
"0.070155","0.0050252","0.079382"
"0.068343","0.0054685","0.081626"
"0.064650","0.0061107","0.080978"
"0.061111","0.0067318","0.080408"
"0.057607","0.0073952","0.080440"
"0.053885","0.0080868","0.079533"
"0.050763","0.0087863","0.078229"
"0.048022","0.0094886","0.076762"
"0.045503","0.0100282","0.075628"
"0.044574","0.0103464","0.073291"
"0.044459","0.0105781","0.070010"
"0.044630","0.0107720","0.066317"
"0.044566","0.0109226","0.061773"
"0.045254","0.0110120","0.057036"
"0.047014","0.0111051","0.051984"
"0.048484","0.0112149","0.046895"
"0.049717","0.0114816","0.041271"
"0.051064","0.0119055","0.036529"
"0.052317","0.0123723","0.032035"
"0.053254","0.0128896","0.027642"
"0.054334","0.0133398","0.023238"
"0.055166","0.0137852","0.018926"
"0.055347","0.0142137","0.014837"
"0.055347","0.0145965","0.010858"
"0.055938","0.0149594","0.007918"
"0.055981","0.0153752","0.005858"
"0.055717","0.0157953","0.004291"
"0.055845","0.0162601","0.002759"
"0.055484","0.0166272","0.001878"
"0.054988","0.0168009","0.001476"
"0.054371","0.0169073","0.001149"
"0.053914","0.0168840","0.000878"
"0.053182","0.0167766","0.000702"
"0.052285","0.0165968","0.000619"
"0.051498","0.0163259","0.000542"
"0.050328","0.0161565","0.000505"
"0.048370","0.0161536","0.000538"
"0.045983","0.0161641","0.000655"
"0.043415","0.0161824","0.000827"
"0.040251","0.0162144","0.001094"
"0.037852","0.0160811","0.001341"
"0.035854","0.0159217","0.001520"
"0.033822","0.0157985","0.001658"
"0.031627","0.0157203","0.001793"
"0.029469","0.0157901","0.001906"
"0.027650","0.0159239","0.002002"
"0.025864","0.0162165","0.002086"
"0.024773","0.0164828","0.002128"
"0.023997","0.0167251","0.002135"
"0.023483","0.0169688","0.002081"
"0.023272","0.0170816","0.002005"
"0.023730","0.0170130","0.001940"
"0.024164","0.0170351","0.001832"
"0.024565","0.0170543","0.001728"
"0.024992","0.0171260","0.001638"
"0.024657","0.0176781","0.001435"
"0.023881","0.0183494","0.001258"
"0.023045","0.0191612","0.001120"
"0.022354","0.0200029","0.000985"
"0.021184","0.0209370","0.000906"
"0.019776","0.0218756","0.000971"
"0.018299","0.0228728","0.001129"
"0.016344","0.0240053","0.001308"
"0.014177","0.0252329","0.001467"
"0.011989","0.0264257","0.001695"
"0.009793","0.0276388","0.001950"
"0.007599","0.0289655","0.002185"
"0.006027","0.0299898","0.002499"
"0.004864","0.0309409","0.002806"
"0.003803","0.0316494","0.003215"
"0.002883","0.0318373","0.003801"
"0.002045","0.0317850","0.004391"
"0.001245","0.0314122","0.004857"
"0.000505","0.0307956","0.005284"
"0.000284","0.0299540","0.005691"
"0.000340","0.0290759","0.005967"
"0.000501","0.0281538","0.006091"
"0.000660","0.0271767","0.006195"
"0.000851","0.0260327","0.006323"
"0.001095","0.0246837","0.006472"
"0.001368","0.0232987","0.006628"
"0.001638","0.0218444","0.006712"
"0.001920","0.0206167","0.006682"
"0.002196","0.0195000","0.006562"
"0.002476","0.0186158","0.006298"
"0.002746","0.0178566","0.005987"
"0.002998","0.0172068","0.005714"
"0.003237","0.0166768","0.005533"
"0.003304","0.0164863","0.005397"
"0.003322","0.0164777","0.005291"
"0.003265","0.0167709","0.005154"
"0.003104","0.0173280","0.005006"
"0.003000","0.0175425","0.005045"
"0.002891","0.0176807","0.005014"
"0.002739","0.0179605","0.005120"
"0.002540","0.0182875","0.005323"
"0.002278","0.0186758","0.005533"
"0.002043","0.0190496","0.005567"
"0.001878","0.0191206","0.005623"
"0.001760","0.0189562","0.005811"
"0.001559","0.0193752","0.005902"
"0.001292","0.0199391","0.006092"
"0.001087","0.0202122","0.006387"
"0.001086","0.0199610","0.006478"
"0.001115","0.0196432","0.006465"
"0.001174","0.0189502","0.006571"
"0.001300","0.0177453","0.006844"
"0.001371","0.0171080","0.006811"
"0.001452","0.0165920","0.006934"
"0.001530","0.0159654","0.006959"
"0.001597","0.0152821","0.006873"
"0.001723","0.0145305","0.006794"
"0.001810","0.0137966","0.006909"
"0.002228","0.0133543","0.007025"
"0.002662","0.0131015","0.007044"
"0.002998","0.0123128","0.007130"
"0.003158","0.0113797","0.007193"
"0.003246","0.0108922","0.007200"
"0.003183","0.0110502","0.007598"
"0.003328","0.0110596","0.008457"
"0.003411","0.0114331","0.009718"
"0.003459","0.0120171","0.011461"
"0.003512","0.0124070","0.012846"
"0.004273","0.0124834","0.014055"
"0.005251","0.0127181","0.015304"
"0.006185","0.0130928","0.016295"
"0.006526","0.0134299","0.016290"
"0.006765","0.0136635","0.016127"
"0.006499","0.0141408","0.016199"
"0.006243","0.0148499","0.016412"
"0.006238","0.0154180","0.016464"
"0.006470","0.0157500","0.016811"
"0.006710","0.0157429","0.017149"
"0.007000","0.0154758","0.017348"
"0.006899","0.0153970","0.017011"
"0.006927","0.0150894","0.016181"
"0.006972","0.0147324","0.014441"
"0.007073","0.0143262","0.013138"
"0.006310","0.0144240","0.012279"
"0.005534","0.0145356","0.011268"
"0.004816","0.0143552","0.010358"
"0.004499","0.0144295","0.010323"
"0.004250","0.0147429","0.010465"
"0.004155","0.0145660","0.010390"
"0.003962","0.0143151","0.010233"
"0.003663","0.0140936","0.010475"
"0.003408","0.0139748","0.010461"
"0.003192","0.0138786","0.010347"
"0.002980","0.0139015","0.010066"
"0.002966","0.0137792","0.009722"
"0.002902","0.0136304","0.009670"
"0.003281","0.0136497","0.009814"
"0.003762","0.0136715","0.009918"
"0.005164","0.0134968","0.009376"
"0.006169","0.0133718","0.008906"
"0.006980","0.0134315","0.008605"
"0.007088","0.0130424","0.008655"
"0.007066","0.0128039","0.009444"
"0.007011","0.0128989","0.010367"
"0.007256","0.0126809","0.010865"
"0.007571","0.0126131","0.010632"
"0.007629","0.0126560","0.010194"
"0.007648","0.0127983","0.009900"
"0.007750","0.0126271","0.009958"
"0.007832","0.0126030","0.010207"
"0.007774","0.0127178","0.010108"
"0.007322","0.0125191","0.010200"
"0.006717","0.0123024","0.010263"
"0.005362","0.0120690","0.010920"
"0.004200","0.0117688","0.011892"
"0.003245","0.0115790","0.012774"
"0.003134","0.0117416","0.012785"
"0.003183","0.0116165","0.012060"
"0.003270","0.0111683","0.011327"
"0.003032","0.0112427","0.010776"
"0.002711","0.0113057","0.010865"
"0.002742","0.0112604","0.011256"
"0.002775","0.0114049","0.011556"
"0.002809","0.0114667","0.011443"
"0.002790","0.0113349","0.011505"
"0.002908","0.0109363","0.011641"
"0.002910","0.0109499","0.011571"
"0.003004","0.0111219","0.011642"
"0.003568","0.0113555","0.011441"
"0.004534","0.0114209","0.011249"
"0.006337","0.0113700","0.011475"
"0.008409","0.0112630","0.013404"
"0.015241","0.0106499","0.016512"
"0.022695","0.0102001","0.019347"
"0.030705","0.0094507","0.022181"
"0.039324","0.0087267","0.024809"
"0.048731","0.0079462","0.027592"
"0.058428","0.0069645","0.030848"
"0.067903","0.0062143","0.034361"
"0.077553","0.0055852","0.037418"
"0.087842","0.0050663","0.040433"
"0.098071","0.0042919","0.043464"
"0.106653","0.0035997","0.046585"
"0.113519","0.0030929","0.049708"
"0.120429","0.0028995","0.052068"
"0.126605","0.0027639","0.055385"
"0.132221","0.0026772","0.058170"
"0.132424","0.0031275","0.060086"
"0.131991","0.0035803","0.062249"
"0.130311","0.0040630","0.064440"
"0.127622","0.0045995","0.066100"
"0.124309","0.0053045","0.066882"
"0.120848","0.0060507","0.066906"
"0.117180","0.0068433","0.066751"
"0.113420","0.0076664","0.066649"
"0.108596","0.0084728","0.066499"
"0.103029","0.0092900","0.066488"
"0.098715","0.0099081","0.066052"
"0.094968","0.0105893","0.064640"
"0.090856","0.0111630","0.062290"
"0.086814","0.0116800","0.058255"
"0.083004","0.0121420","0.053374"
"0.079691","0.0127264","0.048048"
"0.076318","0.0134841","0.042602"
"0.073410","0.0143335","0.037306"
"0.071112","0.0150788","0.032541"
"0.068629","0.0157202","0.028313"
"0.065630","0.0163122","0.024689"
"0.063078","0.0169089","0.021194"
"0.061065","0.0176702","0.017919"
"0.059695","0.0185544","0.014746"
"0.059336","0.0193669","0.011534"
"0.059301","0.0201571","0.008643"
"0.059954","0.0208906","0.006664"
"0.060087","0.0218430","0.005923"
"0.059526","0.0229546","0.005548"
"0.058906","0.0240159","0.005517"
"0.058537","0.0250875","0.005461"
"0.058389","0.0261597","0.005425"
"0.059235","0.0270366","0.005361"
"0.059983","0.0279432","0.005245"
"0.060668","0.0288868","0.005050"
"0.061010","0.0298192","0.004575"
"0.061167","0.0305637","0.004070"
"0.061253","0.0310689","0.003580"
"0.061176","0.0315253","0.003065"
"0.060802","0.0321324","0.002598"
"0.060358","0.0325718","0.002128"
"0.059755","0.0331415","0.001683"
"0.059503","0.0336005","0.001322"
"0.059793","0.0337567","0.000981"
"0.059822","0.0338669","0.000654"
"0.058650","0.0341042","0.000458"
"0.056670","0.0343777","0.000248"
"0.053909","0.0347115","0.000054"
"0.051030","0.0350514","0.000000"
"0.048125","0.0354347","0.000000"
"0.045441","0.0358827","0.000000"
"0.042481","0.0365680","0.000000"
"0.038728","0.0374008","0.000000"
"0.034830","0.0382510","0.000000"
"0.031092","0.0388333","0.000000"
"0.027441","0.0392550","0.000000"
"0.023889","0.0392909","0.000000"
"0.020397","0.0392155","0.000000"
"0.016935","0.0389670","0.000039"
"0.013927","0.0386389","0.000206"
"0.012015","0.0380788","0.000391"
"0.010598","0.0374397","0.000581"
"0.009080","0.0367739","0.000796"
"0.007532","0.0359866","0.001024"
"0.005921","0.0350416","0.001330"
"0.004839","0.0338481","0.001754"
"0.004177","0.0323135","0.002280"
"0.003819","0.0305354","0.002852"
"0.003577","0.0286801","0.003422"
"0.003350","0.0269907","0.003992"
"0.003086","0.0256624","0.004572"
"0.002839","0.0244612","0.005142"
"0.002603","0.0232477","0.005664"
"0.002326","0.0222865","0.006097"
"0.002068","0.0212771","0.006391"
"0.001838","0.0201571","0.006707"
"0.001711","0.0189997","0.007135"
"0.001762","0.0178831","0.007578"
"0.001889","0.0168939","0.008011"
"0.002037","0.0161241","0.008479"
"0.002183","0.0155657","0.008916"
"0.002267","0.0153624","0.009368"
"0.002302","0.0153761","0.009878"
"0.002311","0.0154068","0.010476"
"0.002267","0.0155110","0.011074"
"0.002223","0.0156135","0.011627"
"0.002083","0.0160833","0.012171"
"0.001955","0.0166356","0.012541"
"0.001830","0.0172228","0.012839"
"0.001707","0.0180301","0.012778"
"0.001579","0.0187934","0.012666"
"0.001543","0.0191928","0.012487"
"0.001477","0.0194855","0.012306"
"0.001417","0.0197473","0.012032"
"0.001407","0.0196371","0.011773"
"0.001369","0.0194778","0.011528"
"0.001348","0.0191814","0.011164"
"0.001358","0.0189489","0.010656"
"0.001382","0.0186511","0.010087"
"0.001445","0.0182875","0.009608"
"0.001464","0.0180587","0.009273"
"0.001567","0.0175398","0.008997"
"0.001678","0.0168496","0.009016"
"0.001786","0.0162605","0.009104"
"0.001826","0.0156100","0.009529"
"0.001884","0.0149230","0.009759"
"0.001873","0.0145347","0.009887"
"0.001872","0.0142676","0.009962"
"0.001891","0.0138662","0.010177"
"0.001905","0.0138065","0.010268"
"0.001995","0.0137795","0.010209"
"0.002122","0.0137743","0.010222"
"0.002341","0.0136334","0.010246"
"0.002591","0.0135459","0.010245"
"0.002810","0.0134381","0.010096"
"0.003025","0.0132123","0.009791"
"0.003221","0.0128939","0.009407"
"0.003325","0.0126466","0.008977"
"0.003356","0.0123367","0.008541"
"0.003417","0.0119709","0.008175"
"0.003463","0.0116422","0.008173"
"0.003495","0.0113791","0.008253"
"0.003513","0.0111014","0.008345"
"0.003513","0.0109603","0.008406"
"0.003452","0.0108389","0.008484"
"0.003382","0.0107200","0.008529"
"0.003313","0.0106117","0.008461"
"0.003207","0.0104529","0.008438"
"0.003074","0.0102673","0.008452"
"0.002978","0.0100843","0.008489"
"0.002897","0.0098622","0.008619"
"0.002860","0.0096416","0.008852"
"0.002909","0.0094883","0.009032"
"0.003191","0.0094197","0.009221"
"0.003455","0.0095303","0.009326"
"0.003681","0.0099761","0.009205"
"0.003860","0.0104008","0.009111"
"0.004038","0.0108265","0.009121"
"0.003967","0.0112611","0.009436"
"0.003929","0.0115256","0.009833"
"0.003874","0.0115407","0.010544"
"0.003832","0.0115239","0.011242"
"0.003733","0.0115673","0.011947"
"0.003672","0.0115572","0.012448"
"0.003582","0.0115499","0.013038"
"0.003540","0.0115459","0.013467"
"0.003439","0.0116076","0.013885"
"0.003346","0.0116388","0.014240"
"0.003080","0.0116325","0.014619"
"0.002828","0.0115369","0.014938"
"0.002608","0.0111530","0.015289"
"0.002456","0.0107626","0.015410"
"0.002306","0.0104584","0.015404"
"0.002382","0.0102075","0.014953"
"0.002700","0.0100085","0.014372"
"0.003002","0.0100819","0.013544"
"0.003253","0.0103354","0.012772"
"0.003555","0.0105191","0.011969"
"0.003822","0.0106592","0.011404"
"0.003864","0.0108284","0.010796"
"0.003879","0.0111949","0.010255"
"0.003949","0.0113988","0.009648"
"0.003994","0.0115861","0.009153"
"0.004027","0.0117837","0.008648"
"0.004069","0.0119795","0.008189"
"0.004071","0.0122069","0.007743"
"0.004171","0.0125758","0.007426"
"0.004959","0.0128336","0.007149"
"0.005848","0.0130159","0.006991"
"0.006538","0.0132870","0.006851"
"0.007451","0.0133939","0.006771"
"0.008384","0.0135295","0.006736"
"0.009084","0.0137188","0.006634"
"0.010090","0.0139714","0.006436"
"0.011858","0.0141916","0.006413"
"0.013523","0.0142759","0.006551"
"0.015271","0.0141119","0.007533"
"0.016752","0.0140123","0.008775"
"0.018265","0.0138915","0.010130"
"0.019373","0.0136303","0.011649"
"0.021495","0.0132898","0.013272"
"0.024572","0.0126088","0.014636"
"0.027424","0.0118559","0.015846"
"0.030256","0.0111333","0.017572"
"0.033588","0.0104654","0.020306"
"0.037187","0.0098203","0.023325"
"0.040760","0.0091397","0.026400"
"0.044721","0.0085932","0.029475"
"0.048740","0.0081181","0.032556"
"0.052860","0.0076851","0.035314"
"0.057386","0.0071847","0.037527"
"0.062015","0.0069797","0.038219"
"0.065894","0.0069413","0.038361"
"0.068774","0.0070164","0.038100"
"0.071212","0.0071742","0.037523"
"0.072100","0.0072855","0.037358"
"0.072985","0.0074876","0.037863"
"0.074001","0.0076351","0.038662"
"0.074783","0.0077856","0.038875"
"0.075149","0.0078818","0.038404"
"0.075474","0.0080360","0.037548"
"0.076151","0.0080492","0.036587"
"0.077161","0.0079909","0.035464"
"0.078604","0.0080673","0.033675"
"0.077387","0.0083156","0.031765"
"0.074709","0.0086994","0.030100"
"0.072211","0.0090581","0.029095"
"0.070218","0.0093013","0.028117"
"0.069099","0.0094235","0.027364"
"0.069549","0.0093747","0.026808"
"0.070199","0.0093877","0.026049"
"0.069097","0.0094455","0.025262"
"0.067412","0.0096943","0.024292"
"0.066231","0.0099359","0.023352"
"0.065008","0.0101253","0.021981"
"0.065116","0.0101780","0.020444"
"0.065508","0.0102781","0.018718"
"0.064663","0.0104360","0.017124"
"0.062607","0.0105169","0.016029"
"0.062504","0.0106037","0.014929"
"0.063647","0.0105692","0.014111"
"0.064025","0.0106973","0.013377"
"0.064753","0.0109036","0.012899"
"0.063964","0.0112343","0.012701"
"0.061506","0.0118197","0.012605"
"0.060208","0.0125717","0.012108"
"0.059919","0.0133759","0.011290"
"0.059962","0.0140738","0.010523"
"0.060445","0.0147672","0.009511"
"0.061003","0.0154162","0.008586"
"0.059357","0.0163126","0.008153"
"0.057158","0.0173521","0.007915"
"0.056009","0.0181303","0.007833"
"0.054821","0.0187400","0.007989"
"0.054285","0.0191219","0.008274"
"0.053398","0.0194170","0.008470"
"0.051899","0.0197175","0.008656"
"0.050771","0.0198623","0.008707"
"0.051290","0.0197804","0.008329"
"0.052564","0.0194470","0.007836"
"0.053045","0.0190746","0.007398"
"0.052949","0.0188588","0.006928"
"0.052411","0.0187564","0.006415"
"0.051092","0.0185568","0.006177"
"0.049629","0.0182885","0.005998"
"0.048155","0.0180340","0.005587"
"0.046979","0.0175390","0.005128"
"0.045524","0.0171502","0.004569"
"0.044169","0.0168946","0.003956"
"0.042265","0.0165444","0.003499"
"0.040266","0.0162737","0.003098"
"0.039110","0.0159979","0.002670"
"0.038280","0.0157969","0.002311"
"0.037731","0.0157195","0.002143"
"0.037016","0.0158774","0.002028"
"0.036199","0.0161486","0.001960"
"0.036018","0.0162216","0.001929"
"0.036122","0.0162892","0.001906"
"0.035970","0.0165632","0.001836"
"0.035708","0.0172749","0.001688"
"0.035160","0.0179477","0.001500"
"0.034177","0.0185482","0.001360"
"0.033145","0.0191719","0.001266"
"0.032279","0.0195491","0.001252"
"0.030850","0.0200960","0.001241"
"0.029352","0.0206267","0.001249"
"0.027960","0.0210728","0.001246"
"0.026065","0.0211935","0.001386"
"0.023825","0.0213028","0.001615"
"0.021689","0.0213613","0.001851"
"0.019538","0.0215222","0.002043"
"0.016989","0.0217958","0.002205"
"0.014280","0.0220371","0.002384"
"0.011827","0.0222042","0.002561"
"0.009488","0.0220383","0.002808"
"0.007903","0.0217594","0.003073"
"0.006414","0.0215337","0.003332"
"0.004911","0.0213020","0.003605"
"0.003619","0.0209866","0.003882"
"0.002866","0.0206031","0.004166"
"0.002567","0.0201041","0.004413"
"0.002306","0.0195408","0.004726"
"0.002031","0.0191099","0.005004"
"0.001797","0.0186860","0.005343"
"0.001791","0.0182397","0.005793"
"0.001899","0.0175938","0.006332"
"0.002034","0.0169703","0.006794"
"0.002096","0.0165111","0.007395"
"0.002092","0.0162443","0.007964"
"0.002044","0.0159293","0.008447"
"0.001966","0.0158547","0.008868"
"0.001958","0.0156336","0.009050"
"0.002017","0.0151975","0.009271"
"0.002042","0.0149847","0.009396"
"0.002060","0.0146041","0.009534"
"0.002058","0.0142505","0.009701"
"0.002012","0.0140498","0.009864"
"0.001941","0.0139630","0.009997"
"0.001875","0.0138518","0.010032"
"0.001804","0.0138352","0.009785"
"0.001773","0.0137116","0.009363"
"0.001719","0.0135838","0.009050"
"0.001712","0.0134549","0.008588"
"0.001764","0.0131429","0.008256"
"0.001812","0.0130240","0.007941"
"0.001846","0.0128709","0.007637"
"0.001820","0.0128087","0.007572"
"0.001732","0.0130260","0.007394"
"0.001671","0.0130904","0.007281"
"0.001630","0.0132034","0.007182"
"0.001576","0.0134041","0.007058"
"0.001573","0.0134189","0.006931"
"0.001544","0.0135857","0.006783"
"0.001521","0.0137762","0.006648"
"0.001550","0.0137906","0.006666"
"0.001589","0.0137667","0.006803"
"0.001609","0.0136963","0.007384"
"0.001626","0.0134945","0.008060"
"0.001648","0.0132246","0.008663"
"0.001736","0.0127860","0.009145"
"0.001847","0.0122106","0.009469"
"0.001970","0.0117476","0.009743"
"0.002109","0.0112534","0.010021"
"0.002221","0.0109357","0.010193"
"0.002331","0.0107667","0.010264"
"0.002418","0.0106287","0.010216"
"0.002468","0.0105916","0.010194"
"0.002561","0.0103294","0.010202"
"0.002628","0.0100534","0.010179"
"0.002647","0.0099199","0.010162"
"0.002658","0.0098642","0.010138"
"0.002719","0.0097873","0.009661"
"0.002811","0.0096083","0.009265"
"0.002901","0.0094137","0.008963"
"0.002937","0.0093323","0.008807"
"0.002966","0.0092744","0.008894"
"0.002959","0.0092516","0.008979"
"0.002928","0.0091860","0.009039"
"0.002873","0.0091460","0.009096"
"0.002795","0.0091201","0.009082"
"0.002774","0.0090612","0.009136"
"0.002738","0.0092444","0.009070"
"0.002699","0.0096180","0.009067"
"0.002865","0.0101083","0.009065"
"0.002970","0.0107749","0.009273"
"0.003077","0.0112890","0.009488"
"0.003185","0.0116808","0.009624"
"0.003098","0.0119924","0.009560"
"0.003177","0.0122979","0.009371"
"0.003683","0.0125434","0.009205"
"0.004216","0.0128421","0.008943"
"0.004761","0.0130455","0.008612"
"0.005099","0.0132321","0.008310"
"0.005103","0.0135128","0.008087"
"0.005249","0.0137545","0.008060"
"0.005397","0.0139131","0.008084"
"0.005593","0.0137784","0.008230"
"0.005789","0.0134028","0.008438"
"0.005675","0.0129625","0.008711"
"0.005669","0.0122957","0.008740"
"0.005812","0.0119149","0.008675"
"0.005958","0.0116929","0.008522"
"0.006186","0.0117521","0.008295"
"0.006245","0.0117532","0.008115"
"0.005703","0.0117435","0.007949"
"0.005188","0.0116833","0.007798"
"0.004852","0.0115044","0.007811"
"0.004863","0.0112981","0.007905"
"0.005276","0.0110158","0.007967"
"0.005796","0.0108642","0.007973"
"0.006167","0.0109130","0.007878"
"0.006912","0.0109292","0.007668"
"0.007662","0.0110383","0.007556"
"0.008452","0.0111853","0.007443"
"0.009514","0.0112906","0.007404"
"0.010440","0.0112978","0.007479"
"0.011303","0.0112192","0.007661"
"0.012031","0.0109811","0.008336"
"0.013265","0.0107238","0.009494"
"0.014884","0.0105417","0.010706"
"0.017742","0.0102574","0.012342"
"0.020604","0.0101432","0.013885"
"0.023119","0.0103798","0.015407"
"0.026808","0.0105428","0.017390"
"0.028864","0.0105806","0.018953"
"0.031996","0.0104439","0.021115"
"0.035129","0.0103795","0.023205"
"0.038635","0.0104131","0.024863"
"0.041276","0.0104858","0.026293"
"0.043100","0.0106905","0.027203"
"0.044750","0.0108846","0.027939"
"0.047471","0.0110747","0.028599"
"0.050867","0.0112813","0.028905"
"0.054338","0.0115327","0.028848"
"0.057808","0.0116164","0.029230"
"0.059737","0.0118149","0.029347"
"0.060971","0.0122321","0.029241"
"0.062359","0.0123987","0.029071"
"0.062845","0.0125272","0.028439"
"0.065027","0.0125767","0.028368"
"0.065975","0.0125838","0.027893"
"0.067391","0.0124108","0.027477"
"0.068709","0.0120912","0.027293"
"0.071025","0.0116166","0.027333"
"0.072844","0.0111837","0.027919"
"0.074924","0.0106866","0.028776"
"0.075806","0.0102546","0.029817"
"0.076091","0.0099329","0.030374"
"0.075845","0.0096843","0.030597"
"0.075860","0.0095678","0.029991"
"0.076406","0.0093229","0.029103"
"0.077613","0.0088431","0.028464"
"0.078413","0.0084291","0.027753"
"0.078626","0.0082042","0.026949"
"0.077473","0.0081429","0.026078"
"0.076127","0.0082082","0.025076"
"0.073839","0.0085189","0.024072"
"0.071236","0.0089370","0.022910"
"0.068174","0.0094475","0.021608"
"0.065906","0.0099296","0.019943"
"0.063575","0.0105120","0.018089"
"0.061731","0.0111526","0.016094"
"0.059634","0.0116982","0.014592"
"0.057206","0.0122343","0.013235"
"0.054160","0.0127305","0.012205"
"0.050732","0.0132675","0.011370"
"0.047161","0.0137944","0.010576"
"0.044141","0.0142858","0.009915"
"0.041538","0.0147555","0.009358"
"0.040154","0.0151708","0.008732"
"0.039257","0.0155068","0.008139"
"0.039158","0.0158510","0.007481"
"0.039276","0.0161992","0.006926"
"0.039795","0.0164796","0.006434"
"0.040179","0.0165837","0.006224"
"0.040309","0.0165964","0.006127"
"0.040006","0.0165358","0.006099"
"0.039885","0.0164877","0.006010"
"0.040092","0.0166001","0.006125"
"0.040556","0.0168926","0.006224"
"0.041006","0.0173186","0.006414"
"0.041257","0.0178602","0.006654"
"0.041384","0.0183807","0.006802"
"0.041455","0.0188531","0.006902"
"0.040848","0.0192216","0.007069"
"0.039755","0.0196597","0.007223"
"0.037799","0.0200544","0.007501"
"0.035573","0.0204361","0.007817"
"0.033353","0.0208167","0.008181"
"0.031478","0.0212688","0.008570"
"0.029729","0.0217983","0.008943"
"0.027871","0.0224035","0.009140"
"0.026093","0.0229467","0.009267"
"0.024264","0.0232639","0.009121"
"0.022545","0.0233847","0.008847"
"0.021035","0.0234331","0.008441"
"0.019517","0.0234098","0.008000"
"0.017935","0.0233580","0.007639"
"0.016199","0.0232671","0.007341"
"0.014996","0.0232490","0.006920"
"0.014295","0.0232074","0.006457"
"0.013776","0.0232286","0.005955"
"0.013529","0.0232548","0.005363"
"0.013438","0.0232386","0.004752"
"0.013527","0.0230521","0.004150"
"0.014313","0.0226263","0.003539"
"0.015723","0.0220656","0.003092"
"0.017244","0.0215494","0.002726"
"0.018616","0.0210328","0.002556"
"0.019685","0.0205668","0.002545"
"0.020499","0.0201994","0.002518"
"0.021522","0.0198853","0.002449"
"0.022714","0.0195381","0.002401"
"0.023952","0.0192649","0.002304"
"0.025203","0.0189420","0.002256"
"0.026236","0.0186028","0.002262"
"0.027151","0.0182830","0.002247"
"0.028172","0.0178936","0.002289"
"0.028770","0.0176287","0.002341"
"0.028869","0.0175925","0.002350"
"0.028349","0.0177021","0.002383"
"0.027520","0.0178312","0.002437"
"0.026771","0.0179551","0.002471"
"0.026212","0.0180320","0.002498"
"0.025828","0.0179841","0.002535"
"0.025543","0.0177919","0.002607"
"0.024903","0.0176431","0.002670"
"0.024289","0.0175389","0.002703"
"0.023820","0.0174011","0.002707"
"0.022616","0.0171778","0.002758"
"0.021639","0.0167926","0.002854"
"0.021039","0.0163678","0.002913"
"0.020154","0.0158252","0.003091"
"0.020002","0.0153125","0.003172"
"0.019938","0.0147690","0.003307"
"0.019379","0.0142241","0.003575"
"0.018524","0.0136081","0.004154"
"0.017612","0.0129602","0.004680"
"0.016423","0.0124881","0.004861"
"0.015270","0.0121027","0.005040"
"0.014228","0.0118405","0.005126"
"0.013597","0.0114647","0.005179"
"0.012923","0.0110681","0.005202"
"0.012066","0.0106138","0.005328"
"0.011756","0.0102595","0.005484"
"0.011529","0.0099682","0.005588"
"0.010970","0.0096546","0.005760"
"0.010318","0.0095547","0.005806"
"0.009466","0.0094991","0.005861"
"0.008731","0.0093610","0.005928"
"0.008436","0.0092438","0.005864"
"0.008427","0.0094494","0.005443"
"0.008290","0.0100808","0.004973"
"0.008523","0.0104392","0.004870"
"0.008477","0.0108548","0.004997"
"0.008393","0.0111971","0.005314"
"0.008664","0.0120105","0.005535"
"0.008964","0.0125711","0.005521"
"0.008622","0.0132232","0.005558"
"0.009132","0.0138923","0.005536"
"0.009538","0.0149682","0.005373"
"0.009874","0.0160673","0.005177"
"0.009666","0.0167618","0.005218"
"0.009092","0.0175445","0.005390"
"0.008709","0.0183193","0.005365"
"0.008813","0.0189942","0.005193"
"0.008889","0.0192513","0.005141"
"0.009099","0.0192570","0.005151"
"0.009122","0.0191881","0.005179"
"0.009163","0.0188100","0.005057"
"0.009200","0.0185949","0.004946"
"0.008476","0.0182550","0.005582"
"0.007902","0.0181583","0.006445"
"0.008252","0.0178721","0.006813"
"0.007773","0.0174852","0.007141"
"0.006929","0.0171479","0.007966"
"0.006502","0.0166542","0.009008"
"0.006741","0.0163697","0.009852"
"0.006937","0.0160150","0.010523"
"0.007307","0.0157030","0.011226"
"0.007393","0.0157976","0.012217"
"0.007514","0.0161003","0.012880"
"0.007619","0.0160349","0.013505"
"0.007996","0.0162615","0.013472"
"0.008137","0.0169750","0.013306"
"0.008459","0.0172640","0.013449"
"0.009180","0.0171347","0.013401"
"0.009274","0.0170899","0.013264"
"0.008778","0.0169637","0.013140"
"0.008706","0.0172448","0.012813"
"0.009068","0.0171129","0.012128"
"0.009365","0.0169441","0.011424"
"0.009142","0.0171322","0.011382"
"0.008831","0.0172301","0.011688"
"0.008509","0.0172538","0.011998"
"0.008327","0.0169655","0.011562"
"0.008184","0.0168575","0.011314"
"0.007866","0.0167924","0.010919"
"0.007228","0.0163085","0.011657"
"0.006844","0.0158519","0.013298"
"0.006018","0.0160131","0.014764"
"0.005123","0.0163984","0.014949"
"0.004666","0.0167935","0.014821"
"0.004639","0.0170798","0.014877"
"0.004324","0.0167017","0.015842"
"0.003929","0.0163016","0.017106"
"0.003303","0.0161611","0.018393"
"0.003191","0.0159362","0.018212"
"0.003292","0.0157838","0.017284"
"0.003165","0.0156770","0.016384"
"0.002741","0.0153401","0.016416"
"0.002147","0.0148425","0.016919"
"0.001780","0.0144198","0.018028"
"0.001520","0.0143080","0.018144"
"0.001405","0.0140675","0.016942"
"0.001607","0.0133781","0.015616"
"0.001824","0.0124310","0.015283"
"0.001984","0.0115608","0.015161"
"0.002043","0.0109713","0.015587"
"0.002087","0.0107400","0.016142"
"0.002113","0.0105306","0.016649"
"0.002193","0.0104002","0.016224"
"0.002345","0.0101696","0.015891"
"0.004492","0.0094284","0.017162"
"0.008285","0.0086747","0.019538"
"0.012941","0.0081606","0.022723"
"0.018028","0.0077274","0.025346"
"0.023404","0.0074049","0.027416"
"0.028832","0.0071699","0.029893"
"0.034180","0.0067841","0.032977"
"0.039419","0.0064862","0.035977"
"0.044603","0.0063320","0.038798"
"0.049777","0.0060400","0.041778"
"0.054905","0.0059159","0.044096"
"0.059594","0.0059958","0.045065"
"0.063617","0.0062940","0.045304"
"0.067142","0.0064896","0.046175"
"0.070609","0.0066471","0.047626"
"0.072069","0.0071318","0.047970"
"0.071838","0.0078348","0.046971"
"0.070675","0.0087047","0.044224"
"0.068775","0.0094664","0.041380"
"0.066014","0.0102503","0.038585"
"0.062727","0.0110741","0.035859"
"0.059409","0.0119836","0.032909"
"0.056148","0.0129423","0.029709"
"0.052979","0.0139071","0.026482"
"0.049927","0.0148744","0.023274"
"0.047146","0.0157006","0.020344"
"0.044848","0.0163084","0.017903"
"0.043100","0.0168349","0.016082"
"0.041868","0.0173477","0.014417"
"0.040995","0.0178931","0.012836"
"0.040396","0.0185192","0.011377"
"0.039874","0.0190584","0.010214"
"0.039405","0.0193693","0.009630"
"0.039293","0.0196689","0.009270"
"0.039559","0.0199175","0.009035"
"0.039970","0.0201289","0.008818"
"0.040535","0.0203139","0.008639"
"0.041038","0.0204993","0.008579"
"0.041388","0.0207129","0.008556"
"0.041582","0.0208755","0.008598"
"0.041467","0.0210572","0.008708"
"0.041103","0.0213169","0.008870"
"0.040778","0.0216374","0.008846"
"0.040506","0.0218249","0.008602"
"0.039635","0.0220369","0.008321"
"0.037841","0.0225424","0.007835"
"0.035627","0.0230332","0.007234"
"0.033311","0.0235928","0.006638"
"0.030963","0.0243119","0.006013"
"0.028782","0.0251137","0.005412"
"0.026901","0.0261466","0.004765"
"0.024914","0.0272276","0.004134"
"0.022782","0.0282820","0.003580"
"0.020629","0.0292291","0.003081"
"0.018528","0.0301853","0.002584"
"0.016509","0.0312000","0.002065"
"0.014728","0.0321569","0.001517"
"0.013045","0.0329992","0.000979"
"0.011162","0.0338347","0.000625"
"0.009318","0.0345859","0.000317"
"0.008073","0.0350321","0.000125"
"0.007250","0.0351797","0.000057"
"0.006535","0.0353145","0.000005"
"0.005849","0.0352762","0.000016"
"0.005177","0.0350472","0.000077"
"0.004503","0.0344558","0.000184"
"0.003862","0.0335839","0.000375"
"0.003416","0.0326295","0.000627"
"0.003084","0.0316796","0.000946"
"0.002785","0.0307697","0.001254"
"0.002505","0.0298309","0.001562"
"0.002236","0.0288554","0.001890"
"0.001949","0.0278561","0.002229"
"0.001733","0.0268844","0.002596"
"0.001680","0.0259029","0.002967"
"0.001714","0.0247947","0.003371"
"0.001744","0.0236663","0.003868"
"0.001787","0.0224686","0.004414"
"0.001824","0.0213225","0.004924"
"0.001845","0.0203570","0.005365"
"0.001900","0.0195369","0.005739"
"0.001987","0.0189319","0.006027"
"0.002075","0.0183775","0.006262"
"0.002184","0.0178663","0.006443"
"0.002285","0.0173211","0.006616"
"0.002391","0.0167213","0.006784"
"0.002480","0.0161574","0.006951"
"0.002566","0.0156712","0.007179"
"0.002642","0.0152685","0.007463"
"0.002707","0.0149694","0.007746"
"0.002759","0.0147558","0.008028"
"0.002780","0.0147801","0.008232"
"0.002778","0.0149040","0.008437"
"0.002721","0.0150922","0.008940"
"0.002654","0.0152414","0.009532"
"0.002537","0.0154031","0.010352"
"0.002369","0.0156063","0.011361"
"0.002176","0.0159048","0.012582"
"0.001968","0.0162610","0.013820"
"0.001759","0.0166739","0.015019"
"0.001550","0.0172141","0.016192"
"0.001340","0.0177941","0.017361"
"0.001144","0.0183423","0.018441"
"0.000960","0.0186897","0.019275"
"0.000788","0.0189066","0.020049"
"0.000641","0.0191259","0.020704"
"0.000561","0.0192787","0.020944"
"0.000528","0.0193303","0.020792"
"0.000565","0.0192373","0.020340"
"0.000648","0.0190079","0.019826"
"0.000768","0.0186884","0.019119"
"0.000905","0.0184856","0.018171"
"0.001095","0.0182527","0.017052"
"0.001281","0.0179664","0.015958"
"0.001478","0.0175557","0.014922"
"0.001688","0.0169947","0.013871"
"0.001868","0.0164165","0.012772"
"0.002039","0.0158545","0.011769"
"0.002217","0.0154208","0.010997"
"0.002395","0.0148864","0.010387"
"0.002531","0.0143287","0.009797"
"0.002632","0.0138641","0.009551"
"0.002704","0.0134786","0.009622"
"0.002782","0.0131933","0.009760"
"0.002828","0.0130217","0.009926"
"0.002844","0.0128924","0.010163"
"0.002875","0.0126479","0.010628"
"0.002858","0.0123891","0.011128"
"0.002836","0.0121083","0.011612"
"0.002772","0.0119437","0.012150"
"0.002681","0.0119265","0.012825"
"0.002574","0.0118980","0.013649"
"0.002486","0.0118231","0.014361"
"0.002404","0.0117239","0.014817"
"0.002337","0.0117333","0.014939"
"0.002300","0.0117328","0.015162"
"0.002230","0.0117255","0.015520"
"0.002138","0.0116819","0.016052"
"0.002035","0.0115676","0.016458"
"0.001937","0.0114634","0.016827"
"0.001855","0.0113852","0.017169"
"0.001790","0.0112937","0.017350"
"0.001724","0.0112055","0.017466"
"0.001673","0.0111522","0.017472"
"0.001644","0.0110750","0.017400"
"0.001668","0.0108515","0.017182"
"0.001746","0.0106489","0.016861"
"0.001815","0.0104289","0.016593"
"0.001863","0.0102482","0.016645"
"0.001899","0.0101093","0.017009"
"0.001961","0.0099603","0.017332"
"0.002021","0.0097754","0.017539"
"0.002096","0.0096414","0.017488"
"0.002148","0.0095491","0.017490"
"0.002185","0.0095173","0.017417"
"0.002242","0.0094904","0.017214"
"0.002301","0.0094423","0.016874"
"0.002378","0.0093466","0.016376"
"0.002441","0.0092500","0.016030"
"0.002495","0.0092331","0.015662"
"0.002514","0.0093211","0.015305"
"0.002516","0.0094019","0.014904"
"0.002528","0.0094423","0.014386"
"0.002558","0.0094705","0.013703"
"0.002572","0.0095104","0.012929"
"0.002578","0.0096070","0.012116"
"0.002609","0.0097103","0.011295"
"0.002627","0.0098445","0.010568"
"0.002646","0.0101117","0.009904"
"0.002680","0.0103665","0.009360"
"0.002817","0.0108104","0.008779"
"0.003051","0.0113750","0.008305"
"0.003306","0.0119377","0.007990"
"0.003547","0.0125533","0.007584"
"0.003805","0.0130818","0.007228"
"0.004093","0.0133610","0.007002"
"0.004362","0.0136232","0.006891"
"0.004618","0.0139397","0.006866"
"0.004737","0.0141246","0.007007"
"0.004798","0.0144535","0.007132"
"0.004974","0.0147882","0.007258"
"0.005270","0.0151532","0.007495"
"0.005564","0.0157019","0.007687"
"0.005860","0.0161623","0.007953"
"0.006141","0.0165795","0.008197"
"0.006275","0.0167536","0.008512"
"0.006279","0.0166406","0.008861"
"0.006258","0.0164859","0.009210"
"0.006052","0.0161806","0.009593"
"0.005745","0.0158199","0.010031"
"0.005419","0.0155437","0.010369"
"0.005324","0.0153637","0.010486"
"0.005366","0.0152339","0.010581"
"0.005856","0.0151776","0.010660"
"0.006719","0.0148551","0.011097"
"0.008358","0.0144384","0.012320"
"0.010010","0.0141133","0.013862"
"0.012422","0.0135239","0.015583"
"0.015086","0.0128289","0.017266"
"0.017947","0.0120818","0.019131"
"0.020848","0.0114465","0.021232"
"0.023381","0.0110633","0.023803"
"0.025370","0.0107790","0.026516"
"0.027537","0.0106397","0.029268"
"0.029754","0.0103908","0.032259"
"0.031872","0.0102769","0.035189"
"0.034382","0.0099649","0.038183"
"0.036986","0.0094659","0.041403"
"0.039234","0.0092318","0.043995"
"0.041395","0.0089893","0.046351"
"0.042293","0.0086886","0.047618"
"0.043329","0.0083509","0.048549"
"0.043958","0.0081316","0.049439"
"0.043864","0.0082854","0.050010"
"0.043532","0.0085616","0.049956"
"0.043337","0.0087855","0.048957"
"0.043544","0.0090897","0.046974"
"0.044322","0.0094559","0.045093"
"0.044427","0.0098830","0.043319"
"0.045198","0.0104067","0.041040"
"0.046409","0.0106890","0.038873"
"0.047879","0.0110607","0.036784"
"0.048831","0.0116625","0.034722"
"0.049202","0.0120230","0.033003"
"0.049273","0.0123000","0.031274"
"0.048619","0.0126201","0.029879"
"0.047688","0.0128645","0.028344"
"0.045890","0.0130377","0.027092"
"0.044685","0.0128999","0.025840"
"0.043703","0.0129213","0.025030"
"0.042835","0.0129808","0.024782"
"0.042556","0.0128348","0.024903"
"0.042868","0.0127505","0.024591"
"0.044137","0.0126987","0.024076"
"0.044581","0.0128123","0.023966"
"0.045160","0.0128959","0.023876"
"0.044711","0.0128720","0.023958"
"0.044016","0.0128608","0.023913"
"0.042947","0.0129130","0.024215"
"0.042087","0.0129213","0.024411"
"0.042422","0.0129970","0.024312"
"0.042382","0.0131678","0.024010"
"0.042834","0.0134809","0.022735"
"0.043465","0.0138905","0.021616"
"0.044242","0.0141497","0.020247"
"0.045673","0.0142483","0.019032"
"0.045951","0.0144000","0.018008"
"0.045317","0.0144217","0.017176"
"0.045111","0.0143151","0.016332"
"0.045134","0.0141050","0.015229"
"0.044576","0.0140480","0.014165"
"0.043223","0.0141843","0.012913"
"0.042346","0.0142616","0.011486"
"0.042308","0.0143641","0.009869"
"0.042369","0.0147056","0.008232"
"0.041883","0.0150066","0.007020"
"0.041966","0.0151789","0.006010"
"0.042568","0.0151607","0.005471"
"0.042643","0.0151848","0.005027"
"0.042614","0.0151229","0.004806"
"0.041691","0.0151776","0.004710"
"0.041760","0.0150924","0.004525"
"0.042088","0.0151623","0.004311"
"0.040945","0.0153113","0.004239"
"0.039874","0.0154703","0.004330"
"0.039168","0.0156526","0.004331"
"0.039523","0.0157898","0.004267"
"0.039670","0.0159574","0.004293"
"0.040003","0.0158265","0.004347"
"0.040491","0.0156522","0.004383"
"0.041645","0.0155170","0.004244"
"0.042488","0.0154651","0.004180"
"0.042828","0.0155634","0.004159"
"0.042483","0.0156178","0.004211"
"0.041510","0.0157406","0.004317"
"0.040730","0.0159910","0.004287"
"0.039238","0.0163593","0.004309"
"0.037691","0.0166216","0.004248"
"0.036974","0.0166525","0.004128"
"0.035906","0.0166569","0.003948"
"0.034508","0.0169497","0.003683"
"0.033118","0.0173671","0.003417"
"0.031522","0.0178865","0.003249"
"0.029708","0.0191308","0.003061"
"0.027253","0.0203761","0.003008"
"0.024572","0.0215854","0.003029"
"0.021995","0.0227503","0.003040"
"0.019409","0.0237119","0.003164"
"0.017308","0.0244448","0.003282"
"0.015690","0.0247252","0.003308"
"0.013888","0.0246836","0.003334"
"0.012375","0.0248121","0.003281"
"0.011227","0.0247561","0.003328"
"0.010039","0.0248778","0.003346"
"0.009036","0.0253777","0.003194"
"0.008110","0.0256165","0.003143"
"0.007099","0.0256099","0.003235"
"0.006554","0.0255600","0.003165"
"0.005861","0.0250004","0.003180"
"0.005375","0.0245718","0.003083"
"0.004959","0.0238863","0.003102"
"0.004514","0.0233266","0.003147"
"0.004087","0.0230458","0.003057"
"0.004116","0.0226578","0.002987"
"0.004047","0.0225623","0.003229"
"0.003970","0.0225573","0.003558"
"0.003868","0.0221552","0.004065"
"0.003456","0.0218590","0.004833"
"0.002983","0.0217874","0.005519"
"0.002612","0.0211821","0.006304"
"0.002239","0.0206158","0.007035"
"0.001860","0.0201707","0.007396"
"0.001541","0.0193891","0.007658"
"0.001554","0.0186886","0.007937"
"0.001606","0.0179374","0.008354"
"0.001563","0.0175531","0.008662"
"0.001538","0.0170937","0.008927"
"0.001528","0.0163720","0.009275"
"0.001485","0.0158626","0.009507"
"0.001475","0.0154122","0.009740"
"0.001439","0.0149336","0.010171"
"0.001402","0.0147821","0.010462"
"0.001388","0.0147399","0.010455"
"0.001459","0.0143153","0.010254"
"0.001535","0.0140149","0.009879"
"0.001607","0.0137396","0.009508"
"0.001664","0.0135839","0.009344"
"0.001690","0.0136509","0.009333"
"0.001713","0.0137524","0.009195"
"0.001750","0.0137497","0.008925"
"0.001822","0.0135205","0.008700"
"0.001862","0.0132961","0.008564"
"0.001886","0.0130857","0.008570"
"0.001929","0.0129242","0.008643"
"0.001994","0.0127036","0.008524"
"0.002103","0.0125595","0.008119"
"0.002218","0.0123466","0.007669"
"0.002339","0.0119612","0.007267"
"0.002429","0.0117097","0.007139"
"0.002440","0.0115327","0.007499"
"0.002416","0.0114258","0.007850"
"0.002385","0.0112141","0.008283"
"0.002336","0.0109555","0.008631"
"0.002314","0.0105458","0.008797"
"0.002314","0.0101413","0.009010"
"0.002331","0.0099600","0.009207"
"0.002403","0.0097226","0.009358"
"0.002490","0.0095928","0.009471"
"0.002553","0.0095150","0.009828"
"0.002540","0.0094989","0.010325"
"0.002396","0.0097791","0.011207"
"0.002246","0.0101445","0.012243"
"0.002146","0.0104568","0.012929"
"0.002044","0.0108189","0.013509"
"0.002234","0.0109315","0.013667"
"0.002520","0.0108926","0.014290"
"0.002756","0.0109704","0.015378"
"0.002983","0.0112518","0.016462"
"0.002936","0.0116215","0.017823"
"0.002850","0.0121048","0.018860"
"0.002753","0.0123812","0.019679"
"0.002682","0.0125751","0.020509"
"0.002608","0.0127711","0.021002"
"0.002556","0.0128879","0.020907"
"0.002594","0.0129897","0.020529"
"0.002666","0.0129027","0.019715"
"0.002722","0.0128780","0.018739"
"0.002732","0.0129701","0.018009"
"0.002737","0.0129834","0.017355"
"0.002551","0.0130288","0.016827"
"0.002308","0.0130384","0.015877"
"0.002110","0.0130681","0.014409"
"0.001902","0.0130334","0.012969"
"0.001931","0.0129277","0.011468"
"0.002000","0.0126434","0.010286"
"0.002240","0.0124003","0.009280"
"0.002460","0.0123871","0.008387"
"0.002594","0.0125880","0.008036"
"0.002721","0.0128301","0.008032"
"0.002604","0.0131000","0.008104"
"0.002556","0.0130827","0.008199"
"0.002606","0.0127643","0.008055"
"0.002651","0.0124109","0.007969"
"0.003098","0.0121986","0.007965"
"0.003617","0.0120924","0.008092"
"0.004119","0.0121029","0.008419"
"0.004602","0.0120838","0.009180"
"0.004693","0.0119013","0.010157"
"0.005190","0.0116968","0.011633"
"0.006377","0.0115521","0.013008"
"0.007467","0.0114681","0.014012"
"0.008472","0.0112446","0.014635"
"0.009649","0.0107638","0.014545"
"0.010218","0.0103177","0.014787"
"0.011070","0.0098973","0.015256"
"0.012639","0.0096292","0.016271"
"0.014772","0.0094914","0.017617"
"0.017455","0.0093108","0.018877"
"0.020435","0.0089499","0.020482"
"0.024428","0.0085916","0.021511"
"0.028131","0.0081632","0.023636"
"0.031529","0.0077659","0.025543"
"0.037294","0.0071826","0.027947"
"0.041587","0.0067969","0.030652"
"0.044673","0.0065334","0.033745"
"0.047318","0.0062555","0.037398"
"0.049953","0.0060164","0.040957"
"0.052618","0.0058327","0.044705"
"0.056146","0.0054318","0.048271"
"0.059951","0.0048942","0.052899"
"0.061750","0.0044930","0.057918"
"0.062005","0.0041956","0.063535"
"0.061651","0.0040075","0.069459"
"0.061861","0.0037864","0.074786"
"0.061714","0.0037967","0.080015"
"0.062062","0.0039855","0.083301"
"0.062562","0.0040986","0.086330"
"0.061030","0.0045527","0.088591"
"0.060348","0.0051102","0.088436"
"0.060108","0.0056523","0.087337"
"0.060157","0.0064284","0.085376"
"0.060696","0.0071249","0.082584"
"0.061070","0.0077973","0.079807"
"0.061264","0.0085995","0.076964"
"0.061438","0.0094677","0.072851"
"0.062626","0.0102150","0.067882"
"0.064499","0.0108138","0.062305"
"0.066410","0.0112737","0.056519"
"0.067310","0.0118723","0.050237"
"0.067851","0.0121589","0.044356"
"0.068104","0.0122222","0.039290"
"0.067983","0.0122756","0.034372"
"0.067222","0.0123599","0.029389"
"0.066020","0.0123807","0.025969"
"0.065185","0.0123938","0.023122"
"0.064599","0.0122673","0.020840"
"0.063497","0.0122968","0.019762"
"0.063029","0.0122450","0.019054"
"0.062248","0.0122391","0.018301"
"0.061077","0.0123245","0.017366"
"0.059735","0.0124873","0.016417"
"0.058305","0.0126855","0.015576"
"0.056815","0.0128908","0.014948"
"0.054920","0.0130193","0.015075"
"0.052635","0.0134138","0.015310"
"0.051724","0.0137177","0.015229"
"0.051079","0.0140435","0.014913"
"0.051480","0.0143050","0.014582"
"0.052388","0.0144105","0.014224"
"0.053058","0.0144500","0.013872"
"0.053641","0.0144246","0.013456"
"0.054533","0.0143257","0.012805"
"0.054841","0.0143573","0.011872"
"0.055925","0.0142061","0.010839"
"0.055912","0.0141915","0.009955"
"0.055953","0.0142035","0.009080"
"0.055534","0.0141625","0.008122"
"0.054881","0.0142126","0.006983"
"0.054404","0.0142524","0.005781"
"0.053744","0.0141893","0.004646"
"0.051507","0.0144693","0.003612"
"0.049678","0.0145976","0.002757"
"0.046927","0.0146899","0.002174"
"0.044133","0.0148318","0.001672"
"0.041178","0.0150640","0.001255"
"0.038135","0.0153097","0.001041"
"0.034939","0.0155747","0.001028"
"0.032067","0.0158959","0.001097"
"0.028753","0.0164000","0.001172"
"0.026609","0.0166144","0.001294"
"0.024744","0.0168801","0.001429"
"0.023378","0.0172301","0.001549"
"0.022263","0.0177500","0.001582"
"0.021206","0.0182425","0.001618"
"0.020275","0.0186623","0.001638"
"0.019563","0.0188680","0.001727"
"0.018235","0.0192217","0.001882"
"0.017224","0.0198598","0.001896"
"0.016366","0.0206439","0.001864"
"0.015586","0.0211953","0.001888"
"0.014718","0.0217752","0.002079"
"0.013783","0.0221207","0.002542"
"0.012387","0.0224333","0.003040"
"0.010838","0.0227408","0.003545"
"0.009467","0.0232585","0.003965"
"0.008336","0.0235516","0.004408"
"0.007518","0.0235839","0.004903"
"0.006778","0.0232213","0.005529"
"0.005958","0.0229087","0.006118"
"0.005183","0.0228543","0.006461"
"0.004496","0.0229005","0.006628"
"0.004306","0.0230579","0.006616"
"0.004372","0.0230838","0.006612"
"0.004317","0.0228939","0.006652"
"0.004133","0.0230496","0.006545"
"0.004049","0.0232068","0.006224"
"0.003984","0.0235577","0.005662"
"0.004057","0.0238775","0.005153"
"0.004211","0.0240441","0.004701"
"0.004174","0.0240060","0.004296"
"0.004041","0.0237728","0.003996"
"0.003888","0.0235496","0.003717"
"0.003713","0.0236335","0.003366"
"0.003477","0.0235021","0.003175"
"0.003184","0.0233892","0.003168"
"0.002836","0.0235617","0.003191"
"0.002457","0.0238546","0.003219"
"0.002064","0.0242090","0.003160"
"0.001835","0.0253367","0.003042"
"0.001738","0.0261339","0.002993"
"0.001618","0.0270569","0.002946"
"0.001481","0.0273373","0.002975"
"0.001347","0.0270795","0.003147"
"0.001177","0.0272982","0.003057"
"0.001015","0.0275946","0.002920"
"0.000814","0.0285356","0.002642"
"0.000683","0.0287302","0.002466"
"0.000548","0.0289170","0.002279"
"0.000464","0.0294205","0.001942"
"0.000404","0.0298555","0.001693"
"0.000332","0.0299001","0.001764"
"0.000297","0.0298123","0.002026"
"0.000377","0.0287362","0.002691"
"0.000466","0.0268744","0.003418"
"0.000523","0.0255767","0.003699"
"0.000589","0.0240765","0.003904"
"0.000663","0.0232102","0.003967"
"0.000725","0.0228631","0.003846"
"0.000873","0.0215928","0.004179"
"0.001002","0.0203459","0.004563"
"0.001142","0.0187825","0.004988"
"0.001153","0.0184645","0.005136"
"0.001184","0.0181017","0.005341"
"0.001226","0.0176107","0.005558"
"0.001320","0.0168294","0.005771"
"0.001517","0.0157942","0.005904"
"0.001731","0.0146324","0.005964"
"0.001854","0.0142626","0.005757"
"0.001967","0.0138817","0.005524"
"0.002085","0.0131145","0.005719"
"0.002187","0.0123868","0.006012"
"0.002230","0.0119876","0.006266"
"0.002288","0.0115277","0.006567"
"0.002285","0.0116475","0.006582"
"0.002333","0.0116569","0.006647"
"0.002396","0.0115423","0.006719"
"0.002433","0.0113611","0.006967"
"0.002719","0.0114224","0.007313"
"0.003120","0.0115010","0.007720"
"0.003490","0.0116923","0.008131"
"0.003780","0.0119185","0.008727"
"0.003660","0.0120930","0.009386"
"0.003556","0.0122771","0.010050"
"0.003496","0.0126492","0.010762"
"0.003569","0.0130845","0.011554"
"0.003776","0.0135899","0.012254"
"0.003905","0.0140841","0.012820"
"0.004107","0.0143545","0.012887"
"0.004103","0.0145728","0.012911"
"0.004136","0.0146154","0.013253"
"0.004161","0.0144910","0.013952"
"0.004312","0.0142388","0.014624"
"0.004172","0.0137304","0.015020"
"0.003915","0.0133598","0.015123"
"0.003584","0.0131698","0.015094"
"0.003330","0.0132009","0.014738"
"0.003634","0.0131981","0.014278"
"0.004154","0.0129038","0.013693"
"0.004640","0.0125021","0.013056"
"0.004806","0.0120466","0.012318"
"0.004642","0.0118702","0.011605"
"0.004516","0.0115136","0.011022"
"0.004305","0.0114153","0.010867"
"0.004246","0.0113987","0.011104"
"0.004193","0.0113483","0.011109"
"0.004191","0.0114681","0.010832"
"0.004138","0.0114781","0.010371"
"0.004160","0.0114340","0.010055"
"0.004068","0.0113955","0.009871"
"0.004025","0.0113237","0.009628"
"0.003940","0.0114018","0.009403"
"0.003718","0.0113846","0.009427"
"0.003279","0.0115424","0.009813"
"0.002842","0.0115467","0.010236"
"0.002599","0.0115582","0.010508"
"0.002531","0.0113567","0.010507"
"0.002557","0.0110508","0.010716"
"0.002580","0.0107856","0.010991"
"0.002665","0.0104744","0.011065"
"0.002699","0.0103933","0.010956"
"0.002636","0.0105269","0.010647"
"0.002558","0.0107762","0.010493"
"0.002447","0.0110106","0.010592"
"0.002637","0.0110373","0.011001"
"0.002898","0.0108581","0.011967"
"0.004238","0.0105377","0.013238"
"0.006167","0.0104850","0.014413"
"0.008072","0.0104133","0.015605"
"0.009763","0.0100909","0.017903"
"0.011751","0.0100821","0.020473"
"0.013915","0.0095477","0.024070"
"0.019328","0.0088542","0.027123"
"0.024692","0.0081812","0.029586"
"0.029733","0.0075027","0.031958"
"0.035330","0.0069663","0.034076"
"0.042269","0.0063738","0.035652"
"0.049945","0.0056869","0.037074"
"0.057623","0.0050958","0.039140"
"0.065617","0.0046364","0.041098"
"0.073441","0.0044292","0.042433"
"0.079017","0.0043435","0.043541"
"0.083124","0.0041724","0.044384"
"0.087131","0.0041862","0.044544"
"0.091454","0.0045129","0.043502"
"0.095584","0.0045006","0.042576"
"0.099541","0.0049366","0.041040"
"0.100376","0.0054768","0.039863"
"0.100493","0.0060791","0.039340"
"0.100858","0.0067333","0.038983"
"0.100648","0.0073728","0.038827"
"0.098784","0.0079354","0.038503"
"0.095091","0.0085042","0.038351"
"0.091063","0.0089759","0.037336"
"0.086400","0.0094215","0.036108"
"0.082138","0.0097295","0.035031"
"0.079302","0.0099824","0.033829"
"0.077110","0.0102112","0.032637"
"0.075009","0.0103675","0.031660"
"0.072908","0.0105663","0.030647"
"0.070383","0.0108471","0.029386"
"0.067408","0.0110880","0.027991"
"0.063293","0.0114404","0.026447"
"0.059937","0.0116777","0.024581"
"0.056796","0.0119332","0.022362"
"0.053765","0.0122968","0.020140"
"0.051294","0.0127618","0.018628"
"0.049775","0.0132253","0.017016"
"0.048150","0.0137456","0.015334"
"0.046496","0.0142268","0.013789"
"0.044452","0.0146489","0.012356"
"0.042551","0.0150409","0.010918"
"0.042367","0.0152270","0.009499"
"0.042755","0.0154704","0.008208"
"0.043019","0.0157499","0.006985"
"0.043663","0.0159547","0.005799"
"0.044573","0.0162055","0.004650"
"0.046662","0.0163590","0.003722"
"0.048649","0.0165442","0.003024"
"0.050296","0.0167622","0.002507"
"0.051894","0.0169165","0.002080"
"0.053256","0.0171223","0.001731"
"0.054675","0.0174068","0.001418"
"0.056460","0.0177334","0.001136"
"0.057806","0.0181265","0.000835"
"0.057935","0.0186252","0.000589"
"0.058450","0.0190329","0.000340"
"0.058595","0.0195104","0.000191"
"0.058364","0.0199114","0.000133"
"0.057973","0.0203316","0.000120"
"0.057314","0.0208066","0.000120"
"0.056988","0.0211005","0.000120"
"0.056719","0.0213676","0.000120"
"0.056560","0.0217527","0.000120"
"0.056695","0.0219410","0.000120"
"0.056775","0.0221008","0.000120"
"0.056506","0.0221604","0.000120"
"0.055992","0.0222078","0.000120"
"0.055437","0.0223352","0.000120"
"0.053829","0.0226710","0.000120"
"0.052753","0.0230236","0.000033"
"0.050729","0.0235336","0.000000"
"0.047544","0.0239998","0.000011"
"0.044179","0.0244814","0.000039"
"0.040639","0.0250257","0.000070"
"0.037138","0.0255437","0.000111"
"0.033346","0.0260155","0.000223"
"0.029247","0.0265913","0.000300"
"0.025178","0.0268544","0.000412"
"0.020987","0.0272047","0.000550"
"0.016791","0.0274279","0.000743"
"0.012997","0.0274506","0.000999"
"0.009549","0.0272156","0.001372"
"0.006247","0.0266942","0.001757"
"0.004621","0.0258466","0.002155"
"0.003774","0.0249184","0.002644"
"0.003060","0.0239242","0.003257"
"0.002364","0.0229686","0.003930"
"0.001688","0.0219183","0.004721"
"0.001363","0.0206755","0.005545"
"0.001238","0.0193825","0.006399"
"0.001368","0.0183046","0.007215"
"0.001603","0.0172380","0.008158"
"0.001804","0.0163305","0.009082"
"0.001986","0.0155049","0.009998"
"0.002108","0.0148943","0.011035"
"0.002167","0.0145381","0.012117"
"0.002219","0.0143837","0.013077"
"0.002247","0.0144309","0.013909"
"0.002255","0.0146242","0.014628"
"0.002292","0.0148489","0.015164"
"0.002337","0.0151682","0.015540"
"0.002389","0.0156509","0.015798"
"0.002398","0.0162007","0.015940"
"0.002324","0.0168240","0.015619"
"0.002265","0.0175947","0.014988"
"0.002140","0.0182958","0.014267"
"0.001979","0.0189830","0.013376"
"0.001851","0.0193886","0.012581"
"0.001768","0.0194570","0.011876"
"0.001770","0.0193276","0.011027"
