"1 Chan 1","2 Chan 2","3 Chan 3"
"0.00896","0.004197","0.005664"
"0.00879","0.004144","0.005748"
"0.00858","0.004093","0.005804"
"0.00836","0.004055","0.005861"
"0.00815","0.004027","0.005922"
"0.00796","0.003988","0.005973"
"0.00779","0.003942","0.006022"
"0.00762","0.003901","0.006077"
"0.00747","0.003854","0.006119"
"0.00732","0.003800","0.006134"
"0.00719","0.003720","0.006133"
"0.00705","0.003636","0.006108"
"0.00692","0.003513","0.006051"
"0.00681","0.003380","0.005963"
"0.00674","0.003231","0.005852"
"0.00668","0.003086","0.005715"
"0.00668","0.002955","0.005599"
"0.00668","0.002875","0.005476"
"0.00670","0.002827","0.005366"
"0.00672","0.002810","0.005275"
"0.00673","0.002808","0.005182"
"0.00673","0.002839","0.005088"
"0.00674","0.002872","0.005015"
"0.00677","0.002896","0.004972"
"0.00681","0.002919","0.004928"
"0.00686","0.002938","0.004875"
"0.00689","0.002953","0.004831"
"0.00691","0.002977","0.004794"
"0.00692","0.002995","0.004760"
"0.00691","0.003015","0.004733"
"0.00690","0.003028","0.004708"
"0.00689","0.003041","0.004686"
"0.00688","0.003063","0.004668"
"0.00688","0.003094","0.004649"
"0.00685","0.003128","0.004617"
"0.00684","0.003171","0.004583"
"0.00683","0.003207","0.004555"
"0.00682","0.003247","0.004525"
"0.00679","0.003290","0.004500"
"0.00677","0.003322","0.004477"
"0.00673","0.003330","0.004463"
"0.00671","0.003339","0.004444"
"0.00669","0.003382","0.004423"
"0.00666","0.003434","0.004410"
"0.00664","0.003489","0.004401"
"0.00662","0.003541","0.004393"
"0.00659","0.003600","0.004390"
"0.00657","0.003653","0.004393"
"0.00655","0.003649","0.004391"
"0.00652","0.003645","0.004371"
"0.00649","0.003636","0.004352"
"0.00647","0.003632","0.004330"
"0.00646","0.003626","0.004310"
"0.00645","0.003611","0.004284"
"0.00644","0.003583","0.004279"
"0.00644","0.003556","0.004278"
"0.00645","0.003524","0.004275"
"0.00647","0.003498","0.004272"
"0.00650","0.003478","0.004262"
"0.00656","0.003448","0.004269"
"0.00663","0.003427","0.004265"
"0.00673","0.003418","0.004259"
"0.00697","0.003411","0.004255"
"0.00725","0.003356","0.004253"
"0.00757","0.003293","0.004234"
"0.00789","0.003244","0.004197"
"0.00820","0.003191","0.004163"
"0.00840","0.003139","0.004135"
"0.00853","0.003101","0.004105"
"0.00861","0.003109","0.004080"
"0.00865","0.003108","0.004080"
"0.00870","0.003109","0.004083"
"0.00875","0.003130","0.004079"
"0.00878","0.003162","0.004090"
"0.00881","0.003214","0.004124"
"0.00884","0.003290","0.004163"
"0.00886","0.003381","0.004231"
"0.00885","0.003481","0.004336"
"0.00885","0.003557","0.004447"
"0.00883","0.003621","0.004554"
"0.00883","0.003669","0.004639"
"0.00880","0.003710","0.004719"
"0.00879","0.003723","0.004796"
"0.00864","0.003720","0.004866"
"0.00841","0.003716","0.004941"
"0.00813","0.003709","0.005033"
"0.00782","0.003695","0.005130"
"0.00752","0.003683","0.005221"
"0.00735","0.003682","0.005295"
"0.00729","0.003677","0.005367"
"0.00729","0.003683","0.005426"
"0.00733","0.003694","0.005480"
"0.00740","0.003707","0.005527"
"0.00747","0.003701","0.005577"
"0.00760","0.003685","0.005612"
"0.00773","0.003652","0.005634"
"0.00788","0.003600","0.005638"
"0.00801","0.003528","0.005613"
"0.00817","0.003449","0.005557"
"0.00833","0.003391","0.005492"
"0.00847","0.003336","0.005430"
"0.00859","0.003292","0.005401"
"0.00871","0.003255","0.005400"
"0.00882","0.003234","0.005418"
"0.00892","0.003220","0.005459"
"0.00907","0.003218","0.005506"
"0.00924","0.003222","0.005550"
"0.00942","0.003229","0.005599"
"0.00959","0.003233","0.005651"
"0.00975","0.003227","0.005710"
"0.00987","0.003222","0.005771"
"0.00999","0.003207","0.005843"
"0.01009","0.003191","0.005912"
"0.01020","0.003172","0.005988"
"0.01028","0.003154","0.006065"
"0.01033","0.003138","0.006136"
"0.01036","0.003121","0.006211"
"0.01035","0.003107","0.006283"
"0.01033","0.003093","0.006349"
"0.01031","0.003081","0.006421"
"0.01028","0.003065","0.006507"
"0.01025","0.003045","0.006623"
"0.01021","0.003022","0.006744"
"0.01014","0.003010","0.006853"
"0.01006","0.003006","0.006931"
"0.00994","0.003005","0.006983"
"0.00980","0.003019","0.007009"
"0.00967","0.003040","0.007028"
"0.00953","0.003067","0.007041"
"0.00939","0.003094","0.007050"
"0.00926","0.003120","0.007058"
"0.00913","0.003162","0.007057"
"0.00903","0.003227","0.007057"
"0.00896","0.003299","0.007063"
"0.00890","0.003380","0.007065"
"0.00885","0.003479","0.007074"
"0.00882","0.003591","0.007090"
"0.00880","0.003709","0.007103"
"0.00882","0.003823","0.007126"
"0.00886","0.003948","0.007198"
"0.00891","0.004069","0.007349"
"0.00895","0.004200","0.007703"
"0.00899","0.004340","0.008134"
"0.00907","0.004490","0.008572"
"0.00917","0.004642","0.009073"
"0.00947","0.004831","0.009848"
"0.01012","0.005042","0.010841"
"0.01106","0.005231","0.012052"
"0.01230","0.005411","0.013948"
"0.01436","0.005552","0.016659"
"0.01694","0.005610","0.022214"
"0.01966","0.005686","0.032012"
"0.02250","0.005741","0.043828"
"0.02544","0.005862","0.056495"
"0.02841","0.006018","0.069355"
"0.03199","0.006124","0.082746"
"0.03663","0.006146","0.096670"
"0.04190","0.006104","0.110964"
"0.04734","0.006062","0.125617"
"0.05286","0.006016","0.140338"
"0.05877","0.005963","0.155012"
"0.06489","0.005994","0.169581"
"0.07112","0.006162","0.184581"
"0.07740","0.006427","0.200022"
"0.08399","0.006668","0.215620"
"0.09095","0.006919","0.231115"
"0.09805","0.007123","0.246698"
"0.10524","0.007295","0.262801"
"0.11227","0.007447","0.279001"
"0.11873","0.007600","0.294406"
"0.12423","0.007876","0.308811"
"0.12912","0.008258","0.319714"
"0.13313","0.008652","0.325759"
"0.13657","0.009130","0.327231"
"0.13981","0.009510","0.323753"
"0.14309","0.009862","0.317937"
"0.14582","0.010210","0.310738"
"0.14768","0.010558","0.302874"
"0.14866","0.010994","0.294622"
"0.14849","0.011515","0.285705"
"0.14778","0.012085","0.276405"
"0.14645","0.012649","0.266771"
"0.14493","0.013121","0.257058"
"0.14327","0.013448","0.246773"
"0.14153","0.013625","0.236006"
"0.13944","0.013710","0.224534"
"0.13695","0.013685","0.212430"
"0.13388","0.013679","0.199570"
"0.12990","0.013666","0.186026"
"0.12554","0.013706","0.172170"
"0.12100","0.013773","0.157817"
"0.11645","0.013743","0.144325"
"0.11147","0.013725","0.131143"
"0.10709","0.013660","0.117639"
"0.10284","0.013575","0.107215"
"0.09929","0.013425","0.100573"
"0.09559","0.013279","0.094600"
"0.09249","0.013205","0.089319"
"0.08910","0.013257","0.084212"
"0.08570","0.013152","0.078612"
"0.08308","0.012964","0.073005"
"0.08087","0.012703","0.067709"
"0.07876","0.012325","0.062583"
"0.07624","0.011829","0.057505"
"0.07354","0.011315","0.052317"
"0.07031","0.010871","0.047097"
"0.06667","0.010471","0.042409"
"0.06248","0.010155","0.038407"
"0.05843","0.009828","0.034828"
"0.05479","0.009523","0.031228"
"0.05130","0.009169","0.027672"
"0.04824","0.008783","0.024724"
"0.04535","0.008411","0.021096"
"0.04293","0.007986","0.017863"
"0.04061","0.007608","0.015574"
"0.03860","0.007204","0.012758"
"0.03596","0.006902","0.010233"
"0.03337","0.006604","0.009163"
"0.03009","0.006281","0.008218"
"0.02690","0.005883","0.007144"
"0.02396","0.005590","0.006542"
"0.02120","0.005269","0.006264"
"0.01846","0.004995","0.005979"
"0.01585","0.004824","0.005876"
"0.01360","0.004772","0.005824"
"0.01156","0.004725","0.005817"
"0.01009","0.004653","0.005771"
"0.00905","0.004638","0.005711"
"0.00856","0.004640","0.005638"
"0.00821","0.004646","0.005581"
"0.00791","0.004637","0.005551"
"0.00775","0.004648","0.005525"
"0.00758","0.004658","0.005509"
"0.00743","0.004622","0.005491"
"0.00735","0.004576","0.005433"
"0.00743","0.004589","0.005449"
"0.00766","0.004612","0.005479"
"0.00794","0.004639","0.005575"
"0.00826","0.004653","0.005692"
"0.00858","0.004692","0.005849"
"0.00878","0.004707","0.006026"
"0.00884","0.004664","0.006132"
"0.00886","0.004612","0.006187"
"0.00884","0.004534","0.006231"
"0.00881","0.004488","0.006244"
"0.00880","0.004437","0.006265"
"0.00878","0.004394","0.006297"
"0.00876","0.004354","0.006335"
"0.00873","0.004332","0.006362"
"0.00871","0.004293","0.006394"
"0.00869","0.004246","0.006409"
"0.00869","0.004208","0.006354"
"0.00870","0.004176","0.006255"
"0.00873","0.004150","0.006153"
"0.00875","0.004151","0.006061"
"0.00875","0.004196","0.005966"
"0.00862","0.004160","0.005786"
"0.00837","0.004083","0.005610"
"0.00808","0.003976","0.005390"
"0.00815","0.004128","0.005533"
"0.00838","0.004374","0.006152"
"0.00877","0.004713","0.006940"
"0.00935","0.005260","0.007824"
"0.01000","0.005880","0.008748"
"0.01059","0.006498","0.009618"
"0.01092","0.006781","0.009781"
"0.01117","0.007019","0.009803"
"0.01159","0.007452","0.010343"
"0.01239","0.008081","0.011240"
"0.01322","0.008737","0.012350"
"0.01402","0.009556","0.013461"
"0.01479","0.010421","0.014603"
"0.01543","0.011165","0.015511"
"0.01571","0.011594","0.015915"
"0.01588","0.011906","0.016093"
"0.01607","0.012132","0.016245"
"0.01628","0.012267","0.016380"
"0.01649","0.012393","0.016521"
"0.01665","0.012530","0.016717"
"0.01675","0.012682","0.016934"
"0.01643","0.012595","0.016756"
"0.01593","0.012370","0.016111"
"0.01535","0.012093","0.015341"
"0.01473","0.011629","0.014462"
"0.01411","0.011084","0.013611"
"0.01361","0.010521","0.012855"
"0.01333","0.010234","0.013455"
"0.01323","0.010005","0.014816"
"0.01330","0.009654","0.015980"
"0.01374","0.009159","0.017238"
"0.01461","0.008661","0.018265"
"0.01587","0.008001","0.019263"
"0.01737","0.007297","0.020209"
"0.01924","0.006706","0.021361"
"0.02166","0.006428","0.022896"
"0.02432","0.006276","0.024393"
"0.02700","0.006255","0.025680"
"0.02967","0.006317","0.026892"
"0.03235","0.006377","0.028017"
"0.03504","0.006431","0.028902"
"0.03779","0.006474","0.029495"
"0.04066","0.006474","0.030029"
"0.04365","0.006467","0.030502"
"0.04677","0.006430","0.030963"
"0.04992","0.006437","0.031509"
"0.05312","0.006471","0.031716"
"0.05625","0.006536","0.031615"
"0.05936","0.006638","0.030764"
"0.06225","0.006739","0.029247"
"0.06490","0.006736","0.027393"
"0.06737","0.006647","0.025059"
"0.06965","0.006537","0.022737"
"0.07163","0.006467","0.020416"
"0.07334","0.006425","0.018102"
"0.07456","0.006393","0.015843"
"0.07534","0.006363","0.013723"
"0.07611","0.006342","0.011853"
"0.07668","0.006312","0.010241"
"0.07713","0.006267","0.008753"
"0.07753","0.006208","0.007366"
"0.07800","0.006127","0.006154"
"0.07860","0.006070","0.005197"
"0.07921","0.006064","0.004307"
"0.07986","0.006086","0.003464"
"0.08031","0.006140","0.002646"
"0.08062","0.006197","0.001868"
"0.08077","0.006270","0.001413"
"0.08077","0.006345","0.001254"
"0.08072","0.006422","0.001222"
"0.08067","0.006489","0.001244"
"0.08042","0.006579","0.001276"
"0.07958","0.006710","0.001336"
"0.07840","0.006834","0.001414"
"0.07665","0.006934","0.001533"
"0.07431","0.006999","0.001707"
"0.07192","0.007031","0.001900"
"0.06973","0.007038","0.002086"
"0.06742","0.007031","0.002279"
"0.06528","0.006992","0.002451"
"0.06305","0.006951","0.002594"
"0.06064","0.006918","0.002726"
"0.05814","0.006894","0.002845"
"0.05542","0.006849","0.002974"
"0.05254","0.006762","0.003121"
"0.04952","0.006663","0.003287"
"0.04637","0.006535","0.003475"
"0.04326","0.006391","0.003664"
"0.04020","0.006247","0.003837"
"0.03733","0.006099","0.003991"
"0.03456","0.005967","0.004130"
"0.03190","0.005851","0.004250"
"0.02935","0.005746","0.004353"
"0.02681","0.005646","0.004449"
"0.02433","0.005545","0.004544"
"0.02237","0.005438","0.004604"
"0.02106","0.005333","0.004620"
"0.02002","0.005269","0.004600"
"0.01901","0.005243","0.004578"
"0.01797","0.005234","0.004557"
"0.01690","0.005235","0.004537"
"0.01599","0.005219","0.004521"
"0.01529","0.005206","0.004508"
"0.01463","0.005215","0.004506"
"0.01404","0.005226","0.004507"
"0.01347","0.005242","0.004508"
"0.01297","0.005266","0.004488"
"0.01264","0.005312","0.004442"
"0.01236","0.005372","0.004389"
"0.01213","0.005428","0.004328"
"0.01189","0.005475","0.004273"
"0.01166","0.005512","0.004233"
"0.01145","0.005543","0.004214"
"0.01126","0.005571","0.004205"
"0.01108","0.005582","0.004215"
"0.01088","0.005594","0.004253"
"0.01068","0.005593","0.004322"
"0.01048","0.005594","0.004419"
"0.01029","0.005586","0.004536"
"0.01010","0.005560","0.004660"
"0.00994","0.005515","0.004792"
"0.00982","0.005450","0.004933"
"0.00970","0.005392","0.005074"
"0.00959","0.005321","0.005212"
"0.00950","0.005229","0.005351"
"0.00940","0.005138","0.005496"
"0.00930","0.005057","0.005638"
"0.00920","0.004968","0.005786"
"0.00913","0.004871","0.005940"
"0.00909","0.004775","0.006099"
"0.00906","0.004678","0.006268"
"0.00904","0.004593","0.006435"
"0.00898","0.004496","0.006589"
"0.00889","0.004387","0.006704"
"0.00878","0.004270","0.006810"
"0.00865","0.004155","0.006958"
"0.00853","0.004040","0.007044"
"0.00840","0.003932","0.007068"
"0.00828","0.003835","0.007091"
"0.00815","0.003732","0.007039"
"0.00800","0.003626","0.006989"
"0.00784","0.003514","0.006925"
"0.00765","0.003411","0.006829"
"0.00748","0.003325","0.006730"
"0.00734","0.003261","0.006641"
"0.00722","0.003209","0.006514"
"0.00717","0.003158","0.006376"
"0.00713","0.003104","0.006243"
"0.00712","0.003075","0.006095"
"0.00718","0.003135","0.006000"
"0.00743","0.003402","0.006187"
"0.00774","0.003723","0.006474"
"0.00812","0.004064","0.006835"
"0.00855","0.004256","0.007154"
"0.00887","0.004352","0.007384"
"0.00924","0.004451","0.007539"
"0.00948","0.004549","0.007604"
"0.00970","0.004646","0.007617"
"0.00987","0.004738","0.007673"
"0.01001","0.004792","0.007716"
"0.01015","0.004840","0.007868"
"0.01026","0.004896","0.008047"
"0.01037","0.004923","0.008226"
"0.01050","0.004965","0.008581"
"0.01063","0.004998","0.008916"
"0.01074","0.005034","0.009188"
"0.01079","0.005077","0.009366"
"0.01076","0.005102","0.009406"
"0.01074","0.005114","0.009437"
"0.01066","0.005106","0.009464"
"0.01052","0.005017","0.009438"
"0.01024","0.004828","0.009220"
"0.00994","0.004651","0.008945"
"0.00957","0.004486","0.008657"
"0.00919","0.004472","0.008450"
"0.00888","0.004486","0.008405"
"0.00855","0.004490","0.008423"
"0.00841","0.004497","0.008453"
"0.00831","0.004535","0.008594"
"0.00830","0.004542","0.008630"
"0.00827","0.004560","0.008664"
"0.00826","0.004562","0.008636"
"0.00826","0.004537","0.008511"
"0.00829","0.004540","0.008409"
"0.00835","0.004493","0.008188"
"0.00834","0.004444","0.007989"
"0.00831","0.004376","0.007846"
"0.00829","0.004310","0.007788"
"0.00826","0.004258","0.007822"
"0.00824","0.004211","0.007890"
"0.00821","0.004181","0.008042"
"0.00817","0.004153","0.008165"
"0.00808","0.004019","0.008257"
"0.00796","0.003816","0.008261"
"0.00785","0.003577","0.008212"
"0.00771","0.003351","0.008098"
"0.00762","0.003203","0.007952"
"0.00750","0.003086","0.007800"
"0.00733","0.002973","0.007655"
"0.00716","0.002833","0.007512"
"0.00695","0.002734","0.007422"
"0.00680","0.002648","0.007331"
"0.00662","0.002592","0.007230"
"0.00651","0.002553","0.007183"
"0.00638","0.002515","0.007128"
"0.00623","0.002514","0.007031"
"0.00613","0.002528","0.006914"
"0.00604","0.002553","0.006778"
"0.00596","0.002575","0.006672"
"0.00591","0.002594","0.006625"
"0.00586","0.002608","0.006598"
"0.00581","0.002613","0.006506"
"0.00579","0.002615","0.006448"
"0.00576","0.002623","0.006315"
"0.00574","0.002631","0.006201"
"0.00570","0.002644","0.006087"
"0.00568","0.002654","0.006002"
"0.00570","0.002672","0.005894"
"0.00575","0.002676","0.005785"
"0.00579","0.002682","0.005693"
"0.00582","0.002685","0.005576"
"0.00583","0.002673","0.005499"
"0.00583","0.002667","0.005423"
"0.00587","0.002668","0.005364"
"0.00596","0.002706","0.005404"
"0.00608","0.002780","0.005480"
"0.00625","0.002886","0.005654"
"0.00642","0.002990","0.005890"
"0.00660","0.003066","0.006109"
"0.00682","0.003098","0.006353"
"0.00758","0.003229","0.008005"
"0.00997","0.003393","0.013123"
"0.01270","0.003636","0.019309"
"0.01550","0.004005","0.026240"
"0.01859","0.004389","0.033302"
"0.02207","0.004755","0.040467"
"0.02622","0.005102","0.047932"
"0.03102","0.005445","0.055587"
"0.03642","0.005812","0.063695"
"0.04215","0.006184","0.072723"
"0.04821","0.006564","0.082692"
"0.05438","0.006933","0.093247"
"0.06061","0.007310","0.104233"
"0.06687","0.007685","0.115022"
"0.07309","0.008070","0.125738"
"0.07899","0.008409","0.136657"
"0.08446","0.008712","0.148941"
"0.08953","0.008969","0.161772"
"0.09473","0.009243","0.174556"
"0.10019","0.009549","0.186313"
"0.10590","0.009890","0.196863"
"0.11097","0.010118","0.205424"
"0.11408","0.010311","0.210156"
"0.11670","0.010320","0.212533"
"0.11927","0.010110","0.213750"
"0.12166","0.009888","0.214771"
"0.12317","0.009757","0.215580"
"0.12347","0.009684","0.215894"
"0.12261","0.009622","0.215770"
"0.12092","0.009482","0.214435"
"0.11866","0.009304","0.211288"
"0.11578","0.009128","0.206610"
"0.11288","0.008963","0.200676"
"0.11019","0.008807","0.193977"
"0.10752","0.008662","0.187406"
"0.10491","0.008488","0.180717"
"0.10268","0.008294","0.172408"
"0.10093","0.008072","0.160997"
"0.09957","0.007858","0.148519"
"0.09779","0.007598","0.136040"
"0.09533","0.007349","0.124656"
"0.09226","0.007102","0.114493"
"0.08900","0.006877","0.104910"
"0.08598","0.006708","0.095625"
"0.08340","0.006661","0.087609"
"0.08033","0.006716","0.080051"
"0.07718","0.006727","0.072543"
"0.07463","0.006631","0.065084"
"0.07261","0.006484","0.057777"
"0.07087","0.006338","0.050728"
"0.06932","0.006249","0.044391"
"0.06799","0.006217","0.038913"
"0.06694","0.006181","0.033959"
"0.06548","0.006148","0.029680"
"0.06363","0.006079","0.025738"
"0.06170","0.005982","0.021821"
"0.05969","0.005874","0.018088"
"0.05744","0.005805","0.015557"
"0.05508","0.005777","0.014623"
"0.05258","0.005793","0.014081"
"0.05030","0.005840","0.013485"
"0.04835","0.005879","0.012850"
"0.04674","0.005906","0.012182"
"0.04538","0.005882","0.011512"
"0.04398","0.005800","0.010865"
"0.04207","0.005685","0.010227"
"0.04049","0.005553","0.009531"
"0.03871","0.005453","0.008874"
"0.03657","0.005399","0.008313"
"0.03437","0.005357","0.007789"
"0.03236","0.005305","0.007256"
"0.03034","0.005232","0.006770"
"0.02832","0.005122","0.006342"
"0.02630","0.005001","0.005977"
"0.02462","0.004875","0.005616"
"0.02310","0.004775","0.005256"
"0.02160","0.004696","0.004928"
"0.02013","0.004641","0.004617"
"0.01875","0.004581","0.004429"
"0.01739","0.004483","0.004342"
"0.01612","0.004340","0.004297"
"0.01489","0.004194","0.004297"
"0.01373","0.004049","0.004301"
"0.01259","0.003918","0.004315"
"0.01146","0.003828","0.004322"
"0.01048","0.003749","0.004333"
"0.00973","0.003689","0.004353"
"0.00912","0.003638","0.004383"
"0.00866","0.003587","0.004398"
"0.00848","0.003529","0.004403"
"0.00837","0.003476","0.004403"
"0.00831","0.003431","0.004400"
"0.00828","0.003399","0.004403"
"0.00827","0.003384","0.004407"
"0.00824","0.003372","0.004413"
"0.00822","0.003358","0.004416"
"0.00819","0.003357","0.004419"
"0.00812","0.003347","0.004427"
"0.00806","0.003337","0.004436"
"0.00800","0.003326","0.004442"
"0.00796","0.003341","0.004448"
"0.00794","0.003367","0.004453"
"0.00794","0.003380","0.004490"
"0.00795","0.003405","0.004527"
"0.00796","0.003422","0.004567"
"0.00797","0.003438","0.004605"
"0.00800","0.003450","0.004664"
"0.00805","0.003467","0.004785"
"0.00811","0.003493","0.004892"
"0.00816","0.003512","0.005074"
"0.00818","0.003506","0.005280"
"0.00820","0.003492","0.005503"
"0.00821","0.003471","0.005724"
"0.00819","0.003460","0.005882"
"0.00816","0.003446","0.006016"
"0.00811","0.003436","0.006106"
"0.00804","0.003433","0.006140"
"0.00796","0.003423","0.006165"
"0.00787","0.003419","0.006183"
"0.00778","0.003403","0.006203"
"0.00770","0.003370","0.006228"
"0.00764","0.003335","0.006245"
"0.00756","0.003297","0.006258"
"0.00748","0.003271","0.006243"
"0.00740","0.003229","0.006225"
"0.00733","0.003186","0.006206"
"0.00726","0.003147","0.006188"
"0.00717","0.003115","0.006146"
"0.00708","0.003080","0.006042"
"0.00701","0.003029","0.005957"
"0.00695","0.002996","0.005803"
"0.00693","0.002994","0.005630"
"0.00691","0.003001","0.005437"
"0.00691","0.003014","0.005280"
"0.00691","0.003011","0.005189"
"0.00693","0.003022","0.005138"
"0.00695","0.003032","0.005132"
"0.00701","0.003034","0.005175"
"0.00708","0.003018","0.005221"
"0.00717","0.002995","0.005250"
"0.00727","0.003005","0.005279"
"0.00736","0.003024","0.005296"
"0.00748","0.003048","0.005320"
"0.00760","0.003086","0.005361"
"0.00777","0.003160","0.005416"
"0.00796","0.003288","0.005505"
"0.00825","0.003465","0.005610"
"0.00858","0.003648","0.005715"
"0.00897","0.003830","0.005905"
"0.00935","0.004010","0.006100"
"0.00972","0.004216","0.006268"
"0.01016","0.004466","0.006401"
"0.01057","0.004667","0.006551"
"0.01138","0.004849","0.006670"
"0.01236","0.005004","0.006700"
"0.01349","0.005131","0.006694"
"0.01503","0.005221","0.006662"
"0.01648","0.005201","0.006643"
"0.01801","0.005221","0.006624"
"0.01948","0.005236","0.006596"
"0.02035","0.005309","0.006623"
"0.02120","0.005381","0.006632"
"0.02152","0.005473","0.006683"
"0.02185","0.005608","0.006707"
"0.02213","0.005753","0.006701"
"0.02227","0.005799","0.006698"
"0.02240","0.005771","0.006702"
"0.02240","0.005679","0.006688"
"0.02232","0.005578","0.006654"
"0.02213","0.005441","0.006547"
"0.02197","0.005263","0.006439"
"0.02176","0.005065","0.006334"
"0.02142","0.004824","0.006226"
"0.02104","0.004630","0.006063"
"0.02024","0.004464","0.005945"
"0.01924","0.004325","0.005894"
"0.01803","0.004212","0.005897"
"0.01640","0.004127","0.005909"
"0.01489","0.004148","0.005912"
"0.01332","0.004132","0.005926"
"0.01180","0.004132","0.005952"
"0.01088","0.004073","0.005955"
"0.00998","0.003998","0.005959"
"0.00958","0.003900","0.005928"
"0.00918","0.003759","0.005901"
"0.00884","0.003597","0.005900"
"0.00860","0.003509","0.005870"
"0.00834","0.003429","0.005792"
"0.00813","0.003377","0.005711"
"0.00795","0.003339","0.005657"
"0.00777","0.003347","0.005588"
"0.00755","0.003418","0.005499"
"0.00733","0.003471","0.005433"
"0.00717","0.003521","0.005387"
"0.00705","0.003561","0.005381"
"0.00694","0.003584","0.005363"
"0.00685","0.003598","0.005322"
"0.00683","0.003619","0.005258"
"0.00682","0.003633","0.005214"
"0.00682","0.003699","0.005210"
"0.00681","0.003784","0.005355"
"0.00698","0.003912","0.006044"
"0.00718","0.004035","0.007061"
"0.00749","0.004156","0.008320"
"0.00804","0.004284","0.009759"
"0.00862","0.004412","0.011352"
"0.00929","0.004544","0.013223"
"0.01036","0.004635","0.016182"
"0.01177","0.004718","0.019561"
"0.01338","0.004779","0.023101"
"0.01508","0.004824","0.026687"
"0.01688","0.004860","0.030289"
"0.01879","0.004884","0.033896"
"0.02088","0.004944","0.037489"
"0.02309","0.005027","0.041077"
"0.02584","0.005116","0.044616"
"0.02898","0.005201","0.048133"
"0.03240","0.005283","0.051673"
"0.03585","0.005349","0.055206"
"0.03935","0.005403","0.058719"
"0.04297","0.005387","0.062170"
"0.04683","0.005330","0.065458"
"0.05057","0.005234","0.068196"
"0.05433","0.005158","0.070516"
"0.05814","0.005085","0.072527"
"0.06203","0.004999","0.074176"
"0.06598","0.004900","0.075577"
"0.06974","0.004792","0.076599"
"0.07314","0.004689","0.076433"
"0.07621","0.004630","0.075541"
"0.07900","0.004593","0.074247"
"0.08148","0.004556","0.072728"
"0.08391","0.004508","0.071060"
"0.08651","0.004439","0.069192"
"0.08883","0.004368","0.066223"
"0.09074","0.004296","0.062842"
"0.09195","0.004236","0.059331"
"0.09274","0.004184","0.055804"
"0.09321","0.004145","0.052254"
"0.09357","0.004111","0.048721"
"0.09374","0.004075","0.045200"
"0.09364","0.004048","0.041707"
"0.09282","0.004048","0.038251"
"0.09150","0.004048","0.034828"
"0.08990","0.004043","0.031472"
"0.08819","0.004039","0.028189"
"0.08614","0.004058","0.025079"
"0.08392","0.004097","0.022088"
"0.08150","0.004157","0.019202"
"0.07901","0.004239","0.016424"
"0.07643","0.004290","0.013967"
"0.07377","0.004332","0.011759"
"0.07100","0.004383","0.009737"
"0.06808","0.004443","0.007851"
"0.06486","0.004521","0.006161"
"0.06172","0.004581","0.005586"
"0.05882","0.004605","0.005438"
"0.05608","0.004606","0.005459"
"0.05335","0.004599","0.005514"
"0.05060","0.004603","0.005578"
"0.04762","0.004645","0.005622"
"0.04451","0.004717","0.005652"
"0.04142","0.004797","0.005666"
"0.03876","0.004872","0.005643"
"0.03647","0.004956","0.005586"
"0.03440","0.005032","0.005540"
"0.03230","0.005108","0.005496"
"0.03020","0.005180","0.005463"
"0.02821","0.005231","0.005423"
"0.02645","0.005250","0.005375"
"0.02473","0.005270","0.005330"
"0.02302","0.005298","0.005288"
"0.02137","0.005325","0.005240"
"0.02001","0.005338","0.005178"
"0.01880","0.005346","0.005123"
"0.01760","0.005341","0.005083"
"0.01643","0.005339","0.005041"
"0.01530","0.005346","0.005011"
"0.01418","0.005360","0.004982"
"0.01308","0.005380","0.004961"
"0.01205","0.005390","0.004946"
"0.01133","0.005365","0.004946"
"0.01087","0.005330","0.004946"
"0.01053","0.005295","0.004950"
"0.01024","0.005261","0.004971"
"0.01002","0.005219","0.004996"
"0.00982","0.005170","0.005031"
"0.00960","0.005103","0.005075"
"0.00938","0.005030","0.005128"
"0.00916","0.004967","0.005187"
"0.00895","0.004919","0.005244"
"0.00874","0.004863","0.005305"
"0.00859","0.004799","0.005365"
"0.00851","0.004731","0.005436"
"0.00846","0.004669","0.005510"
"0.00842","0.004618","0.005576"
"0.00839","0.004572","0.005639"
"0.00839","0.004516","0.005695"
"0.00839","0.004463","0.005744"
"0.00839","0.004413","0.005793"
"0.00838","0.004362","0.005843"
"0.00836","0.004309","0.005883"
"0.00836","0.004258","0.005901"
"0.00832","0.004196","0.005906"
"0.00828","0.004131","0.005909"
"0.00825","0.004059","0.005892"
"0.00822","0.004024","0.005866"
"0.00817","0.004023","0.005825"
"0.00813","0.004059","0.005786"
"0.00811","0.004097","0.005745"
"0.00809","0.004120","0.005710"
"0.00806","0.004124","0.005675"
"0.00806","0.004142","0.005643"
"0.00811","0.004158","0.005614"
"0.00817","0.004189","0.005559"
"0.00825","0.004217","0.005505"
"0.00834","0.004215","0.005463"
"0.00841","0.004208","0.005463"
"0.00847","0.004198","0.005456"
"0.00858","0.004204","0.005439"
"0.00874","0.004221","0.005417"
"0.00899","0.004248","0.005401"
"0.00940","0.004313","0.005348"
"0.00980","0.004438","0.005349"
"0.01028","0.004583","0.005457"
"0.01077","0.004727","0.005634"
"0.01122","0.004871","0.005822"
"0.01168","0.004963","0.006008"
"0.01214","0.004999","0.006180"
"0.01262","0.004971","0.006261"
"0.01301","0.004945","0.006291"
"0.01337","0.004921","0.006320"
"0.01378","0.004898","0.006336"
"0.01414","0.004845","0.006341"
"0.01435","0.004822","0.006323"
"0.01454","0.004795","0.006305"
"0.01479","0.004781","0.006257"
"0.01483","0.004778","0.006213"
"0.01488","0.004793","0.006120"
"0.01492","0.004812","0.006046"
"0.01492","0.004791","0.005983"
"0.01475","0.004762","0.005926"
"0.01446","0.004732","0.005865"
"0.01423","0.004660","0.005838"
"0.01399","0.004523","0.005788"
"0.01373","0.004401","0.005636"
"0.01357","0.004270","0.005448"
"0.01344","0.004133","0.005270"
"0.01314","0.004021","0.005102"
"0.01285","0.003945","0.004937"
"0.01247","0.003895","0.004875"
"0.01209","0.003852","0.004826"
"0.01174","0.003831","0.004769"
"0.01133","0.003827","0.004748"
"0.01091","0.003844","0.004729"
"0.01066","0.003837","0.004720"
"0.01058","0.003821","0.004712"
"0.01044","0.003771","0.004719"
"0.01051","0.003732","0.004693"
"0.01074","0.003690","0.004685"
"0.01090","0.003681","0.004670"
"0.01099","0.003692","0.004662"
"0.01121","0.003695","0.004682"
"0.01166","0.003710","0.004689"
"0.01199","0.003745","0.004680"
"0.01234","0.003779","0.004670"
"0.01270","0.003816","0.004666"
"0.01295","0.003873","0.004617"
"0.01317","0.003916","0.004564"
"0.01355","0.003918","0.004524"
"0.01395","0.003954","0.004486"
"0.01441","0.004019","0.004426"
"0.01508","0.004081","0.004386"
"0.01564","0.004130","0.004364"
"0.01620","0.004183","0.004328"
"0.01697","0.004174","0.004290"
"0.01799","0.004146","0.004269"
"0.01942","0.004134","0.004253"
"0.02138","0.004159","0.004208"
"0.02319","0.004194","0.004191"
"0.02490","0.004253","0.004162"
"0.02652","0.004306","0.004127"
"0.02780","0.004356","0.004079"
"0.02859","0.004420","0.004035"
"0.02927","0.004439","0.003997"
"0.02969","0.004410","0.003999"
"0.02990","0.004382","0.003987"
"0.02975","0.004326","0.004065"
"0.02948","0.004249","0.004141"
"0.02910","0.004212","0.004213"
"0.02867","0.004235","0.004286"
"0.02821","0.004227","0.004335"
"0.02782","0.004246","0.004360"
"0.02730","0.004263","0.004427"
"0.02698","0.004302","0.004489"
"0.02671","0.004374","0.004571"
"0.02629","0.004571","0.004665"
"0.02568","0.004915","0.004747"
"0.02457","0.005393","0.004813"
"0.02298","0.006023","0.004920"
"0.02158","0.006599","0.005072"
"0.02090","0.007156","0.006419"
"0.02047","0.007699","0.007839"
"0.02063","0.008242","0.009282"
"0.02144","0.008782","0.010741"
"0.02221","0.009344","0.012278"
"0.02320","0.009917","0.013988"
"0.02455","0.010514","0.015903"
"0.02638","0.011195","0.017770"
"0.02857","0.011911","0.019766"
"0.03144","0.012616","0.021860"
"0.03471","0.013343","0.023989"
"0.03820","0.014084","0.026226"
"0.04210","0.014773","0.028621"
"0.04663","0.015446","0.031216"
"0.05138","0.016106","0.033899"
"0.05686","0.016692","0.036644"
"0.06264","0.017190","0.039539"
"0.06836","0.017544","0.042532"
"0.07411","0.017735","0.045628"
"0.08001","0.017733","0.048733"
"0.08608","0.017768","0.051810"
"0.09151","0.017804","0.053702"
"0.09689","0.017844","0.055554"
"0.10217","0.017929","0.057452"
"0.10762","0.018068","0.059295"
"0.11330","0.018221","0.061067"
"0.11974","0.018412","0.062611"
"0.12655","0.018589","0.063919"
"0.13355","0.018652","0.065194"
"0.14070","0.018634","0.066359"
"0.14744","0.018577","0.067445"
"0.15402","0.018428","0.068491"
"0.16046","0.018238","0.069497"
"0.16657","0.018050","0.070388"
"0.17205","0.017874","0.071055"
"0.17732","0.017688","0.071626"
"0.18186","0.017549","0.072099"
"0.18608","0.017443","0.072420"
"0.19049","0.017351","0.072636"
"0.19491","0.017271","0.072770"
"0.19952","0.017198","0.072869"
"0.20490","0.017092","0.072958"
"0.21063","0.016952","0.073081"
"0.21692","0.016785","0.073208"
"0.22378","0.016554","0.073275"
"0.23060","0.016253","0.073405"
"0.23719","0.015954","0.073617"
"0.24306","0.015635","0.073897"
"0.24848","0.015306","0.074226"
"0.25359","0.015010","0.074564"
"0.25829","0.014779","0.074902"
"0.26290","0.014581","0.075203"
"0.26742","0.014417","0.075485"
"0.27189","0.014272","0.075717"
"0.27629","0.014140","0.075865"
"0.28070","0.014008","0.075908"
"0.28507","0.013870","0.075894"
"0.28943","0.013718","0.075761"
"0.29388","0.013563","0.075336"
"0.29814","0.013403","0.074836"
"0.30246","0.013212","0.074154"
"0.30646","0.013024","0.073415"
"0.30964","0.012857","0.072540"
"0.31232","0.012693","0.071569"
"0.31423","0.012561","0.070511"
"0.31548","0.012441","0.069403"
"0.31661","0.012360","0.068266"
"0.31816","0.012250","0.067071"
"0.32007","0.012109","0.065860"
"0.32329","0.011925","0.064478"
"0.32663","0.011705","0.062878"
"0.33011","0.011381","0.061249"
"0.33373","0.010992","0.059529"
"0.33712","0.010590","0.057724"
"0.34023","0.010122","0.055900"
"0.34314","0.009612","0.054104"
"0.34568","0.009104","0.052288"
"0.34757","0.008615","0.050276"
"0.34917","0.008121","0.048291"
"0.34997","0.007639","0.046486"
"0.35024","0.007192","0.044608"
"0.35030","0.006799","0.042820"
"0.35022","0.006443","0.041023"
"0.34979","0.006125","0.039324"
"0.34914","0.005822","0.037655"
"0.34856","0.005481","0.036025"
"0.34793","0.005139","0.034410"
"0.34716","0.004727","0.032705"
"0.34567","0.004258","0.030966"
"0.34347","0.003792","0.029216"
"0.33920","0.003358","0.027647"
"0.33403","0.002951","0.026327"
"0.32845","0.002644","0.025026"
"0.32227","0.002404","0.023847"
"0.31605","0.002184","0.022749"
"0.30991","0.002036","0.021689"
"0.30388","0.001929","0.020650"
"0.29813","0.001824","0.019706"
"0.29294","0.001714","0.019004"
"0.28799","0.001618","0.018374"
"0.28371","0.001497","0.017844"
"0.27661","0.001490","0.017265"
"0.27053","0.001414","0.016513"
"0.26337","0.001387","0.015909"
"0.25240","0.001401","0.015047"
"0.24097","0.001453","0.014168"
"0.22983","0.001542","0.013294"
"0.21903","0.001649","0.012451"
"0.20793","0.001786","0.011685"
"0.19541","0.002090","0.011016"
"0.18306","0.002396","0.010360"
"0.17135","0.002708","0.009676"
"0.16008","0.002987","0.008977"
"0.14864","0.003242","0.008323"
"0.13705","0.003485","0.007675"
"0.12559","0.003767","0.007059"
"0.11418","0.004051","0.006468"
"0.10284","0.004313","0.005920"
"0.09175","0.004596","0.005468"
"0.08076","0.004880","0.005050"
"0.06978","0.005160","0.004677"
"0.05885","0.005442","0.004325"
"0.05127","0.005550","0.004218"
"0.04277","0.005696","0.004406"
"0.03540","0.005753","0.004597"
"0.03189","0.005736","0.004999"
"0.02900","0.005675","0.005420"
"0.02593","0.005610","0.005918"
"0.02259","0.005537","0.006399"
"0.01947","0.005479","0.006828"
"0.01798","0.005319","0.007135"
"0.01656","0.005186","0.007387"
"0.01516","0.005057","0.007622"
"0.01406","0.004961","0.007821"
"0.01336","0.004880","0.007917"
"0.01319","0.004823","0.007977"
"0.01308","0.004735","0.008026"
"0.01307","0.004642","0.008069"
"0.01300","0.004571","0.008095"
"0.01279","0.004495","0.008038"
"0.01253","0.004425","0.007951"
"0.01228","0.004363","0.007851"
"0.01199","0.004297","0.007739"
"0.01163","0.004248","0.007582"
"0.01126","0.004210","0.007387"
"0.01088","0.004186","0.007128"
"0.01065","0.004151","0.006961"
"0.01049","0.004129","0.006810"
"0.01037","0.004105","0.006576"
"0.01026","0.004075","0.006354"
"0.01023","0.004056","0.006152"
"0.01023","0.004050","0.005977"
"0.01039","0.004039","0.005835"
"0.01055","0.004041","0.005712"
"0.01076","0.004058","0.005585"
"0.01098","0.004105","0.005527"
"0.01121","0.004154","0.005482"
"0.01142","0.004173","0.005469"
"0.01162","0.004169","0.005490"
"0.01176","0.004173","0.005513"
"0.01180","0.004165","0.005525"
"0.01182","0.004130","0.005546"
"0.01181","0.004068","0.005567"
"0.01180","0.004000","0.005606"
"0.01179","0.003988","0.005644"
"0.01176","0.003996","0.005668"
"0.01172","0.004015","0.005705"
"0.01171","0.004068","0.005707"
"0.01168","0.004109","0.005711"
"0.01164","0.004140","0.005724"
"0.01158","0.004174","0.005731"
"0.01154","0.004161","0.005751"
"0.01157","0.004128","0.005774"
"0.01143","0.004097","0.005814"
"0.01127","0.004035","0.005910"
"0.01109","0.003961","0.006054"
"0.01091","0.003868","0.006368"
"0.01073","0.003761","0.006726"
"0.01058","0.003678","0.007200"
"0.01039","0.003618","0.007630"
"0.01034","0.003546","0.008038"
"0.01034","0.003465","0.008431"
"0.01038","0.003411","0.008790"
"0.01046","0.003520","0.008943"
"0.01052","0.003672","0.009073"
"0.01057","0.003787","0.009086"
"0.01061","0.003895","0.009132"
"0.01064","0.003992","0.009205"
"0.01064","0.004081","0.009298"
"0.01061","0.004167","0.009423"
"0.01056","0.004132","0.009594"
"0.01049","0.004064","0.009829"
"0.01051","0.004142","0.010253"
"0.01050","0.004270","0.010701"
"0.01052","0.004470","0.011207"
"0.01056","0.004735","0.011794"
"0.01059","0.005036","0.012419"
"0.01063","0.005350","0.012933"
"0.01070","0.005674","0.013444"
"0.01064","0.005925","0.013997"
"0.01059","0.006132","0.014743"
"0.01049","0.006338","0.015533"
"0.01037","0.006492","0.016342"
"0.01023","0.006603","0.017172"
"0.01008","0.006568","0.018192"
"0.00993","0.006489","0.019304"
"0.00981","0.006397","0.020597"
"0.00974","0.006283","0.021963"
"0.00971","0.006162","0.023369"
"0.00973","0.006066","0.024919"
"0.00990","0.005973","0.026571"
"0.01016","0.005997","0.028435"
"0.01056","0.006047","0.030007"
"0.01126","0.005960","0.031468"
"0.01215","0.005847","0.032992"
"0.01335","0.005673","0.034578"
"0.01465","0.005512","0.036601"
"0.01622","0.005345","0.039841"
"0.01824","0.005139","0.043092"
"0.02062","0.004919","0.046123"
"0.02417","0.004753","0.048867"
"0.02817","0.004653","0.051719"
"0.03258","0.004548","0.055682"
"0.03737","0.004454","0.059659"
"0.04228","0.004424","0.063848"
"0.04730","0.004415","0.067868"
"0.05255","0.004411","0.072495"
"0.05763","0.004426","0.077743"
"0.06246","0.004449","0.082857"
"0.06697","0.004492","0.088158"
"0.07137","0.004494","0.094224"
"0.07571","0.004465","0.099056"
"0.07959","0.004465","0.103532"
"0.08302","0.004478","0.108271"
"0.08519","0.004534","0.112854"
"0.08719","0.004577","0.116869"
"0.08860","0.004615","0.119534"
"0.08994","0.004618","0.121451"
"0.09120","0.004550","0.122057"
"0.09187","0.004524","0.123680"
"0.09176","0.004523","0.125806"
"0.09040","0.004564","0.127618"
"0.08898","0.004581","0.128945"
"0.08824","0.004581","0.128374"
"0.08732","0.004601","0.126443"
"0.08598","0.004661","0.124136"
"0.08449","0.004714","0.121994"
"0.08278","0.004805","0.119146"
"0.08150","0.004859","0.115628"
"0.08012","0.004930","0.112272"
"0.07900","0.004992","0.108867"
"0.07804","0.005081","0.104557"
"0.07670","0.005203","0.100925"
"0.07570","0.005293","0.096190"
"0.07507","0.005380","0.090261"
"0.07527","0.005506","0.084181"
"0.07498","0.005659","0.078617"
"0.07395","0.005808","0.074360"
"0.07284","0.005942","0.070270"
"0.07158","0.006091","0.066189"
"0.07046","0.006216","0.061023"
"0.06963","0.006307","0.055559"
"0.06861","0.006386","0.050504"
"0.06708","0.006480","0.045534"
"0.06432","0.006605","0.041132"
"0.06089","0.006741","0.038056"
"0.05773","0.006813","0.035151"
"0.05460","0.006889","0.032261"
"0.05145","0.006926","0.029334"
"0.04803","0.006941","0.026355"
"0.04493","0.006921","0.023244"
"0.04185","0.006901","0.019893"
"0.03850","0.006867","0.016523"
"0.03543","0.006832","0.013578"
"0.03236","0.006818","0.011845"
"0.02922","0.006818","0.011281"
"0.02609","0.006762","0.010949"
"0.02342","0.006679","0.010570"
"0.02174","0.006603","0.010109"
"0.02012","0.006537","0.009654"
"0.01844","0.006500","0.009212"
"0.01675","0.006473","0.008762"
"0.01518","0.006480","0.008279"
"0.01397","0.006463","0.007775"
"0.01288","0.006436","0.007358"
"0.01195","0.006395","0.007137"
"0.01151","0.006348","0.006953"
"0.01109","0.006284","0.006772"
"0.01068","0.006204","0.006564"
"0.01028","0.006117","0.006399"
"0.00990","0.006073","0.006280"
"0.00948","0.006041","0.006188"
"0.00907","0.006002","0.006127"
"0.00883","0.005969","0.006056"
"0.00863","0.005936","0.005980"
"0.00844","0.005881","0.005898"
"0.00827","0.005788","0.005826"
"0.00810","0.005683","0.005758"
"0.00794","0.005582","0.005699"
"0.00777","0.005462","0.005643"
"0.00758","0.005330","0.005577"
"0.00742","0.005205","0.005504"
"0.00728","0.005079","0.005624"
"0.00717","0.004910","0.005821"
"0.00707","0.004748","0.006047"
"0.00699","0.004583","0.006274"
"0.00691","0.004422","0.006498"
"0.00681","0.004266","0.006746"
"0.00673","0.004112","0.006852"
"0.00665","0.003959","0.006902"
"0.00657","0.003827","0.006942"
"0.00648","0.003702","0.006977"
"0.00642","0.003588","0.007004"
"0.00638","0.003480","0.007018"
"0.00632","0.003370","0.007018"
"0.00628","0.003263","0.007015"
"0.00624","0.003173","0.007012"
"0.00621","0.003116","0.007010"
"0.00619","0.003064","0.007006"
"0.00616","0.003015","0.007008"
"0.00615","0.002983","0.006998"
"0.00617","0.002959","0.006989"
"0.00617","0.002927","0.006980"
"0.00617","0.002896","0.006785"
"0.00615","0.002890","0.006509"
"0.00615","0.002925","0.006206"
"0.00619","0.002958","0.005909"
"0.00626","0.003016","0.005632"
"0.00644","0.003106","0.005402"
"0.00669","0.003223","0.005325"
"0.00697","0.003401","0.005334"
"0.00727","0.003545","0.005369"
"0.00757","0.003705","0.005424"
"0.00788","0.003859","0.005485"
"0.00828","0.004029","0.005702"
"0.00865","0.004175","0.005946"
"0.00900","0.004271","0.006208"
"0.00933","0.004367","0.006466"
"0.00964","0.004444","0.006729"
"0.00991","0.004513","0.007014"
"0.01001","0.004544","0.007111"
"0.01005","0.004573","0.007205"
"0.01008","0.004594","0.007306"
"0.01012","0.004616","0.007423"
"0.01017","0.004643","0.007546"
"0.01018","0.004666","0.007647"
"0.01021","0.004653","0.007742"
"0.01022","0.004637","0.007827"
"0.01020","0.004610","0.007880"
"0.01006","0.004559","0.007843"
"0.00994","0.004471","0.007796"
"0.00986","0.004324","0.007790"
"0.00981","0.004219","0.007798"
"0.00979","0.004105","0.007805"
"0.00980","0.003990","0.007856"
"0.00976","0.003875","0.007813"
"0.00970","0.003825","0.007834"
"0.00965","0.003859","0.007916"
"0.00959","0.003920","0.008068"
"0.00950","0.004029","0.008318"
"0.00944","0.004155","0.008592"
"0.00953","0.004301","0.009106"
"0.00964","0.004412","0.009595"
"0.00970","0.004503","0.010010"
"0.00972","0.004554","0.010361"
"0.00973","0.004566","0.010594"
"0.00974","0.004561","0.010768"
"0.00974","0.004559","0.010875"
"0.00972","0.004565","0.010962"
"0.00970","0.004557","0.011066"
"0.00969","0.004542","0.011183"
"0.00957","0.004540","0.011311"
"0.00942","0.004538","0.011398"
"0.00921","0.004525","0.011451"
"0.00897","0.004503","0.011472"
"0.00866","0.004486","0.011409"
"0.00833","0.004451","0.011254"
"0.00806","0.004373","0.010989"
"0.00778","0.004262","0.010649"
"0.00752","0.004113","0.010290"
"0.00728","0.003922","0.009845"
"0.00707","0.003725","0.009372"
"0.00688","0.003539","0.008869"
"0.00671","0.003384","0.008427"
"0.00658","0.003251","0.008068"
"0.00648","0.003165","0.007714"
"0.00641","0.003114","0.007445"
"0.00634","0.003071","0.007289"
"0.00629","0.003020","0.007214"
"0.00625","0.002967","0.007180"
"0.00622","0.002921","0.007144"
"0.00620","0.002880","0.007109"
"0.00618","0.002849","0.007082"
"0.00615","0.002828","0.007006"
"0.00611","0.002818","0.006925"
"0.00607","0.002821","0.006843"
"0.00604","0.002819","0.006755"
"0.00604","0.002842","0.006714"
"0.00616","0.002878","0.006860"
"0.00711","0.002935","0.007171"
"0.00910","0.003020","0.008357"
"0.01137","0.003128","0.009622"
"0.01390","0.003260","0.010892"
"0.01670","0.003411","0.012202"
"0.01977","0.003565","0.013528"
"0.02292","0.003710","0.014872"
"0.02620","0.003849","0.016284"
"0.02953","0.004004","0.017723"
"0.03293","0.004171","0.019144"
"0.03688","0.004335","0.020556"
"0.04174","0.004487","0.021902"
"0.04706","0.004630","0.023281"
"0.05280","0.004752","0.024893"
"0.05873","0.004853","0.026817"
"0.06468","0.004933","0.029073"
"0.07064","0.005001","0.031404"
"0.07664","0.005064","0.033778"
"0.08264","0.005148","0.036138"
"0.08869","0.005219","0.038466"
"0.09459","0.005289","0.040605"
"0.09967","0.005339","0.042570"
"0.10374","0.005372","0.043572"
"0.10790","0.005390","0.044391"
"0.11178","0.005378","0.045136"
"0.11528","0.005330","0.045793"
"0.11842","0.005279","0.046393"
"0.12115","0.005248","0.046954"
"0.12352","0.005214","0.047345"
"0.12568","0.005164","0.047535"
"0.12772","0.005109","0.047452"
"0.12911","0.005060","0.047250"
"0.12951","0.005001","0.046972"
"0.12930","0.004920","0.046628"
"0.12844","0.004855","0.046066"
"0.12716","0.004814","0.045139"
"0.12579","0.004794","0.043905"
"0.12428","0.004779","0.042596"
"0.12269","0.004763","0.041251"
"0.12108","0.004727","0.039955"
"0.11899","0.004694","0.038704"
"0.11617","0.004657","0.037584"
"0.11290","0.004636","0.036524"
"0.10925","0.004626","0.035378"
"0.10520","0.004627","0.033948"
"0.10124","0.004635","0.032343"
"0.09741","0.004668","0.030653"
"0.09365","0.004694","0.028920"
"0.09020","0.004693","0.027193"
"0.08698","0.004682","0.025610"
"0.08392","0.004662","0.024231"
"0.08091","0.004646","0.023123"
"0.07799","0.004631","0.022155"
"0.07481","0.004631","0.021344"
"0.07162","0.004661","0.020580"
"0.06860","0.004694","0.019809"
"0.06573","0.004727","0.019077"
"0.06288","0.004750","0.018336"
"0.06015","0.004762","0.017568"
"0.05744","0.004775","0.016767"
"0.05472","0.004797","0.015953"
"0.05236","0.004807","0.015121"
"0.05053","0.004816","0.014210"
"0.04909","0.004808","0.013255"
"0.04793","0.004771","0.012400"
"0.04673","0.004717","0.011880"
"0.04547","0.004655","0.011554"
"0.04427","0.004590","0.011319"
"0.04326","0.004512","0.011136"
"0.04233","0.004433","0.010959"
"0.04136","0.004360","0.010787"
"0.04036","0.004292","0.010587"
"0.03933","0.004216","0.010326"
"0.03816","0.004144","0.010018"
"0.03716","0.004079","0.009668"
"0.03618","0.004011","0.009266"
"0.03520","0.003951","0.008856"
"0.03433","0.003882","0.008444"
"0.03348","0.003819","0.008056"
"0.03263","0.003765","0.007709"
"0.03177","0.003706","0.007403"
"0.03090","0.003635","0.007118"
"0.03007","0.003554","0.006831"
"0.02941","0.003467","0.006536"
"0.02872","0.003384","0.006235"
"0.02807","0.003319","0.005952"
"0.02746","0.003265","0.005699"
"0.02682","0.003222","0.005465"
"0.02611","0.003166","0.005255"
"0.02522","0.003120","0.005055"
"0.02428","0.003084","0.004858"
"0.02339","0.003054","0.004658"
"0.02252","0.003031","0.004486"
"0.02168","0.003012","0.004376"
"0.02099","0.002997","0.004309"
"0.02045","0.002980","0.004249"
"0.02004","0.002964","0.004225"
"0.01962","0.002946","0.004209"
"0.01903","0.002936","0.004202"
"0.01836","0.002931","0.004195"
"0.01766","0.002930","0.004188"
"0.01696","0.002940","0.004178"
"0.01624","0.002968","0.004175"
"0.01552","0.003010","0.004187"
"0.01482","0.003045","0.004209"
"0.01424","0.003102","0.004235"
"0.01371","0.003174","0.004259"
"0.01323","0.003267","0.004268"
"0.01278","0.003359","0.004288"
"0.01238","0.003478","0.004305"
"0.01201","0.003592","0.004329"
"0.01162","0.003700","0.004354"
"0.01122","0.003810","0.004386"
"0.01080","0.003876","0.004444"
"0.01038","0.003936","0.004536"
"0.00995","0.003986","0.004633"
"0.00950","0.004030","0.004738"
"0.00907","0.004061","0.004856"
"0.00868","0.004078","0.004967"
"0.00842","0.004101","0.005029"
"0.00822","0.004111","0.005067"
"0.00810","0.004115","0.005107"
"0.00799","0.004111","0.005146"
"0.00794","0.004107","0.005166"
"0.00791","0.004095","0.005188"
"0.00792","0.004087","0.005210"
"0.00791","0.004056","0.005242"
"0.00789","0.003990","0.005281"
"0.00785","0.003899","0.005330"
"0.00780","0.003794","0.005365"
"0.00770","0.003666","0.005403"
"0.00758","0.003551","0.005434"
"0.00753","0.003447","0.005448"
"0.00755","0.003345","0.005460"
"0.00759","0.003282","0.005436"
"0.00767","0.003225","0.005369"
"0.00776","0.003174","0.005302"
"0.00783","0.003125","0.005282"
"0.00785","0.003091","0.005240"
"0.00786","0.003068","0.005190"
"0.00788","0.003034","0.005185"
"0.00791","0.003013","0.005201"
"0.00796","0.003018","0.005224"
"0.00803","0.003051","0.005233"
"0.00810","0.003077","0.005278"
"0.00818","0.003105","0.005334"
"0.00824","0.003136","0.005403"
"0.00834","0.003172","0.005500"
"0.00837","0.003179","0.005584"
"0.00836","0.003184","0.005659"
"0.00832","0.003191","0.005730"
"0.00827","0.003221","0.005782"
"0.00821","0.003255","0.005822"
"0.00809","0.003282","0.005848"
"0.00793","0.003302","0.005868"
"0.00780","0.003326","0.005895"
"0.00765","0.003342","0.005926"
"0.00749","0.003349","0.005948"
"0.00737","0.003362","0.005906"
"0.00734","0.003372","0.005890"
"0.00735","0.003389","0.005897"
"0.00747","0.003417","0.005895"
"0.00766","0.003441","0.005970"
"0.00781","0.003446","0.006091"
"0.00795","0.003434","0.006239"
"0.00820","0.003419","0.006341"
"0.00842","0.003397","0.006463"
"0.00873","0.003339","0.006608"
"0.00904","0.003269","0.006683"
"0.00945","0.003236","0.006743"
"0.00989","0.003196","0.006811"
"0.01019","0.003168","0.006901"
"0.01041","0.003146","0.006899"
"0.01060","0.003128","0.006896"
"0.01077","0.003119","0.006924"
"0.01091","0.003109","0.006958"
"0.01100","0.003085","0.006999"
"0.01106","0.003076","0.007053"
"0.01108","0.003081","0.007140"
"0.01118","0.003075","0.007273"
"0.01125","0.003075","0.007367"
"0.01131","0.003061","0.007441"
"0.01129","0.003043","0.007528"
"0.01125","0.003082","0.007538"
"0.01117","0.003159","0.007450"
"0.01108","0.003245","0.007429"
"0.01088","0.003343","0.007466"
"0.01066","0.003464","0.007487"
"0.01032","0.003576","0.007497"
"0.00998","0.003658","0.007521"
"0.00954","0.003728","0.007534"
"0.00910","0.003815","0.007517"
"0.00883","0.003869","0.007465"
"0.00868","0.003904","0.007504"
"0.00853","0.003949","0.007526"
"0.00841","0.003980","0.007540"
"0.00832","0.004004","0.007554"
"0.00829","0.004014","0.007642"
"0.00832","0.004038","0.008113"
"0.00843","0.004141","0.008868"
"0.00885","0.004334","0.010229"
"0.01098","0.004642","0.013121"
"0.01349","0.005015","0.017487"
"0.01607","0.005527","0.022041"
"0.01866","0.005994","0.026662"
"0.02179","0.006394","0.031853"
"0.02602","0.006758","0.037721"
"0.03025","0.007114","0.044647"
"0.03452","0.007456","0.051872"
"0.03883","0.007811","0.059075"
"0.04332","0.008137","0.066130"
"0.04779","0.008447","0.072821"
"0.05224","0.008718","0.079325"
"0.05671","0.008943","0.085595"
"0.06011","0.009196","0.091328"
"0.06343","0.009371","0.095465"
"0.06696","0.009394","0.099338"
"0.07050","0.009413","0.103111"
"0.07366","0.009505","0.106256"
"0.07573","0.009653","0.108145"
"0.07780","0.009751","0.108404"
"0.07949","0.009742","0.107511"
"0.07952","0.009582","0.105088"
"0.07904","0.009373","0.101200"
"0.07841","0.009017","0.097129"
"0.07756","0.008665","0.093004"
"0.07581","0.008349","0.088502"
"0.07296","0.008010","0.083051"
"0.07004","0.007684","0.076487"
"0.06680","0.007373","0.069685"
"0.06355","0.007092","0.062899"
"0.06007","0.006847","0.056265"
"0.05655","0.006604","0.050041"
"0.05301","0.006316","0.044012"
"0.04960","0.006099","0.038225"
"0.04726","0.005864","0.032926"
"0.04495","0.005695","0.029253"
"0.04241","0.005691","0.025872"
"0.03985","0.005706","0.022591"
"0.03759","0.005688","0.019702"
"0.03626","0.005563","0.017516"
"0.03469","0.005407","0.016609"
"0.03303","0.005278","0.016162"
"0.03128","0.005190","0.015695"
"0.02969","0.005092","0.015264"
"0.02814","0.004997","0.014840"
"0.02672","0.004884","0.014395"
"0.02559","0.004756","0.013761"
"0.02431","0.004682","0.013339"
"0.02310","0.004584","0.012929"
"0.02217","0.004479","0.012399"
"0.02125","0.004368","0.011838"
"0.02040","0.004251","0.011305"
"0.01965","0.004165","0.010769"
"0.01896","0.004162","0.010256"
"0.01815","0.004157","0.009761"
"0.01728","0.004147","0.009325"
"0.01644","0.004148","0.008849"
"0.01562","0.004155","0.008333"
"0.01483","0.004159","0.007808"
"0.01406","0.004158","0.007426"
"0.01342","0.004186","0.007200"
"0.01300","0.004210","0.007017"
"0.01267","0.004245","0.006880"
"0.01235","0.004280","0.006770"
"0.01198","0.004323","0.006606"
"0.01167","0.004378","0.006417"
"0.01142","0.004432","0.006235"
"0.01136","0.004483","0.006089"
"0.01146","0.004517","0.005932"
"0.01159","0.004575","0.005811"
"0.01171","0.004638","0.005723"
"0.01179","0.004736","0.005626"
"0.01184","0.004865","0.005523"
"0.01189","0.004973","0.005430"
"0.01188","0.005090","0.005337"
"0.01184","0.005199","0.005263"
"0.01185","0.005302","0.005208"
"0.01189","0.005388","0.005186"
"0.01196","0.005466","0.005212"
"0.01200","0.005555","0.005255"
"0.01199","0.005644","0.005332"
"0.01197","0.005727","0.005438"
"0.01193","0.005796","0.005549"
"0.01191","0.005843","0.005692"
"0.01191","0.005854","0.005887"
"0.01192","0.005857","0.006127"
"0.01191","0.005862","0.006389"
"0.01189","0.005870","0.006671"
"0.01179","0.005879","0.006974"
"0.01166","0.005885","0.007268"
"0.01153","0.005878","0.007539"
"0.01136","0.005858","0.007785"
"0.01120","0.005805","0.008031"
"0.01103","0.005744","0.008250"
"0.01085","0.005705","0.008435"
"0.01068","0.005648","0.008607"
"0.01050","0.005596","0.008737"
"0.01029","0.005531","0.008827"
"0.01007","0.005464","0.008882"
"0.00984","0.005391","0.008888"
"0.00960","0.005298","0.008857"
"0.00945","0.005174","0.008768"
"0.00930","0.005037","0.008669"
"0.00915","0.004902","0.008586"
"0.00903","0.004756","0.008474"
"0.00888","0.004634","0.008328"
"0.00876","0.004522","0.008185"
"0.00863","0.004395","0.007990"
"0.00847","0.004264","0.007809"
"0.00831","0.004131","0.007606"
"0.00814","0.003998","0.007356"
"0.00797","0.003862","0.007103"
"0.00781","0.003737","0.006836"
"0.00767","0.003621","0.006586"
"0.00757","0.003512","0.006369"
"0.00750","0.003401","0.006165"
"0.00746","0.003292","0.005978"
"0.00746","0.003228","0.005848"
"0.00751","0.003218","0.005762"
"0.00756","0.003219","0.005728"
"0.00761","0.003234","0.005729"
"0.00763","0.003214","0.005708"
"0.00757","0.003183","0.005700"
"0.00753","0.003165","0.005673"
"0.00747","0.003156","0.005620"
"0.00738","0.003151","0.005577"
"0.00737","0.003144","0.005542"
"0.00733","0.003150","0.005469"
"0.00729","0.003163","0.005435"
"0.00730","0.003203","0.005359"
"0.00728","0.003249","0.005288"
"0.00733","0.003275","0.005288"
"0.00744","0.003286","0.005278"
"0.00763","0.003267","0.005309"
"0.00783","0.003244","0.005342"
"0.00801","0.003242","0.005426"
"0.00815","0.003272","0.005608"
"0.00830","0.003338","0.005869"
"0.00849","0.003379","0.006124"
"0.00866","0.003383","0.006281"
"0.00888","0.003381","0.006335"
"0.00911","0.003369","0.006321"
"0.00935","0.003399","0.006321"
"0.00964","0.003458","0.006334"
"0.00988","0.003549","0.006355"
"0.01016","0.003666","0.006411"
"0.01135","0.003780","0.006458"
"0.01390","0.003917","0.006432"
"0.01743","0.004101","0.006397"
"0.02107","0.004275","0.006328"
"0.02406","0.004536","0.006443"
"0.02621","0.004892","0.006675"
"0.02797","0.005250","0.006906"
"0.03015","0.005637","0.007182"
"0.03222","0.005971","0.007349"
"0.03440","0.006175","0.007523"
"0.03625","0.006316","0.007654"
"0.03755","0.006387","0.007663"
"0.03832","0.006434","0.007523"
"0.03863","0.006460","0.007293"
"0.03860","0.006533","0.007097"
"0.03860","0.006671","0.006977"
"0.03856","0.006789","0.006945"
"0.03860","0.006904","0.006965"
"0.03887","0.007092","0.007091"
"0.03950","0.007194","0.007194"
"0.04012","0.007305","0.007233"
"0.03980","0.007435","0.007278"
"0.03793","0.007443","0.007296"
"0.03481","0.007395","0.007316"
"0.03154","0.007324","0.007363"
"0.02895","0.007200","0.007202"
"0.02717","0.006963","0.006929"
"0.02570","0.006819","0.006653"
"0.02394","0.006683","0.006358"
"0.02229","0.006609","0.006172"
"0.02081","0.006709","0.005939"
"0.02013","0.006799","0.005653"
"0.01997","0.006884","0.005359"
"0.02032","0.006934","0.005166"
"0.02080","0.006910","0.005073"
"0.02108","0.006836","0.005045"
"0.02122","0.006690","0.005044"
"0.02133","0.006553","0.004984"
"0.02144","0.006426","0.004926"
"0.02132","0.006305","0.004880"
"0.02102","0.006441","0.005106"
"0.02075","0.006601","0.005719"
"0.02045","0.006809","0.006421"
"0.02040","0.007076","0.007190"
"0.02050","0.007174","0.007853"
"0.02072","0.007258","0.008233"
"0.02086","0.007221","0.008567"
"0.02108","0.007151","0.008811"
"0.02133","0.006966","0.008960"
"0.02124","0.006737","0.009098"
"0.02121","0.006488","0.009245"
"0.02073","0.006179","0.009465"
"0.01971","0.005932","0.009693"
"0.01863","0.005726","0.009881"
"0.01749","0.005551","0.010010"
"0.01660","0.005455","0.010088"
"0.01621","0.005359","0.010168"
"0.01590","0.005265","0.010258"
"0.01562","0.005186","0.010376"
"0.01528","0.005102","0.010466"
"0.01494","0.004940","0.010452"
"0.01446","0.004589","0.010181"
"0.01392","0.004189","0.009546"
"0.01341","0.003742","0.008816"
"0.01281","0.003337","0.008107"
"0.01234","0.003089","0.007513"
"0.01179","0.002879","0.007207"
"0.01127","0.002731","0.006980"
"0.01076","0.002632","0.006837"
"0.01022","0.002572","0.006770"
"0.00984","0.002538","0.006735"
"0.00938","0.002540","0.006700"
"0.00906","0.002568","0.006635"
"0.00882","0.002606","0.006630"
"0.00868","0.002662","0.006710"
"0.00864","0.002728","0.006823"
"0.00862","0.002809","0.006927"
"0.00864","0.002906","0.007003"
"0.00869","0.003009","0.007069"
"0.00879","0.003115","0.007149"
"0.00894","0.003267","0.007286"
"0.00925","0.003469","0.007659"
"0.00980","0.003720","0.008322"
"0.01063","0.003944","0.009305"
"0.01198","0.004157","0.011187"
"0.01375","0.004389","0.013765"
"0.01605","0.004612","0.016655"
"0.01896","0.004842","0.019560"
"0.02229","0.005105","0.022457"
"0.02724","0.005388","0.025263"
"0.03415","0.005669","0.027961"
"0.04210","0.005924","0.030538"
"0.05035","0.006208","0.033085"
"0.05895","0.006598","0.035625"
"0.06844","0.007017","0.038374"
"0.07845","0.007418","0.041300"
"0.08849","0.007882","0.044401"
"0.09852","0.008362","0.047544"
"0.10858","0.008829","0.050677"
"0.11878","0.009293","0.053765"
"0.12907","0.009748","0.056833"
"0.13967","0.010105","0.059727"
"0.15029","0.010367","0.062232"
"0.16168","0.010520","0.064653"
"0.17303","0.010701","0.066687"
"0.18405","0.010869","0.067213"
"0.19457","0.011097","0.066623"
"0.20471","0.011387","0.065628"
"0.21451","0.011646","0.064588"
"0.22292","0.011823","0.063628"
"0.22802","0.011981","0.062869"
"0.22958","0.012262","0.062312"
"0.23025","0.012582","0.061814"
"0.23051","0.012813","0.061359"
"0.22976","0.012903","0.060717"
"0.22778","0.012918","0.059731"
"0.22614","0.012904","0.058354"
"0.22600","0.012921","0.056638"
"0.22694","0.012956","0.054909"
"0.22798","0.012993","0.053381"
"0.22876","0.013032","0.052020"
"0.22913","0.013651","0.050513"
"0.22891","0.016316","0.048517"
"0.22814","0.019574","0.046296"
"0.22564","0.022987","0.043247"
"0.22286","0.026452","0.039924"
"0.22028","0.029879","0.037216"
"0.21711","0.033201","0.034929"
"0.21334","0.036467","0.032785"
"0.20874","0.039809","0.030740"
"0.20495","0.043209","0.028643"
"0.20284","0.046568","0.026454"
"0.20199","0.049770","0.024204"
"0.20084","0.052913","0.022045"
"0.19954","0.056085","0.019829"
"0.19867","0.059243","0.017769"
"0.19774","0.062390","0.015799"
"0.19416","0.065446","0.014176"
"0.18800","0.068284","0.012737"
"0.17999","0.071099","0.011197"
"0.17170","0.073909","0.009313"
"0.16349","0.076681","0.007270"
"0.15530","0.076595","0.005921"
"0.14705","0.073759","0.005361"
"0.13881","0.070290","0.005161"
"0.13087","0.066641","0.005604"
"0.12210","0.062917","0.006442"
"0.11253","0.059261","0.007265"
"0.10362","0.055626","0.007953"
"0.09510","0.051984","0.008516"
"0.08714","0.048277","0.008995"
"0.07932","0.044558","0.009433"
"0.07149","0.040874","0.009849"
"0.06397","0.037221","0.010164"
"0.05657","0.033608","0.010393"
"0.04937","0.030017","0.010513"
"0.04243","0.026449","0.010691"
"0.03588","0.022910","0.010860"
"0.03109","0.019459","0.010912"
"0.02731","0.016114","0.010907"
"0.02432","0.012740","0.010932"
"0.02143","0.009346","0.011098"
"0.01859","0.006004","0.011273"
"0.01600","0.004954","0.010900"
"0.01368","0.004659","0.010338"
"0.01170","0.004454","0.009786"
"0.01017","0.004327","0.009207"
"0.00949","0.004223","0.008590"
"0.00924","0.004097","0.007978"
"0.00899","0.003992","0.007512"
"0.00879","0.003875","0.007122"
"0.00863","0.003770","0.006744"
"0.00844","0.003671","0.006381"
"0.00826","0.003581","0.006012"
"0.00809","0.003492","0.005705"
"0.00792","0.003411","0.005417"
"0.00783","0.003338","0.005263"
"0.00772","0.003296","0.005093"
"0.00766","0.003269","0.004951"
"0.00764","0.003286","0.004799"
"0.00765","0.003316","0.004681"
"0.00763","0.003347","0.004635"
"0.00762","0.003393","0.004614"
"0.00756","0.003415","0.004597"
"0.00750","0.003424","0.004578"
"0.00748","0.003412","0.004562"
"0.00746","0.003383","0.004547"
"0.00743","0.003360","0.004544"
"0.00742","0.003345","0.004536"
"0.00744","0.003344","0.004534"
"0.00745","0.003343","0.004524"
"0.00749","0.003359","0.004503"
"0.00751","0.003375","0.004490"
"0.00755","0.003424","0.004467"
"0.00764","0.003543","0.004468"
"0.00777","0.003686","0.004486"
"0.00806","0.003887","0.004514"
"0.00864","0.004093","0.004571"
"0.01120","0.004203","0.004563"
"0.01456","0.004218","0.004514"
"0.01837","0.004198","0.004468"
"0.02201","0.004113","0.004405"
"0.02496","0.004190","0.004887"
"0.02820","0.004369","0.006126"
"0.03087","0.004656","0.007820"
"0.03399","0.004975","0.009679"
"0.03826","0.005263","0.011679"
"0.04224","0.005460","0.012777"
"0.04528","0.005584","0.013607"
"0.04799","0.005654","0.014166"
"0.05013","0.005712","0.014597"
"0.05074","0.005762","0.014865"
"0.05124","0.005816","0.015022"
"0.05161","0.005886","0.015090"
"0.05176","0.005921","0.015268"
"0.05185","0.005901","0.015609"
"0.05192","0.005871","0.015943"
"0.05184","0.005751","0.016253"
"0.05146","0.005641","0.016522"
"0.04910","0.005592","0.016665"
"0.04592","0.005631","0.016755"
"0.04233","0.005724","0.016812"
"0.03900","0.005903","0.016875"
"0.03651","0.005903","0.016373"
"0.03374","0.005851","0.015100"
"0.03164","0.005659","0.013407"
"0.02917","0.005437","0.011580"
"0.02564","0.005240","0.009822"
"0.02249","0.005179","0.009153"
"0.02036","0.005180","0.008873"
"0.01872","0.005232","0.008955"
"0.01742","0.005267","0.009098"
"0.01748","0.005314","0.009205"
"0.01754","0.005353","0.009305"
"0.01765","0.005431","0.009405"
"0.01766","0.005522","0.009360"
"0.01769","0.005584","0.009140"
"0.01768","0.005631","0.008938"
"0.01767","0.005731","0.008869"
"0.01770","0.005767","0.008963"
"0.01771","0.005837","0.009325"
"0.01770","0.005918","0.009839"
"0.01765","0.005944","0.010338"
"0.01744","0.005905","0.010774"
"0.01710","0.005849","0.011116"
"0.01673","0.005737","0.011326"
"0.01628","0.005642","0.011476"
"0.01572","0.005530","0.011561"
"0.01507","0.005443","0.011452"
"0.01432","0.005310","0.011386"
"0.01349","0.005180","0.011416"
"0.01254","0.005026","0.011445"
"0.01178","0.004896","0.011562"
"0.01117","0.004756","0.011794"
"0.01067","0.004638","0.011845"
"0.01029","0.004472","0.012069"
"0.01025","0.004291","0.012356"
"0.01024","0.004132","0.012685"
"0.01021","0.003986","0.013007"
"0.01017","0.003817","0.013188"
"0.01011","0.003692","0.013219"
"0.01003","0.003554","0.013150"
"0.01002","0.003417","0.013021"
"0.00998","0.003313","0.012940"
"0.00999","0.003238","0.012967"
"0.01000","0.003200","0.013139"
"0.01003","0.003175","0.013472"
"0.01007","0.003170","0.013835"
"0.01015","0.003186","0.014208"
"0.01023","0.003205","0.014567"
"0.01030","0.003233","0.014596"
"0.01038","0.003269","0.014404"
"0.01041","0.003321","0.014088"
"0.01041","0.003380","0.013730"
"0.01047","0.003448","0.013431"
"0.01052","0.003506","0.013427"
"0.01052","0.003565","0.013343"
"0.01048","0.003627","0.013260"
"0.01043","0.003675","0.013121"
"0.01045","0.003735","0.012959"
"0.01061","0.003843","0.012753"
"0.01077","0.003967","0.012535"
"0.01094","0.004104","0.012317"
"0.01106","0.004252","0.012090"
"0.01121","0.004447","0.011819"
"0.01137","0.004665","0.011515"
"0.01153","0.004893","0.011148"
"0.01170","0.005128","0.010750"
"0.01192","0.005454","0.010345"
"0.01219","0.005852","0.009977"
"0.01249","0.006375","0.009604"
"0.01287","0.007069","0.009313"
"0.01335","0.007965","0.009000"
"0.01383","0.008866","0.008744"
"0.01433","0.009786","0.008535"
"0.01481","0.010685","0.008389"
"0.01524","0.011597","0.008347"
"0.01583","0.012610","0.008842"
"0.01718","0.013673","0.009602"
"0.01891","0.014803","0.010573"
"0.02216","0.016161","0.012310"
"0.02867","0.017517","0.015979"
"0.03733","0.020595","0.020430"
"0.04824","0.024151","0.025796"
"0.06073","0.033312","0.032217"
"0.07427","0.044924","0.039432"
"0.08802","0.057085","0.046740"
"0.10179","0.069837","0.053954"
"0.11563","0.082571","0.061865"
"0.12932","0.098229","0.076157"
"0.14312","0.115263","0.092960"
"0.15880","0.132217","0.110155"
"0.17803","0.148828","0.126967"
"0.19804","0.165068","0.143331"
"0.21770","0.181253","0.159465"
"0.23771","0.197155","0.176351"
"0.25527","0.213018","0.194348"
"0.27427","0.227737","0.211668"
"0.29333","0.242877","0.227460"
"0.31236","0.255599","0.242422"
"0.32977","0.263743","0.262148"
"0.34631","0.271207","0.282713"
"0.36286","0.279495","0.301116"
"0.37794","0.285997","0.318733"
"0.39125","0.291253","0.330468"
"0.40380","0.287457","0.337163"
"0.41672","0.280839","0.342742"
"0.42817","0.273653","0.348678"
"0.43732","0.265954","0.354876"
"0.44604","0.258331","0.360498"
"0.45418","0.247766","0.359498"
"0.46133","0.235853","0.354177"
"0.46484","0.223899","0.346485"
"0.46132","0.211422","0.339365"
"0.45622","0.197326","0.332962"
"0.45030","0.182887","0.323028"
"0.44420","0.168612","0.308281"
"0.43873","0.152709","0.292798"
"0.43029","0.137354","0.278221"
"0.42144","0.121411","0.264841"
"0.41156","0.107843","0.252047"
"0.40256","0.098739","0.233890"
"0.39021","0.090085","0.213509"
"0.37402","0.080559","0.193273"
"0.35714","0.071031","0.172872"
"0.33976","0.062174","0.157314"
"0.32151","0.056706","0.145681"
"0.30206","0.051519","0.134370"
"0.28422","0.046296","0.122435"
"0.26848","0.040941","0.110274"
"0.25241","0.035525","0.098010"
"0.23663","0.030039","0.085795"
"0.22026","0.024455","0.074930"
"0.20480","0.018876","0.065810"
"0.19285","0.013976","0.056305"
"0.18206","0.010825","0.046391"
"0.17177","0.008045","0.040263"
"0.16112","0.005369","0.038168"
"0.15259","0.004350","0.035639"
"0.14550","0.003909","0.032679"
"0.13813","0.003539","0.029511"
"0.12984","0.003215","0.026334"
"0.12186","0.002958","0.023484"
"0.11651","0.002709","0.021290"
"0.11148","0.002462","0.019266"
"0.10622","0.002301","0.017433"
"0.10006","0.002316","0.015777"
"0.09392","0.002443","0.014178"
"0.08692","0.002645","0.012660"
"0.07947","0.002952","0.011313"
"0.07225","0.003413","0.010009"
"0.06577","0.003943","0.008676"
"0.05975","0.004467","0.007577"
"0.05515","0.004976","0.006958"
"0.05136","0.005471","0.006645"
"0.04748","0.005977","0.006639"
"0.04312","0.006504","0.006870"
"0.03936","0.006974","0.007089"
"0.03578","0.007439","0.007327"
"0.03189","0.007888","0.007594"
"0.02809","0.008234","0.008050"
"0.02471","0.008481","0.008583"
"0.02248","0.008664","0.009077"
"0.02025","0.008833","0.009618"
"0.01807","0.008963","0.010043"
"0.01604","0.009070","0.010372"
"0.01420","0.009100","0.010681"
"0.01328","0.009031","0.010881"
"0.01237","0.008866","0.011065"
"0.01207","0.008661","0.011171"
"0.01185","0.008394","0.011224"
"0.01165","0.008007","0.011253"
"0.01140","0.007544","0.011295"
"0.01109","0.007079","0.011302"
"0.01077","0.006628","0.011271"
"0.01044","0.006184","0.011173"
"0.01012","0.005745","0.010985"
"0.00984","0.005326","0.010745"
"0.00960","0.004986","0.010468"
"0.00940","0.004644","0.010177"
"0.00922","0.004330","0.009889"
"0.00902","0.004124","0.009520"
"0.00887","0.004010","0.009083"
"0.00881","0.003906","0.008647"
"0.00879","0.003805","0.008243"
"0.00876","0.003724","0.007924"
"0.00870","0.003669","0.007652"
"0.00864","0.003662","0.007346"
"0.00857","0.003664","0.007101"
"0.00853","0.003690","0.006887"
"0.00851","0.003721","0.006690"
"0.00850","0.003747","0.006544"
"0.00842","0.003769","0.006452"
"0.00836","0.003805","0.006363"
"0.00829","0.003835","0.006291"
"0.00821","0.003854","0.006223"
"0.00818","0.003864","0.006177"
"0.00817","0.003858","0.006169"
"0.00817","0.003838","0.006143"
"0.00817","0.003811","0.006118"
"0.00818","0.003777","0.006093"
"0.00818","0.003746","0.006059"
"0.00823","0.003709","0.006027"
"0.00828","0.003658","0.005976"
"0.00831","0.003609","0.005931"
"0.00835","0.003567","0.005893"
"0.00840","0.003518","0.005848"
"0.00842","0.003467","0.005784"
"0.00844","0.003407","0.005762"
"0.00845","0.003340","0.005743"
"0.00844","0.003277","0.005707"
"0.00843","0.003239","0.005724"
"0.00842","0.003225","0.005779"
"0.00841","0.003263","0.005843"
"0.00839","0.003312","0.005927"
"0.00840","0.003375","0.006056"
"0.00839","0.003463","0.006206"
"0.00836","0.003576","0.006350"
"0.00830","0.003714","0.006449"
"0.00823","0.003858","0.006551"
"0.00816","0.004013","0.006666"
"0.00805","0.004175","0.006774"
"0.00795","0.004293","0.006844"
"0.00782","0.004391","0.006902"
"0.00769","0.004459","0.007015"
"0.00757","0.004508","0.007179"
"0.00743","0.004537","0.007516"
"0.00731","0.004555","0.007898"
"0.00724","0.004564","0.008494"
"0.00718","0.004582","0.009440"
"0.00719","0.004616","0.010479"
"0.00723","0.004671","0.011701"
"0.00730","0.004744","0.013023"
"0.00739","0.004795","0.014750"
"0.00752","0.004799","0.016598"
"0.00790","0.004798","0.018386"
"0.00856","0.004853","0.020074"
"0.00960","0.004939","0.021785"
"0.01107","0.005012","0.023783"
"0.01273","0.005062","0.026127"
"0.01456","0.005107","0.028699"
"0.01646","0.005160","0.031310"
"0.01841","0.005208","0.033962"
"0.02041","0.005291","0.036692"
"0.02287","0.005396","0.039472"
"0.02589","0.005549","0.042168"
"0.02919","0.005725","0.044643"
"0.03264","0.005904","0.046824"
"0.03612","0.006106","0.048923"
"0.03982","0.006311","0.050843"
"0.04357","0.006508","0.052449"
"0.04740","0.006676","0.054041"
"0.05151","0.006793","0.055507"
"0.05570","0.006869","0.056793"
"0.05990","0.006912","0.057572"
"0.06407","0.006945","0.058190"
"0.06801","0.006949","0.058840"
"0.07174","0.006888","0.059472"
"0.07518","0.006778","0.059909"
"0.07820","0.006653","0.059954"
"0.08106","0.006554","0.059637"
"0.08374","0.006473","0.059072"
"0.08642","0.006394","0.058464"
"0.08891","0.006308","0.057953"
"0.09111","0.006187","0.057494"
"0.09252","0.006022","0.056934"
"0.09299","0.005868","0.055943"
"0.09308","0.005723","0.054765"
"0.09285","0.005584","0.053462"
"0.09258","0.005423","0.052137"
"0.09213","0.005274","0.050773"
"0.09166","0.005142","0.049306"
"0.09057","0.005042","0.047700"
"0.08877","0.004975","0.046045"
"0.08679","0.004902","0.044542"
"0.08474","0.004863","0.043145"
"0.08272","0.004822","0.041841"
"0.08059","0.004791","0.040683"
"0.07845","0.004775","0.039682"
"0.07617","0.004762","0.038769"
"0.07361","0.004766","0.037896"
"0.07092","0.004762","0.037004"
"0.06821","0.004754","0.036136"
"0.06547","0.004729","0.035227"
"0.06283","0.004715","0.034180"
"0.06038","0.004747","0.033028"
"0.05821","0.004841","0.031894"
"0.05639","0.004912","0.031165"
"0.05467","0.004963","0.030693"
"0.05311","0.004997","0.030444"
"0.05154","0.005028","0.030223"
"0.04983","0.005065","0.029951"
"0.04796","0.005100","0.029682"
"0.04656","0.005112","0.029454"
"0.04558","0.005104","0.029205"
"0.04465","0.005098","0.028842"
"0.04372","0.005094","0.028417"
"0.04271","0.005107","0.027938"
"0.04172","0.005117","0.027334"
"0.04058","0.005120","0.026647"
"0.03948","0.005104","0.026035"
"0.03864","0.005075","0.025486"
"0.03773","0.005116","0.024927"
"0.03683","0.005200","0.024307"
"0.03583","0.005342","0.023651"
"0.03471","0.005507","0.022843"
"0.03355","0.005685","0.021903"
"0.03241","0.005870","0.021011"
"0.03129","0.006079","0.020232"
"0.03020","0.006307","0.019581"
"0.02909","0.006547","0.018950"
"0.02801","0.006816","0.018327"
"0.02700","0.007073","0.017826"
"0.02609","0.007310","0.017430"
"0.02521","0.007557","0.017087"
"0.02434","0.007823","0.016798"
"0.02346","0.008102","0.016525"
"0.02260","0.008378","0.016300"
"0.02172","0.008634","0.016094"
"0.02091","0.008885","0.015886"
"0.02017","0.009129","0.015687"
"0.01947","0.009390","0.015502"
"0.01875","0.009657","0.015316"
"0.01820","0.009851","0.015191"
"0.01766","0.009991","0.015138"
"0.01719","0.010075","0.015156"
"0.01687","0.010137","0.015348"
"0.01663","0.010180","0.015684"
"0.01643","0.010206","0.016016"
"0.01616","0.010201","0.016241"
"0.01583","0.010093","0.016418"
"0.01547","0.009943","0.016576"
"0.01512","0.009725","0.016724"
"0.01475","0.009482","0.016867"
"0.01439","0.009232","0.016964"
"0.01403","0.008964","0.016986"
"0.01365","0.008666","0.016929"
"0.01328","0.008344","0.016845"
"0.01290","0.008017","0.016718"
"0.01256","0.007694","0.016571"
"0.01222","0.007385","0.016401"
"0.01187","0.007089","0.016174"
"0.01153","0.006792","0.015894"
"0.01118","0.006488","0.015576"
"0.01084","0.006173","0.015241"
"0.01050","0.005861","0.014865"
"0.01015","0.005552","0.014465"
"0.00981","0.005243","0.014047"
"0.00950","0.004937","0.013604"
"0.00919","0.004626","0.013139"
"0.00895","0.004326","0.012721"
"0.00877","0.004113","0.012322"
"0.00863","0.003945","0.011923"
"0.00849","0.003829","0.011553"
"0.00838","0.003732","0.011170"
"0.00828","0.003648","0.010781"
"0.00818","0.003581","0.010427"
"0.00810","0.003532","0.010120"
"0.00802","0.003494","0.009822"
"0.00795","0.003462","0.009530"
"0.00789","0.003446","0.009233"
"0.00784","0.003437","0.008941"
"0.00778","0.003421","0.008682"
"0.00772","0.003407","0.008448"
"0.00766","0.003398","0.008242"
"0.00759","0.003399","0.008022"
"0.00753","0.003396","0.007830"
"0.00747","0.003390","0.007657"
"0.00742","0.003381","0.007476"
"0.00737","0.003369","0.007308"
"0.00731","0.003358","0.007159"
"0.00725","0.003346","0.007015"
"0.00718","0.003337","0.006871"
"0.00711","0.003330","0.006738"
"0.00704","0.003323","0.006616"
"0.00697","0.003317","0.006500"
"0.00689","0.003309","0.006396"
"0.00681","0.003304","0.006299"
"0.00673","0.003302","0.006197"
"0.00665","0.003297","0.006093"
"0.00658","0.003290","0.005995"
"0.00651","0.003279","0.005909"
"0.00645","0.003263","0.005838"
"0.00639","0.003248","0.005778"
"0.00634","0.003236","0.005724"
"0.00628","0.003224","0.005674"
"0.00623","0.003211","0.005641"
"0.00618","0.003201","0.005603"
"0.00612","0.003189","0.005563"
"0.00606","0.003179","0.005532"
"0.00601","0.003171","0.005506"
"0.00596","0.003164","0.005481"
"0.00593","0.003156","0.005461"
"0.00590","0.003147","0.005444"
"0.00589","0.003139","0.005432"
"0.00588","0.003138","0.005413"
"0.00587","0.003145","0.005398"
"0.00586","0.003154","0.005382"
"0.00585","0.003159","0.005369"
"0.00585","0.003168","0.005356"
"0.00584","0.003177","0.005352"
"0.00585","0.003185","0.005353"
"0.00586","0.003189","0.005349"
"0.00587","0.003191","0.005340"
"0.00588","0.003191","0.005328"
"0.00590","0.003185","0.005320"
"0.00591","0.003181","0.005306"
"0.00593","0.003180","0.005295"
"0.00594","0.003176","0.005290"
"0.00597","0.003175","0.005282"
"0.00599","0.003174","0.005276"
"0.00601","0.003170","0.005268"
"0.00602","0.003162","0.005262"
"0.00604","0.003150","0.005258"
"0.00605","0.003142","0.005259"
"0.00607","0.003146","0.005351"
"0.00608","0.003150","0.005551"
"0.00613","0.003154","0.005830"
"0.00623","0.003184","0.006167"
"0.00640","0.003239","0.006591"
"0.00664","0.003306","0.007260"
"0.00717","0.003388","0.008014"
"0.00811","0.003457","0.008818"
"0.00926","0.003548","0.009626"
"0.01073","0.003642","0.010413"
"0.01239","0.003737","0.011188"
"0.01414","0.003855","0.011951"
"0.01592","0.003988","0.012714"
"0.01796","0.004115","0.013458"
"0.02028","0.004259","0.014184"
"0.02275","0.004417","0.014901"
"0.02548","0.004593","0.015614"
"0.02843","0.004770","0.016327"
"0.03143","0.004956","0.017036"
"0.03443","0.005147","0.017742"
"0.03744","0.005333","0.018447"
"0.04046","0.005506","0.019064"
"0.04349","0.005672","0.019576"
"0.04650","0.005831","0.020009"
"0.04946","0.005970","0.020384"
"0.05235","0.006087","0.020670"
"0.05519","0.006213","0.020707"
"0.05782","0.006343","0.020651"
"0.06016","0.006506","0.020531"
"0.06236","0.006651","0.020407"
"0.06429","0.006795","0.020300"
"0.06606","0.006945","0.020205"
"0.06778","0.007077","0.020122"
"0.06951","0.007199","0.020036"
"0.07099","0.007323","0.019969"
"0.07220","0.007434","0.019915"
"0.07328","0.007530","0.019844"
"0.07409","0.007600","0.019737"
"0.07470","0.007668","0.019574"
"0.07527","0.007728","0.019351"
"0.07586","0.007785","0.019070"
"0.07644","0.007839","0.018761"
"0.07698","0.007888","0.018433"
"0.07752","0.007920","0.018064"
"0.07805","0.007950","0.017655"
"0.07857","0.007956","0.017187"
"0.07909","0.007961","0.016629"
"0.07958","0.007941","0.015925"
"0.07988","0.007892","0.015199"
"0.07989","0.007831","0.014444"
"0.07962","0.007780","0.013662"
"0.07909","0.007738","0.012853"
"0.07850","0.007685","0.012043"
"0.07772","0.007633","0.011240"
"0.07674","0.007573","0.010452"
"0.07558","0.007517","0.009675"
"0.07436","0.007460","0.008905"
"0.07308","0.007395","0.008168"
"0.07175","0.007333","0.007485"
"0.07043","0.007270","0.006882"
"0.06913","0.007203","0.006397"
"0.06771","0.007179","0.005995"
"0.06619","0.007232","0.005664"
"0.06450","0.007295","0.005419"
"0.06274","0.007423","0.005238"
"0.06094","0.007612","0.005153"
"0.05911","0.007853","0.005162"
"0.05710","0.008103","0.005289"
"0.05500","0.008363","0.005593"
"0.05290","0.008644","0.005939"
"0.05092","0.008918","0.006347"
"0.04916","0.009202","0.006804"
"0.04757","0.009505","0.007293"
"0.04602","0.009819","0.007793"
"0.04463","0.010153","0.008295"
"0.04338","0.010497","0.008788"
"0.04230","0.010854","0.009278"
"0.04127","0.011213","0.009766"
"0.04029","0.011578","0.010264"
"0.03934","0.011945","0.010765"
"0.03839","0.012318","0.011254"
"0.03737","0.012683","0.011706"
"0.03636","0.013012","0.012145"
"0.03532","0.013266","0.012566"
"0.03444","0.013519","0.012919"
"0.03356","0.013736","0.013256"
"0.03270","0.013893","0.013527"
"0.03184","0.014016","0.013764"
"0.03114","0.014134","0.013973"
"0.03052","0.014250","0.014160"
"0.03001","0.014369","0.014345"
"0.02953","0.014492","0.014518"
"0.02904","0.014596","0.014673"
"0.02856","0.014676","0.014831"
"0.02806","0.014748","0.014983"
"0.02753","0.014795","0.015127"
"0.02700","0.014836","0.015265"
"0.02645","0.014869","0.015401"
"0.02588","0.014910","0.015534"
"0.02529","0.014954","0.015657"
"0.02466","0.014997","0.015769"
"0.02399","0.015043","0.015871"
"0.02334","0.015098","0.015952"
"0.02275","0.015153","0.016016"
"0.02228","0.015211","0.016055"
"0.02183","0.015264","0.016091"
"0.02141","0.015307","0.016123"
"0.02099","0.015353","0.016160"
"0.02057","0.015401","0.016199"
"0.02018","0.015447","0.016235"
"0.01980","0.015490","0.016271"
"0.01942","0.015524","0.016295"
"0.01905","0.015564","0.016308"
"0.01867","0.015602","0.016312"
"0.01827","0.015639","0.016281"
"0.01784","0.015675","0.016198"
"0.01742","0.015637","0.016105"
"0.01699","0.015567","0.015947"
"0.01655","0.015462","0.015755"
"0.01608","0.015297","0.015522"
"0.01551","0.014960","0.015132"
"0.01494","0.014566","0.014664"
"0.01437","0.014133","0.014150"
"0.01382","0.013679","0.013611"
"0.01327","0.013190","0.013073"
"0.01274","0.012676","0.012531"
"0.01223","0.012145","0.011995"
"0.01176","0.011617","0.011456"
"0.01132","0.011066","0.010926"
"0.01089","0.010501","0.010403"
"0.01045","0.009926","0.009876"
"0.01003","0.009340","0.009370"
"0.00960","0.008761","0.008856"
"0.00916","0.008180","0.008343"
"0.00874","0.007617","0.007826"
"0.00835","0.007071","0.007337"
"0.00800","0.006531","0.006911"
"0.00770","0.006061","0.006482"
"0.00744","0.005608","0.006112"
"0.00723","0.005168","0.005776"
"0.00709","0.004777","0.005472"
"0.00708","0.004527","0.005323"
"0.00714","0.004334","0.005260"
"0.00722","0.004182","0.005254"
"0.00729","0.004056","0.005275"
"0.00734","0.003971","0.005294"
"0.00740","0.003918","0.005315"
"0.00747","0.003898","0.005330"
"0.00751","0.003875","0.005340"
"0.00754","0.003877","0.005321"
"0.00758","0.003884","0.005278"
"0.00767","0.003886","0.005237"
"0.00775","0.003903","0.005168"
"0.00782","0.003885","0.005164"
"0.00794","0.003860","0.005167"
"0.00808","0.003815","0.005179"
"0.00822","0.003770","0.005192"
"0.00841","0.003732","0.005178"
"0.00863","0.003689","0.005176"
"0.00891","0.003683","0.005144"
"0.00913","0.003705","0.005087"
"0.00930","0.003727","0.005035"
"0.00944","0.003751","0.004986"
"0.00951","0.003763","0.004937"
"0.00955","0.003762","0.004879"
"0.00945","0.003743","0.004829"
"0.00937","0.003720","0.004772"
"0.00926","0.003669","0.004719"
"0.00915","0.003613","0.004670"
"0.00907","0.003562","0.004625"
"0.00905","0.003573","0.004741"
"0.00912","0.003820","0.005032"
"0.00921","0.004239","0.005401"
"0.00930","0.004692","0.005817"
"0.00942","0.005253","0.006198"
"0.00954","0.005833","0.006612"
"0.00966","0.006436","0.007066"
"0.00968","0.006844","0.007328"
"0.00959","0.007021","0.007555"
"0.00946","0.007159","0.007736"
"0.00924","0.007243","0.007921"
"0.00903","0.007298","0.008138"
"0.00886","0.007340","0.008350"
"0.00870","0.007401","0.008568"
"0.00856","0.007482","0.008739"
"0.00846","0.007586","0.008911"
"0.00852","0.007693","0.009102"
"0.00861","0.007812","0.009308"
"0.00872","0.007960","0.009493"
"0.00886","0.008096","0.009672"
"0.00903","0.008205","0.009862"
"0.00933","0.008227","0.009913"
"0.00954","0.007988","0.009784"
"0.00971","0.007572","0.009534"
"0.00986","0.007077","0.009254"
"0.00998","0.006473","0.008956"
"0.01002","0.005846","0.008602"
"0.00997","0.005200","0.008194"
"0.00989","0.004742","0.007960"
"0.00983","0.004501","0.007749"
"0.00978","0.004313","0.007581"
"0.00971","0.004161","0.007417"
"0.00966","0.004039","0.007224"
"0.00960","0.003947","0.007027"
"0.00955","0.003878","0.006830"
"0.00954","0.003823","0.006676"
"0.00954","0.003767","0.006536"
"0.00953","0.003724","0.006387"
"0.00951","0.003658","0.006234"
"0.00949","0.003574","0.006110"
"0.00942","0.003510","0.006003"
"0.00932","0.003448","0.005873"
"0.00902","0.003395","0.005744"
"0.00872","0.003389","0.005622"
"0.00843","0.003413","0.005572"
"0.00815","0.003504","0.005536"
"0.00792","0.003638","0.005515"
"0.00774","0.003789","0.005527"
"0.00766","0.003963","0.005582"
"0.00771","0.004173","0.005664"
"0.00778","0.004374","0.005763"
"0.00787","0.004584","0.005860"
"0.00797","0.004802","0.005985"
"0.00807","0.005006","0.006128"
"0.00818","0.005182","0.006277"
"0.00830","0.005345","0.006409"
"0.00840","0.005502","0.006529"
"0.00849","0.005659","0.006633"
"0.00863","0.005877","0.006730"
"0.00883","0.006150","0.006822"
"0.00904","0.006572","0.006863"
"0.00930","0.007073","0.006890"
"0.00960","0.007590","0.006960"
"0.00995","0.008106","0.007079"
"0.01032","0.008606","0.007232"
"0.01072","0.009083","0.007482"
"0.01118","0.009523","0.008017"
"0.01163","0.009964","0.009028"
"0.01220","0.010443","0.010580"
"0.01307","0.010949","0.012476"
"0.01409","0.011393","0.014587"
"0.01524","0.011847","0.016971"
"0.01663","0.012318","0.019747"
"0.01854","0.012763","0.022893"
"0.02077","0.013183","0.026451"
"0.02360","0.013597","0.030894"
"0.02699","0.013996","0.035448"
"0.03070","0.014344","0.040484"
"0.03454","0.014651","0.046677"
"0.03861","0.014783","0.053075"
"0.04293","0.014721","0.059544"
"0.04775","0.014481","0.065996"
"0.05283","0.014138","0.072389"
"0.05818","0.013796","0.078688"
"0.06381","0.013459","0.084894"
"0.06954","0.013123","0.091648"
"0.07600","0.012743","0.098225"
"0.08298","0.012282","0.104013"
"0.08992","0.011737","0.108895"
"0.09693","0.011134","0.112925"
"0.10423","0.010485","0.116364"
"0.11172","0.009806","0.119187"
"0.11881","0.009120","0.121308"
"0.12534","0.008425","0.122837"
"0.13107","0.007752","0.123685"
"0.13668","0.007069","0.125029"
"0.14174","0.006379","0.125524"
"0.14623","0.005694","0.124666"
"0.15016","0.005053","0.122928"
"0.15367","0.004455","0.119979"
"0.15636","0.003966","0.116826"
"0.15837","0.003640","0.113615"
"0.16003","0.003372","0.110445"
"0.16121","0.003152","0.107342"
"0.16220","0.002931","0.103802"
"0.16235","0.002744","0.099742"
"0.16149","0.002602","0.094854"
"0.15961","0.002510","0.089962"
"0.15676","0.002519","0.085558"
"0.15332","0.002612","0.081596"
"0.14903","0.002716","0.077973"
"0.14393","0.002813","0.074584"
"0.13840","0.002956","0.071530"
"0.13284","0.003114","0.068522"
"0.12714","0.003270","0.064494"
"0.12118","0.003430","0.060383"
"0.11488","0.003626","0.055303"
"0.10841","0.003843","0.050204"
"0.10196","0.004073","0.046346"
"0.09573","0.004293","0.042896"
"0.08979","0.004490","0.039496"
"0.08419","0.004672","0.036099"
"0.07850","0.004813","0.032718"
"0.07239","0.004912","0.029360"
"0.06633","0.004976","0.025990"
"0.06010","0.005038","0.023116"
"0.05440","0.005071","0.020801"
"0.04958","0.005047","0.018753"
"0.04495","0.005018","0.016764"
"0.04074","0.004969","0.014778"
"0.03713","0.004905","0.012759"
"0.03410","0.004829","0.010704"
"0.03126","0.004746","0.008635"
"0.02829","0.004672","0.006633"
"0.02556","0.004589","0.005026"
"0.02321","0.004486","0.004625"
"0.02139","0.004368","0.004606"
"0.01973","0.004248","0.004644"
"0.01815","0.004124","0.004683"
"0.01658","0.003995","0.004730"
"0.01502","0.003870","0.004774"
"0.01347","0.003752","0.004825"
"0.01212","0.003652","0.004859"
"0.01125","0.003576","0.004866"
"0.01061","0.003525","0.004865"
"0.01011","0.003472","0.004875"
"0.00964","0.003430","0.004890"
"0.00918","0.003381","0.004913"
"0.00874","0.003343","0.004925"
"0.00832","0.003318","0.004931"
"0.00790","0.003326","0.005342"
"0.00752","0.003337","0.006071"
"0.00722","0.003352","0.006847"
"0.00694","0.003380","0.007635"
"0.00690","0.003405","0.008419"
"0.00694","0.003434","0.009189"
"0.00702","0.003463","0.009969"
"0.00713","0.003481","0.010123"
"0.00722","0.003502","0.010172"
"0.00731","0.003547","0.010190"
"0.00740","0.003593","0.010197"
"0.00746","0.003626","0.010212"
"0.00752","0.003654","0.010226"
"0.00757","0.003686","0.010237"
"0.00763","0.003704","0.010244"
"0.00768","0.003714","0.010253"
"0.00772","0.003707","0.010288"
"0.00779","0.003690","0.010322"
"0.00789","0.003691","0.010357"
"0.00798","0.003692","0.010401"
"0.00807","0.003688","0.010447"
"0.00820","0.003654","0.010072"
"0.00830","0.003621","0.009331"
"0.00837","0.003587","0.008535"
"0.00845","0.003548","0.007736"
"0.00846","0.003499","0.006922"
"0.00846","0.003456","0.006120"
"0.00848","0.003419","0.005334"
"0.00846","0.003395","0.005200"
"0.00844","0.003372","0.005170"
"0.00841","0.003341","0.005163"
"0.00838","0.003334","0.005159"
"0.00840","0.003331","0.005147"
"0.00842","0.003346","0.005131"
"0.00844","0.003360","0.005129"
"0.00846","0.003393","0.005139"
"0.00852","0.003426","0.005155"
"0.00859","0.003462","0.005141"
"0.00865","0.003480","0.005132"
"0.00867","0.003492","0.005127"
"0.00869","0.003491","0.005113"
"0.00870","0.003501","0.005085"
"0.00868","0.003551","0.005050"
"0.00866","0.003625","0.005053"
"0.00865","0.003709","0.005053"
"0.00863","0.003784","0.005045"
"0.00865","0.003866","0.005042"
"0.00865","0.003928","0.005074"
"0.00864","0.003963","0.005128"
"0.00865","0.003955","0.005176"
"0.00867","0.003944","0.005218"
"0.00872","0.003922","0.005255"
"0.00875","0.003875","0.005297"
"0.00872","0.003839","0.005349"
"0.00869","0.003802","0.005350"
"0.00865","0.003757","0.005358"
"0.00862","0.003704","0.005355"
"0.00853","0.003653","0.005345"
"0.00842","0.003619","0.005325"
"0.00831","0.003606","0.005301"
"0.00819","0.003594","0.005263"
"0.00808","0.003595","0.005218"
"0.00795","0.003590","0.005175"
"0.00783","0.003558","0.005148"
"0.00773","0.003494","0.005132"
"0.00762","0.003417","0.005133"
"0.00753","0.003363","0.005148"
"0.00743","0.003306","0.005186"
"0.00736","0.003259","0.005215"
"0.00729","0.003238","0.005248"
"0.00722","0.003253","0.005307"
"0.00716","0.003279","0.005379"
"0.00708","0.003306","0.005450"
"0.00699","0.003318","0.005511"
"0.00695","0.003331","0.005553"
"0.00691","0.003328","0.005603"
"0.00686","0.003334","0.005616"
"0.00681","0.003345","0.005614"
"0.00681","0.003352","0.005604"
"0.00680","0.003347","0.005600"
"0.00682","0.003343","0.005615"
"0.00684","0.003331","0.005645"
"0.00687","0.003314","0.005694"
"0.00691","0.003293","0.005751"
"0.00692","0.003257","0.005809"
"0.00693","0.003218","0.005888"
"0.00696","0.003187","0.005993"
"0.00695","0.003139","0.006086"
"0.00691","0.003090","0.006159"
"0.00687","0.003044","0.006199"
"0.00683","0.002999","0.006221"
"0.00681","0.002964","0.006238"
"0.00677","0.002923","0.006209"
"0.00672","0.002880","0.006158"
"0.00671","0.002848","0.006308"
"0.00672","0.002828","0.006529"
"0.00690","0.002812","0.007076"
"0.00731","0.002778","0.007776"
"0.00804","0.002737","0.008641"
"0.00911","0.002741","0.009558"
"0.01052","0.002736","0.010462"
"0.01213","0.002732","0.011334"
"0.01392","0.002726","0.012137"
"0.01575","0.002724","0.012896"
"0.01760","0.002727","0.013572"
"0.01992","0.002730","0.014181"
"0.02257","0.002734","0.014731"
"0.02537","0.002733","0.015231"
"0.02824","0.002730","0.015711"
"0.03120","0.002729","0.016176"
"0.03434","0.002729","0.016515"
"0.03772","0.002727","0.016736"
"0.04114","0.002730","0.016897"
"0.04460","0.002726","0.017087"
"0.04809","0.002730","0.017291"
"0.05156","0.002731","0.017270"
"0.05493","0.002723","0.017132"
"0.05817","0.002733","0.016631"
"0.06114","0.002754","0.015944"
"0.06381","0.002786","0.015086"
"0.06630","0.002767","0.014233"
"0.06886","0.002740","0.013472"
"0.07119","0.002708","0.012834"
"0.07329","0.002661","0.012316"
"0.07523","0.002608","0.011854"
"0.07688","0.002563","0.011491"
"0.07782","0.002534","0.011219"
"0.07827","0.002516","0.010989"
"0.07854","0.002507","0.010765"
"0.07873","0.002507","0.010556"
"0.07820","0.002524","0.010401"
"0.07733","0.002546","0.010368"
"0.07621","0.002573","0.010426"
"0.07503","0.002586","0.010520"
"0.07393","0.002581","0.010627"
"0.07271","0.002576","0.010760"
"0.07131","0.002583","0.010928"
"0.06986","0.002593","0.011118"
"0.06835","0.002592","0.011371"
"0.06684","0.002594","0.011677"
"0.06525","0.002593","0.012010"
"0.06348","0.002600","0.012292"
"0.06119","0.002624","0.012507"
"0.05882","0.002666","0.012611"
"0.05648","0.002725","0.012612"
"0.05395","0.002805","0.012538"
"0.05132","0.002888","0.012340"
"0.04883","0.002966","0.011982"
"0.04648","0.003035","0.011580"
"0.04415","0.003100","0.011163"
"0.04185","0.003160","0.010744"
"0.04019","0.003199","0.010284"
"0.03870","0.003230","0.009825"
"0.03720","0.003251","0.009379"
"0.03572","0.003282","0.008938"
"0.03414","0.003329","0.008495"
"0.03263","0.003377","0.008047"
"0.03119","0.003419","0.007605"
"0.02978","0.003462","0.007204"
"0.02824","0.003516","0.006820"
"0.02664","0.003574","0.006451"
"0.02505","0.003631","0.006111"
"0.02348","0.003695","0.005794"
"0.02203","0.003776","0.005476"
"0.02066","0.003861","0.005167"
"0.01932","0.003957","0.004917"
"0.01827","0.004043","0.004731"
"0.01759","0.004120","0.004666"
"0.01700","0.004204","0.004767"
"0.01640","0.004297","0.004921"
"0.01579","0.004393","0.005120"
"0.01517","0.004509","0.005343"
"0.01453","0.004631","0.005592"
"0.01388","0.004759","0.005865"
"0.01321","0.004895","0.006143"
"0.01255","0.005030","0.006418"
"0.01189","0.005170","0.006704"
"0.01129","0.005311","0.006997"
"0.01078","0.005458","0.007287"
"0.01036","0.005602","0.007571"
"0.01012","0.005746","0.007855"
"0.00997","0.005891","0.008129"
"0.00986","0.006033","0.008375"
"0.00974","0.006164","0.008607"
"0.00960","0.006272","0.008836"
"0.00945","0.006360","0.009053"
"0.00928","0.006432","0.009231"
"0.00911","0.006493","0.009377"
"0.00895","0.006536","0.009502"
"0.00877","0.006557","0.009587"
"0.00861","0.006562","0.009646"
"0.00845","0.006559","0.009677"
"0.00830","0.006535","0.009674"
"0.00815","0.006492","0.009630"
"0.00802","0.006443","0.009554"
"0.00790","0.006377","0.009434"
"0.00778","0.006295","0.009296"
"0.00766","0.006206","0.009130"
"0.00754","0.006126","0.008926"
"0.00742","0.006033","0.008717"
"0.00970","0.005901","0.011777"
"0.01272","0.005595","0.018094"
"0.01255","0.005386","0.017835"
"0.01240","0.005159","0.017576"
"0.01224","0.004937","0.017330"
"0.01210","0.004749","0.017065"
"0.01196","0.004555","0.016822"
"0.01186","0.004364","0.016577"
"0.01176","0.004183","0.016390"
"0.01165","0.004013","0.016174"
