"1 Chan 1","2 Chan 2","3 Chan 3","4 Chan 4"
"0.00548","0.007642","0.032855","0.003911"
"0.00540","0.007119","0.031526","0.003766"
"0.00528","0.006645","0.030094","0.003620"
"0.00519","0.006183","0.028821","0.003515"
"0.00513","0.005810","0.027741","0.003412"
"0.00514","0.005407","0.026795","0.003314"
"0.00520","0.005040","0.025892","0.003221"
"0.00523","0.004768","0.024868","0.003112"
"0.00526","0.004533","0.023828","0.002999"
"0.00529","0.004345","0.022915","0.002876"
"0.00527","0.004299","0.022326","0.002703"
"0.00519","0.004268","0.022094","0.002531"
"0.00511","0.004250","0.021973","0.002448"
"0.00511","0.004260","0.021883","0.002402"
"0.00511","0.004286","0.021790","0.002356"
"0.00508","0.004326","0.021706","0.002315"
"0.00502","0.004448","0.021816","0.002261"
"0.00492","0.004559","0.022218","0.002223"
"0.00481","0.004673","0.022736","0.002209"
"0.00466","0.004813","0.023316","0.002165"
"0.00449","0.004968","0.023967","0.002130"
"0.00429","0.005120","0.024685","0.002118"
"0.00410","0.005239","0.025368","0.002131"
"0.00390","0.005375","0.026006","0.002146"
"0.00368","0.005529","0.026670","0.002147"
"0.00348","0.005651","0.027445","0.002132"
"0.00330","0.005731","0.028315","0.002121"
"0.00315","0.005785","0.029039","0.002134"
"0.00302","0.005817","0.029709","0.002155"
"0.00289","0.005836","0.030254","0.002222"
"0.00281","0.005837","0.030685","0.002316"
"0.00278","0.005794","0.030876","0.002432"
"0.00277","0.005746","0.031079","0.002563"
"0.00278","0.005686","0.031296","0.002688"
"0.00287","0.005574","0.031348","0.002846"
"0.00300","0.005449","0.030970","0.003035"
"0.00316","0.005327","0.030361","0.003210"
"0.00332","0.005222","0.029813","0.003383"
"0.00350","0.005103","0.029303","0.003547"
"0.00370","0.004954","0.028784","0.003703"
"0.00390","0.004822","0.028416","0.003821"
"0.00408","0.004719","0.027935","0.003937"
"0.00425","0.004622","0.027592","0.004046"
"0.00461","0.004589","0.027433","0.004152"
"0.00518","0.004999","0.028276","0.004142"
"0.00575","0.005573","0.030072","0.004139"
"0.00628","0.006240","0.032170","0.004123"
"0.00682","0.006957","0.034240","0.004072"
"0.00735","0.007703","0.036350","0.004033"
"0.00784","0.008477","0.038572","0.004045"
"0.00826","0.009278","0.040952","0.004018"
"0.00869","0.010086","0.043518","0.003931"
"0.00915","0.010901","0.046030","0.003871"
"0.00916","0.011535","0.048025","0.003850"
"0.00920","0.011858","0.049114","0.003846"
"0.00919","0.012046","0.049353","0.003882"
"0.00919","0.012155","0.049333","0.003950"
"0.00916","0.012228","0.049188","0.004059"
"0.00892","0.012235","0.048879","0.004158"
"0.00849","0.011812","0.047699","0.004267"
"0.00812","0.011218","0.045865","0.004341"
"0.00779","0.010523","0.043729","0.004385"
"0.00749","0.009770","0.041670","0.004417"
"0.00718","0.008988","0.039582","0.004432"
"0.00686","0.008175","0.037475","0.004376"
"0.00661","0.007333","0.035480","0.004293"
"0.00640","0.006490","0.033606","0.004216"
"0.00618","0.005646","0.031834","0.004039"
"0.00641","0.004974","0.030470","0.003838"
"0.00661","0.004632","0.029665","0.003659"
"0.00677","0.004437","0.029244","0.003486"
"0.00713","0.004336","0.028939","0.003268"
"0.00783","0.004271","0.028713","0.002931"
"0.00854","0.004286","0.028518","0.002595"
"0.00925","0.004329","0.028317","0.002321"
"0.01058","0.004370","0.027835","0.002028"
"0.01212","0.004423","0.027418","0.001754"
"0.01361","0.004531","0.026867","0.001501"
"0.01513","0.004651","0.026344","0.001243"
"0.01667","0.004797","0.025790","0.000997"
"0.01813","0.004982","0.025469","0.000773"
"0.01927","0.005213","0.025190","0.000599"
"0.02019","0.005446","0.024739","0.000516"
"0.02111","0.005642","0.024526","0.000633"
"0.02202","0.005831","0.024678","0.000785"
"0.02219","0.005999","0.025037","0.001061"
"0.02199","0.006126","0.025323","0.001458"
"0.02148","0.006256","0.025666","0.001967"
"0.02094","0.006335","0.026017","0.002519"
"0.02037","0.006381","0.026420","0.003080"
"0.01915","0.006412","0.026779","0.003677"
"0.01776","0.006397","0.027160","0.004306"
"0.01634","0.006328","0.027434","0.004871"
"0.01505","0.006262","0.027622","0.005276"
"0.01377","0.006165","0.027795","0.005658"
"0.01254","0.006038","0.027762","0.006036"
"0.01161","0.005856","0.027515","0.006408"
"0.01083","0.005663","0.027350","0.006749"
"0.01049","0.005517","0.027078","0.006798"
"0.01084","0.005361","0.026841","0.006664"
"0.01235","0.005210","0.026782","0.006343"
"0.01435","0.005088","0.027210","0.005878"
"0.01678","0.005011","0.027764","0.005339"
"0.01926","0.005021","0.028408","0.004762"
"0.02194","0.005078","0.029420","0.004181"
"0.02495","0.005186","0.030736","0.003584"
"0.02851","0.005361","0.032008","0.003266"
"0.03228","0.005581","0.033654","0.003337"
"0.03655","0.005820","0.035260","0.003904"
"0.04199","0.006085","0.036763","0.004785"
"0.04818","0.006303","0.038054","0.006159"
"0.05453","0.006518","0.039445","0.007960"
"0.06093","0.006735","0.041244","0.009878"
"0.06681","0.006972","0.043069","0.012121"
"0.07210","0.007193","0.044440","0.015508"
"0.07716","0.007422","0.045626","0.019537"
"0.08192","0.007654","0.046440","0.023983"
"0.08619","0.007874","0.047215","0.028663"
"0.09042","0.008104","0.047880","0.033617"
"0.09395","0.008307","0.048038","0.038919"
"0.09680","0.008479","0.047764","0.044515"
"0.09894","0.008610","0.047308","0.049878"
"0.10028","0.008712","0.046426","0.055169"
"0.10078","0.008736","0.045661","0.060220"
"0.10002","0.008694","0.044957","0.065020"
"0.09819","0.008733","0.044543","0.069470"
"0.09531","0.009016","0.044890","0.073640"
"0.09195","0.009330","0.045357","0.077478"
"0.08822","0.009600","0.045617","0.080849"
"0.08381","0.009888","0.046121","0.082753"
"0.07790","0.010173","0.046785","0.083946"
"0.07150","0.010506","0.047693","0.084199"
"0.06501","0.010802","0.048207","0.083999"
"0.05845","0.010987","0.048505","0.083334"
"0.05237","0.011133","0.048954","0.081984"
"0.04641","0.011332","0.050044","0.079227"
"0.04042","0.011553","0.051369","0.076114"
"0.03504","0.011776","0.052874","0.072458"
"0.02989","0.012029","0.054293","0.068505"
"0.02476","0.012338","0.055890","0.064149"
"0.01982","0.012644","0.057568","0.059387"
"0.01562","0.012727","0.058424","0.054346"
"0.01188","0.012764","0.058668","0.049471"
"0.00859","0.012801","0.059058","0.044661"
"0.00587","0.012819","0.059452","0.040251"
"0.00456","0.012821","0.059619","0.035958"
"0.00370","0.012670","0.059143","0.032082"
"0.00303","0.012273","0.058012","0.028249"
"0.00253","0.011906","0.056631","0.024499"
"0.00206","0.011597","0.055249","0.020944"
"0.00175","0.011287","0.053511","0.018440"
"0.00156","0.010980","0.051754","0.016204"
"0.00138","0.010670","0.050029","0.014255"
"0.00119","0.010409","0.048322","0.012501"
"0.00106","0.010200","0.046461","0.011086"
"0.00108","0.010008","0.044353","0.009926"
"0.00127","0.009799","0.042131","0.008887"
"0.00148","0.009588","0.039952","0.007870"
"0.00170","0.009380","0.037732","0.006985"
"0.00195","0.009155","0.035477","0.006155"
"0.00222","0.008849","0.033196","0.005364"
"0.00250","0.008648","0.031325","0.004716"
"0.00273","0.008688","0.030321","0.004274"
"0.00289","0.008697","0.029695","0.003946"
"0.00309","0.008670","0.028861","0.003744"
"0.00331","0.008614","0.027940","0.003602"
"0.00353","0.008555","0.026987","0.003474"
"0.00375","0.008503","0.025976","0.003346"
"0.00404","0.008425","0.025017","0.003202"
"0.00477","0.008283","0.024075","0.003027"
"0.00570","0.008061","0.023259","0.002846"
"0.00667","0.007818","0.022566","0.002682"
"0.00763","0.007578","0.021907","0.002554"
"0.00861","0.007348","0.021230","0.002447"
"0.00953","0.007129","0.020676","0.002343"
"0.01045","0.006963","0.020198","0.002222"
"0.01135","0.006774","0.019743","0.002110"
"0.01223","0.006591","0.019346","0.002001"
"0.01309","0.006426","0.019031","0.001888"
"0.01393","0.006267","0.018896","0.001786"
"0.01477","0.006103","0.018824","0.001672"
"0.01561","0.005917","0.018796","0.001555"
"0.01644","0.005726","0.018824","0.001453"
"0.01721","0.005532","0.018836","0.001371"
"0.01752","0.005364","0.018901","0.001339"
"0.01761","0.005234","0.018964","0.001331"
"0.01762","0.005121","0.019013","0.001323"
"0.01761","0.004999","0.019029","0.001309"
"0.01759","0.004885","0.019087","0.001313"
"0.01742","0.004810","0.019150","0.001324"
"0.01685","0.004788","0.019282","0.001379"
"0.01607","0.004805","0.019413","0.001451"
"0.01525","0.004829","0.019531","0.001510"
"0.01444","0.004837","0.019653","0.001571"
"0.01363","0.004840","0.019749","0.001648"
"0.01281","0.004837","0.019860","0.001741"
"0.01199","0.004840","0.020019","0.001821"
"0.01117","0.004840","0.020139","0.001895"
"0.01034","0.004848","0.020285","0.001964"
"0.00953","0.004852","0.020420","0.002025"
"0.00871","0.004861","0.020577","0.002070"
"0.00789","0.004872","0.020748","0.002113"
"0.00709","0.004895","0.020938","0.002159"
"0.00632","0.004894","0.021069","0.002210"
"0.00571","0.004871","0.021161","0.002245"
"0.00550","0.004830","0.021155","0.002238"
"0.00550","0.004768","0.021124","0.002226"
"0.00553","0.004712","0.021100","0.002210"
"0.00555","0.004686","0.021111","0.002164"
"0.00559","0.004663","0.021095","0.002123"
"0.00560","0.004639","0.021043","0.002071"
"0.00562","0.004625","0.020954","0.002057"
"0.00562","0.004629","0.020922","0.002031"
"0.00561","0.004635","0.020908","0.002015"
"0.00558","0.004650","0.020944","0.002021"
"0.00554","0.004688","0.021091","0.002031"
"0.00549","0.004756","0.021353","0.002046"
"0.00541","0.004835","0.021662","0.002079"
"0.00527","0.005015","0.022136","0.002094"
"0.00512","0.005223","0.022683","0.002107"
"0.00487","0.005501","0.023740","0.002075"
"0.00455","0.005848","0.025054","0.002012"
"0.00423","0.006202","0.026418","0.001953"
"0.00391","0.006536","0.027739","0.001931"
"0.00359","0.006868","0.029059","0.001880"
"0.00329","0.007199","0.030295","0.001855"
"0.00298","0.007522","0.031532","0.001802"
"0.00272","0.007822","0.032701","0.001738"
"0.00246","0.008079","0.033802","0.001684"
"0.00218","0.008339","0.034920","0.001607"
"0.00192","0.008563","0.035879","0.001520"
"0.00173","0.008675","0.036630","0.001459"
"0.00153","0.008773","0.037355","0.001383"
"0.00147","0.008731","0.037529","0.001353"
"0.00148","0.008610","0.037407","0.001356"
"0.00162","0.008439","0.036854","0.001393"
"0.00185","0.008217","0.036487","0.001430"
"0.00211","0.007992","0.036254","0.001474"
"0.00236","0.007772","0.036117","0.001513"
"0.00261","0.007586","0.036074","0.001572"
"0.00285","0.007411","0.036076","0.001629"
"0.00311","0.007232","0.035977","0.001691"
"0.00337","0.007023","0.035770","0.001774"
"0.00364","0.006854","0.035592","0.001848"
"0.00389","0.006672","0.035413","0.001928"
"0.00415","0.006490","0.035298","0.002046"
"0.00436","0.006394","0.035323","0.002141"
"0.00459","0.006289","0.035330","0.002233"
"0.00469","0.006241","0.035681","0.002299"
"0.00473","0.006306","0.036028","0.002347"
"0.00476","0.006473","0.036530","0.002381"
"0.00477","0.006680","0.036802","0.002447"
"0.00476","0.006841","0.037003","0.002714"
"0.00476","0.006991","0.037175","0.003160"
"0.00479","0.007153","0.037314","0.003767"
"0.00479","0.007309","0.037635","0.004525"
"0.00478","0.007535","0.038333","0.005465"
"0.00474","0.007811","0.039279","0.006571"
"0.00473","0.008063","0.040262","0.007833"
"0.00483","0.008238","0.040889","0.010245"
"0.00491","0.008403","0.041636","0.013165"
"0.00500","0.008564","0.042411","0.016219"
"0.00503","0.008657","0.043510","0.019327"
"0.00503","0.008638","0.044769","0.022716"
"0.00498","0.008532","0.046348","0.026126"
"0.00489","0.008322","0.047689","0.029424"
"0.00480","0.008138","0.049519","0.032520"
"0.00466","0.008041","0.052079","0.035444"
"0.00460","0.008030","0.054711","0.038110"
"0.00447","0.008047","0.057581","0.040475"
"0.00436","0.008074","0.060447","0.042647"
"0.00425","0.008096","0.062984","0.044496"
"0.00409","0.008273","0.065652","0.045092"
"0.00393","0.008551","0.068661","0.045068"
"0.00372","0.008933","0.072110","0.043775"
"0.00374","0.009436","0.075239","0.041908"
"0.00396","0.010184","0.078807","0.039627"
"0.00436","0.011055","0.082539","0.037211"
"0.00498","0.012215","0.086507","0.034446"
"0.00578","0.013379","0.089802","0.031585"
"0.00659","0.014621","0.092841","0.028762"
"0.00737","0.015803","0.095152","0.026050"
"0.00827","0.016917","0.096437","0.023216"
"0.00922","0.018073","0.097594","0.020320"
"0.01021","0.019143","0.098803","0.017482"
"0.01121","0.020117","0.099927","0.014633"
"0.01223","0.020987","0.100678","0.011936"
"0.01330","0.021666","0.101133","0.010286"
"0.01422","0.022146","0.100761","0.009082"
"0.01489","0.022388","0.099483","0.008058"
"0.01536","0.022440","0.097786","0.007125"
"0.01551","0.022103","0.095396","0.006490"
"0.01548","0.021677","0.092390","0.005924"
"0.01555","0.020923","0.088459","0.005343"
"0.01580","0.020144","0.085039","0.004775"
"0.01661","0.019178","0.081834","0.004225"
"0.01808","0.018112","0.079168","0.003693"
"0.02041","0.016943","0.076957","0.003214"
"0.02305","0.015669","0.075039","0.002911"
"0.02608","0.014387","0.072712","0.002783"
"0.02930","0.013166","0.070318","0.002915"
"0.03274","0.011989","0.068117","0.003461"
"0.03662","0.010811","0.065645","0.004831"
"0.04155","0.009697","0.063081","0.006941"
"0.04693","0.008735","0.061120","0.009552"
"0.05234","0.007854","0.059734","0.012272"
"0.05785","0.007129","0.058475","0.015321"
"0.06340","0.006425","0.057294","0.018625"
"0.06870","0.005841","0.056687","0.022325"
"0.07389","0.005299","0.056154","0.026156"
"0.07861","0.004896","0.055726","0.030081"
"0.08270","0.004568","0.054772","0.034361"
"0.08579","0.004330","0.053472","0.039044"
"0.08818","0.004050","0.051751","0.043981"
"0.08985","0.003791","0.049982","0.048987"
"0.09075","0.003536","0.047999","0.054064"
"0.09046","0.003295","0.045359","0.059473"
"0.08895","0.003075","0.042779","0.064335"
"0.08609","0.002893","0.040553","0.068533"
"0.08275","0.002821","0.038271","0.071992"
"0.07926","0.002778","0.035950","0.075038"
"0.07536","0.002725","0.033880","0.077210"
"0.07088","0.002699","0.031998","0.078727"
"0.06558","0.002750","0.030548","0.079306"
"0.05998","0.002832","0.028927","0.079902"
"0.05418","0.002840","0.027614","0.080521"
"0.04840","0.002861","0.026333","0.080495"
"0.04266","0.002922","0.025133","0.079803"
"0.03703","0.003052","0.023889","0.078586"
"0.03154","0.003163","0.022696","0.077264"
"0.02658","0.003281","0.021598","0.075585"
"0.02254","0.003380","0.021417","0.072807"
"0.01927","0.003497","0.021651","0.069484"
"0.01640","0.003649","0.022213","0.065848"
"0.01376","0.003746","0.023012","0.062344"
"0.01125","0.003835","0.023900","0.058727"
"0.00914","0.003937","0.024577","0.055042"
"0.00765","0.004039","0.024840","0.051654"
"0.00694","0.004077","0.024701","0.048812"
"0.00630","0.004054","0.024768","0.045882"
"0.00578","0.004049","0.024546","0.042878"
"0.00525","0.004059","0.024399","0.040018"
"0.00471","0.004077","0.024244","0.037332"
"0.00435","0.004068","0.024279","0.034703"
"0.00422","0.004097","0.024383","0.031468"
"0.00419","0.004161","0.024409","0.028160"
"0.00417","0.004229","0.024411","0.025162"
"0.00418","0.004285","0.024265","0.022460"
"0.00422","0.004302","0.023993","0.019999"
"0.00426","0.004324","0.023784","0.017476"
"0.00441","0.004368","0.023980","0.015314"
"0.00462","0.004553","0.024622","0.013708"
"0.00482","0.004800","0.025837","0.012180"
"0.00507","0.005141","0.027241","0.010716"
"0.00532","0.005654","0.028802","0.009210"
"0.00556","0.006256","0.030433","0.007720"
"0.00582","0.006880","0.032112","0.006425"
"0.00612","0.007550","0.033936","0.005222"
"0.00647","0.008243","0.035780","0.004162"
"0.00681","0.008939","0.037721","0.003629"
"0.00710","0.009641","0.039960","0.003224"
"0.00741","0.010346","0.042310","0.002852"
"0.00771","0.011039","0.044722","0.002495"
"0.00801","0.011751","0.047151","0.002143"
"0.00832","0.012459","0.049523","0.001877"
"0.00852","0.013132","0.051530","0.001625"
"0.00866","0.013663","0.053423","0.001430"
"0.00904","0.014239","0.055699","0.001321"
"0.00974","0.014905","0.058556","0.001176"
"0.01086","0.015501","0.061578","0.001074"
"0.01195","0.015985","0.064286","0.001022"
"0.01302","0.016324","0.066690","0.001167"
"0.01409","0.016563","0.068648","0.001468"
"0.01516","0.016680","0.070443","0.001818"
"0.01628","0.016677","0.072010","0.002230"
"0.01740","0.016633","0.073477","0.002654"
"0.01855","0.016591","0.074809","0.003086"
"0.01967","0.016550","0.076079","0.003531"
"0.02075","0.016550","0.077279","0.003972"
"0.02182","0.016585","0.078514","0.004429"
"0.02290","0.016680","0.079732","0.004858"
"0.02399","0.016858","0.080552","0.005236"
"0.02479","0.016955","0.080622","0.005585"
"0.02525","0.016986","0.080023","0.005962"
"0.02529","0.016965","0.079271","0.006341"
"0.02533","0.017038","0.078961","0.006668"
"0.02527","0.017231","0.078554","0.006791"
"0.02482","0.017388","0.077864","0.006791"
"0.02396","0.017504","0.076811","0.006806"
"0.02281","0.017759","0.075588","0.006702"
"0.02161","0.017984","0.074058","0.006566"
"0.02040","0.018222","0.072435","0.006184"
"0.01913","0.018496","0.070835","0.005770"
"0.01783","0.018728","0.069306","0.005362"
"0.01646","0.018845","0.067517","0.004969"
"0.01507","0.018767","0.065518","0.004649"
"0.01367","0.018396","0.063309","0.004425"
"0.01230","0.017867","0.061016","0.004205"
"0.01106","0.017141","0.058277","0.003984"
"0.00984","0.016305","0.055184","0.003803"
"0.00863","0.015391","0.051791","0.003810"
"0.00763","0.014444","0.048746","0.003885"
"0.00698","0.013590","0.046333","0.004007"
"0.00666","0.012881","0.044474","0.004087"
"0.00660","0.012162","0.043046","0.004210"
"0.00655","0.011524","0.041979","0.004352"
"0.00645","0.010863","0.040755","0.004759"
"0.00645","0.010181","0.039499","0.005149"
"0.00649","0.009473","0.038134","0.005405"
"0.00657","0.008788","0.036811","0.005609"
"0.00671","0.008204","0.035707","0.005695"
"0.00683","0.007799","0.034800","0.005734"
"0.00689","0.007513","0.034021","0.005794"
"0.00687","0.007306","0.033664","0.005882"
"0.00681","0.007222","0.033614","0.005896"
"0.00668","0.007121","0.033809","0.005769"
"0.00643","0.007043","0.034169","0.005593"
"0.00611","0.006979","0.034736","0.005396"
"0.00574","0.006897","0.035244","0.005227"
"0.00533","0.006786","0.035695","0.005079"
"0.00497","0.006687","0.036981","0.005015"
"0.00467","0.006807","0.039357","0.005060"
"0.00450","0.006950","0.041942","0.005186"
"0.00443","0.007146","0.044870","0.005494"
"0.00437","0.007414","0.048080","0.005908"
"0.00438","0.007662","0.051084","0.006408"
"0.00442","0.007946","0.054417","0.006858"
"0.00455","0.008242","0.057674","0.007246"
"0.00457","0.008395","0.059800","0.007521"
"0.00472","0.008412","0.061066","0.007662"
"0.00483","0.008454","0.061691","0.007742"
"0.00496","0.008461","0.061861","0.007721"
"0.00523","0.008427","0.061434","0.007619"
"0.00551","0.008384","0.060686","0.007448"
"0.00581","0.008342","0.059691","0.007301"
"0.00607","0.008252","0.057824","0.007054"
"0.00632","0.007947","0.054916","0.006658"
"0.00637","0.007602","0.051780","0.006223"
"0.00632","0.007222","0.048369","0.005728"
"0.00628","0.006822","0.044750","0.005215"
"0.00619","0.006447","0.041275","0.004699"
"0.00610","0.006069","0.037583","0.004194"
"0.00598","0.005685","0.033917","0.003697"
"0.00598","0.005458","0.031245","0.003330"
"0.00593","0.005355","0.029234","0.003118"
"0.00601","0.005248","0.027856","0.002919"
"0.00613","0.005185","0.026814","0.002782"
"0.00617","0.005125","0.026135","0.002726"
"0.00620","0.005084","0.025799","0.002710"
"0.00623","0.005038","0.025719","0.002702"
"0.00624","0.004995","0.025748","0.002751"
"0.00625","0.004956","0.026162","0.002798"
"0.00625","0.004916","0.026623","0.002852"
"0.00622","0.004913","0.026880","0.002939"
"0.00618","0.004926","0.027154","0.002996"
"0.00613","0.004970","0.027349","0.003002"
"0.00607","0.004991","0.027465","0.003036"
"0.00599","0.005027","0.027564","0.003049"
"0.00589","0.005068","0.027675","0.003025"
"0.00576","0.005084","0.027659","0.002998"
"0.00565","0.005104","0.027519","0.002994"
"0.00559","0.005072","0.027152","0.003030"
"0.00555","0.005032","0.026791","0.003061"
"0.00552","0.004963","0.026442","0.003124"
"0.00549","0.004932","0.026045","0.003166"
"0.00545","0.004922","0.025649","0.003186"
"0.00539","0.004925","0.025141","0.003225"
"0.00538","0.004965","0.024646","0.003243"
"0.00540","0.005012","0.024303","0.003244"
"0.00537","0.005080","0.024188","0.003277"
"0.00528","0.005172","0.024314","0.003349"
"0.00521","0.005279","0.024452","0.003424"
"0.00513","0.005339","0.024627","0.003541"
"0.00509","0.005376","0.024733","0.003665"
"0.00508","0.005415","0.024965","0.003850"
"0.00499","0.005474","0.025179","0.004013"
"0.00483","0.005545","0.025474","0.004165"
"0.00472","0.005596","0.025600","0.004245"
"0.00467","0.005632","0.025562","0.004313"
"0.00472","0.005647","0.025485","0.004361"
"0.00480","0.005640","0.025408","0.004393"
"0.00492","0.005626","0.025318","0.004367"
"0.00504","0.005588","0.025143","0.004326"
"0.00530","0.005513","0.025118","0.004300"
"0.00568","0.005432","0.024975","0.004229"
"0.00611","0.005328","0.024781","0.004160"
"0.00650","0.005235","0.024581","0.004110"
"0.00683","0.005183","0.024439","0.004052"
"0.00713","0.005158","0.024347","0.004033"
"0.00741","0.005149","0.024306","0.003970"
"0.00776","0.005153","0.024189","0.003937"
"0.00806","0.005145","0.024190","0.003911"
"0.00830","0.005171","0.024742","0.003927"
"0.01098","0.005437","0.026389","0.004030"
"0.01675","0.005760","0.028183","0.003869"
"0.02461","0.006245","0.030015","0.004162"
"0.03313","0.006730","0.032361","0.004714"
"0.04296","0.007203","0.035390","0.005205"
"0.05528","0.007715","0.039258","0.005459"
"0.06840","0.008324","0.043576","0.005910"
"0.08247","0.009126","0.048315","0.006491"
"0.09674","0.009913","0.053323","0.007401"
"0.11127","0.010679","0.058475","0.008522"
"0.12587","0.011444","0.063678","0.009833"
"0.14039","0.012255","0.069262","0.011348"
"0.15469","0.013014","0.075625","0.013409"
"0.16894","0.013769","0.082370","0.015926"
"0.18319","0.014506","0.088684","0.018819"
"0.19501","0.015009","0.093710","0.022516"
"0.20374","0.015452","0.098379","0.027245"
"0.21050","0.015663","0.102357","0.033021"
"0.21663","0.015830","0.105492","0.039511"
"0.22151","0.015990","0.107655","0.047275"
"0.22381","0.016096","0.108954","0.056054"
"0.22522","0.016015","0.109783","0.065463"
"0.22558","0.015712","0.110739","0.075344"
"0.22581","0.015394","0.111268","0.085909"
"0.22579","0.015071","0.111826","0.097062"
"0.22575","0.014717","0.112489","0.109011"
"0.22586","0.014334","0.112685","0.121269"
"0.22633","0.014085","0.112311","0.133023"
"0.22712","0.013870","0.111530","0.144531"
"0.22798","0.013734","0.110837","0.156031"
"0.22877","0.013638","0.110634","0.166755"
"0.22950","0.013530","0.110551","0.177094"
"0.22998","0.013493","0.110648","0.186383"
"0.23035","0.013369","0.110643","0.196043"
"0.23032","0.013273","0.111322","0.204917"
"0.23004","0.013078","0.111915","0.213662"
"0.22849","0.012885","0.112037","0.221693"
"0.22422","0.012597","0.111500","0.229829"
"0.21789","0.012142","0.110634","0.237319"
"0.21096","0.011659","0.108867","0.244158"
"0.20277","0.011190","0.106606","0.250265"
"0.19197","0.010720","0.103479","0.256179"
"0.18010","0.010020","0.099747","0.262009"
"0.16699","0.009122","0.095463","0.267471"
"0.15358","0.008159","0.090848","0.272211"
"0.13996","0.007182","0.085889","0.276655"
"0.12625","0.006233","0.081045","0.280502"
"0.11269","0.005260","0.076352","0.283779"
"0.09939","0.004438","0.071201","0.285191"
"0.08654","0.003658","0.065129","0.285787"
"0.07397","0.003065","0.059053","0.285405"
"0.06260","0.002569","0.053703","0.284091"
"0.05403","0.002175","0.048571","0.281450"
"0.04736","0.002012","0.044546","0.277106"
"0.04130","0.001926","0.041513","0.271876"
"0.03639","0.001865","0.039301","0.265092"
"0.03397","0.001803","0.038044","0.257244"
"0.03247","0.001926","0.037126","0.248646"
"0.03206","0.002277","0.036196","0.239581"
"0.03185","0.002648","0.035565","0.229857"
"0.03189","0.003039","0.034995","0.219872"
"0.03204","0.003471","0.034430","0.209139"
"0.03212","0.003984","0.034304","0.197916"
"0.03187","0.004409","0.034903","0.187173"
"0.03127","0.004788","0.036076","0.176714"
"0.03059","0.005073","0.037230","0.166152"
"0.02994","0.005296","0.037982","0.156320"
"0.02932","0.005563","0.038532","0.146791"
"0.02874","0.005811","0.038695","0.138101"
"0.02815","0.006110","0.038952","0.128960"
"0.02763","0.006379","0.038612","0.120690"
"0.02701","0.006702","0.037965","0.112409"
"0.02623","0.007001","0.037411","0.104636"
"0.02519","0.007314","0.037405","0.097097"
"0.02398","0.007669","0.037654","0.089738"
"0.02261","0.008047","0.038188","0.082320"
"0.02117","0.008365","0.038769","0.075618"
"0.01976","0.008627","0.039103","0.069407"
"0.01848","0.008939","0.039401","0.063197"
"0.01748","0.009259","0.039574","0.057063"
"0.01653","0.009607","0.039797","0.051332"
"0.01561","0.009971","0.040162","0.045693"
"0.01469","0.010286","0.040505","0.040355"
"0.01381","0.010562","0.040672","0.035451"
"0.01297","0.010758","0.040489","0.031705"
"0.01214","0.010954","0.040545","0.028271"
"0.01143","0.011031","0.040932","0.025550"
"0.01087","0.011070","0.041309","0.023099"
"0.01050","0.011060","0.041640","0.020987"
"0.01032","0.011005","0.041708","0.019548"
"0.01021","0.010915","0.041589","0.018411"
"0.01014","0.010821","0.041460","0.017440"
"0.01007","0.010728","0.041426","0.016566"
"0.01000","0.010643","0.041573","0.015768"
"0.00989","0.010545","0.041857","0.015011"
"0.00979","0.010455","0.042193","0.014139"
"0.00967","0.010359","0.042450","0.013046"
"0.00953","0.010251","0.042539","0.011897"
"0.00934","0.010117","0.042485","0.010737"
"0.00916","0.009937","0.042354","0.009612"
"0.00905","0.009746","0.042172","0.008551"
"0.00911","0.009549","0.041843","0.007480"
"0.00924","0.009303","0.041297","0.006422"
"0.00937","0.009021","0.040700","0.005443"
"0.00949","0.008697","0.039985","0.004646"
"0.00965","0.008351","0.039260","0.004043"
"0.00986","0.008009","0.038496","0.003536"
"0.01014","0.007637","0.037742","0.003046"
"0.01059","0.007248","0.037135","0.002548"
"0.01105","0.006863","0.036478","0.002061"
"0.01149","0.006486","0.035674","0.001706"
"0.01195","0.006135","0.034925","0.001576"
"0.01238","0.005848","0.034511","0.001504"
"0.01269","0.005629","0.034238","0.001494"
"0.01285","0.005455","0.034167","0.001504"
"0.01288","0.005328","0.034119","0.001524"
"0.01272","0.005225","0.034298","0.001604"
"0.01250","0.005181","0.034710","0.001671"
"0.01226","0.005173","0.035174","0.001730"
"0.01206","0.005195","0.035748","0.001789"
"0.01167","0.005236","0.036160","0.001844"
"0.01120","0.005275","0.036443","0.001913"
"0.01061","0.005355","0.036707","0.001981"
"0.00986","0.005452","0.036749","0.002084"
"0.00906","0.005534","0.036789","0.002203"
"0.00830","0.005572","0.036721","0.002336"
"0.00756","0.005578","0.036535","0.002469"
"0.00690","0.005549","0.036006","0.002621"
"0.00644","0.005486","0.035381","0.002760"
"0.00615","0.005428","0.034549","0.002852"
"0.00591","0.005347","0.033682","0.002957"
"0.00570","0.005298","0.032696","0.003019"
"0.00550","0.005251","0.031791","0.003099"
"0.00531","0.005207","0.030891","0.003163"
"0.00516","0.005144","0.029919","0.003240"
"0.00522","0.005059","0.029052","0.003311"
"0.00535","0.004974","0.028273","0.003369"
"0.00550","0.004866","0.027430","0.003426"
"0.00561","0.004772","0.026635","0.003455"
"0.00572","0.004676","0.025900","0.003497"
"0.00581","0.004597","0.025364","0.003495"
"0.00588","0.004536","0.024927","0.003496"
"0.00594","0.004470","0.024738","0.003491"
"0.00598","0.004417","0.024668","0.003463"
"0.00599","0.004359","0.024622","0.003484"
"0.00596","0.004301","0.024542","0.003504"
"0.00591","0.004261","0.024518","0.003548"
"0.00583","0.004223","0.024536","0.003601"
"0.00573","0.004222","0.024671","0.003678"
"0.00560","0.004233","0.024890","0.003730"
"0.00546","0.004246","0.025183","0.003782"
"0.00533","0.004253","0.025450","0.003844"
"0.00524","0.004275","0.025709","0.003887"
"0.00519","0.004301","0.025974","0.003934"
"0.00514","0.004368","0.026189","0.003947"
"0.00511","0.004464","0.026429","0.003975"
"0.00506","0.004555","0.026728","0.003998"
"0.00501","0.004661","0.026985","0.003999"
"0.00494","0.004762","0.027207","0.004010"
"0.00488","0.004859","0.027440","0.003995"
"0.00487","0.004949","0.027625","0.004004"
"0.00489","0.004998","0.027683","0.004004"
"0.00495","0.005046","0.027546","0.003973"
"0.00503","0.005073","0.027250","0.003916"
"0.00513","0.005099","0.026914","0.003875"
"0.00523","0.005131","0.026772","0.003827"
"0.00534","0.005156","0.027017","0.003767"
"0.00544","0.005151","0.027225","0.003758"
"0.00554","0.005136","0.027413","0.003766"
"0.00566","0.005091","0.027662","0.003773"
"0.00579","0.005023","0.027875","0.003796"
"0.00597","0.004959","0.028049","0.003818"
"0.00614","0.004892","0.028274","0.003860"
"0.00638","0.004837","0.028526","0.003831"
"0.00661","0.004797","0.028875","0.003797"
"0.00686","0.004758","0.029336","0.003730"
"0.00709","0.004732","0.029934","0.003658"
"0.00727","0.004706","0.030598","0.003605"
"0.00742","0.004676","0.030989","0.003578"
"0.00758","0.004640","0.031193","0.003557"
"0.00769","0.004613","0.031220","0.003540"
"0.00781","0.004590","0.030867","0.003532"
"0.00795","0.004582","0.030524","0.003487"
"0.00809","0.004565","0.030166","0.003439"
"0.00823","0.004527","0.029649","0.003460"
"0.00832","0.004495","0.029017","0.003468"
"0.00845","0.004440","0.028508","0.003461"
"0.00860","0.004369","0.028285","0.003444"
"0.00866","0.004294","0.028144","0.003509"
"0.00874","0.004207","0.027921","0.003571"
"0.00883","0.004135","0.027709","0.003626"
"0.00894","0.004061","0.027661","0.003686"
"0.00914","0.003989","0.027588","0.003715"
"0.00951","0.003904","0.027924","0.003685"
"0.01017","0.003828","0.028555","0.003597"
"0.01130","0.003746","0.029290","0.003449"
"0.01259","0.003672","0.030245","0.003264"
"0.01438","0.003576","0.031189","0.003045"
"0.01658","0.003466","0.032882","0.002817"
"0.01897","0.003425","0.035214","0.002526"
"0.02180","0.003410","0.037803","0.002239"
"0.02495","0.003406","0.040375","0.002220"
"0.02858","0.003507","0.043003","0.002274"
"0.03302","0.003687","0.045864","0.002361"
"0.03895","0.003862","0.048511","0.002584"
"0.04655","0.004060","0.050995","0.002837"
"0.05606","0.004345","0.052806","0.003404"
"0.06612","0.004636","0.054941","0.004813"
"0.07620","0.004930","0.057179","0.007451"
"0.08599","0.005193","0.059341","0.010690"
"0.09528","0.005444","0.061503","0.014501"
"0.10584","0.005635","0.064388","0.018848"
"0.11690","0.005775","0.067464","0.024354"
"0.12810","0.005905","0.069843","0.030665"
"0.13911","0.005974","0.071956","0.037140"
"0.14951","0.006011","0.074029","0.043721"
"0.15902","0.006069","0.075893","0.050216"
"0.16782","0.006025","0.076849","0.056825"
"0.17577","0.005897","0.076644","0.063630"
"0.18249","0.005744","0.076444","0.070394"
"0.18765","0.005590","0.076131","0.077615"
"0.19069","0.005414","0.075875","0.084998"
"0.19285","0.005167","0.074865","0.091732"
"0.19434","0.004865","0.073369","0.097293"
"0.19467","0.004607","0.071848","0.102310"
"0.19447","0.004366","0.070078","0.106745"
"0.19114","0.004110","0.067729","0.110479"
"0.18609","0.003879","0.065001","0.113225"
"0.18027","0.003705","0.061628","0.114727"
"0.17449","0.003572","0.058130","0.115356"
"0.16892","0.003479","0.054712","0.115456"
"0.16305","0.003450","0.050997","0.115180"
"0.15617","0.003474","0.046968","0.114374"
"0.14813","0.003640","0.043800","0.112417"
"0.13977","0.003886","0.040505","0.110088"
"0.13165","0.004075","0.037232","0.107620"
"0.12390","0.004213","0.034371","0.104707"
"0.11636","0.004409","0.032174","0.101573"
"0.10928","0.004733","0.030406","0.098207"
"0.10293","0.005065","0.028685","0.094864"
"0.09666","0.005358","0.027172","0.091494"
"0.09210","0.005650","0.025332","0.088494"
"0.08807","0.006034","0.023906","0.085088"
"0.08414","0.006382","0.023139","0.081982"
"0.08000","0.006679","0.022394","0.079503"
"0.07576","0.006928","0.021881","0.077487"
"0.07212","0.007099","0.022029","0.075603"
"0.06977","0.007222","0.022938","0.073648"
"0.06842","0.007249","0.023970","0.072033"
"0.06707","0.007205","0.025365","0.070502"
"0.06508","0.007220","0.026564","0.068638"
"0.06285","0.007178","0.027648","0.066653"
"0.06042","0.007142","0.028517","0.064383"
"0.05793","0.007020","0.029171","0.062127"
"0.05578","0.006811","0.029695","0.059885"
"0.05373","0.006621","0.030232","0.057862"
"0.05136","0.006522","0.030940","0.055431"
"0.04914","0.006390","0.031399","0.053297"
"0.04704","0.006305","0.031883","0.051295"
"0.04515","0.006203","0.032264","0.049284"
"0.04335","0.006087","0.032080","0.047103"
"0.04156","0.005999","0.031756","0.044589"
"0.03957","0.005881","0.031657","0.042040"
"0.03778","0.005685","0.031353","0.040015"
"0.03591","0.005502","0.030956","0.038241"
"0.03398","0.005296","0.030663","0.036552"
"0.03152","0.005127","0.030141","0.035390"
"0.02890","0.004976","0.029679","0.034668"
"0.02634","0.004834","0.029420","0.033981"
"0.02381","0.004785","0.029292","0.033063"
"0.02168","0.004804","0.029151","0.032000"
"0.01983","0.004825","0.028944","0.031114"
"0.01798","0.004854","0.028824","0.030161"
"0.01611","0.004866","0.028623","0.029181"
"0.01422","0.004919","0.028353","0.028299"
"0.01235","0.004995","0.028110","0.027664"
"0.01067","0.005054","0.027700","0.027438"
"0.00910","0.005135","0.027073","0.027721"
"0.00753","0.005186","0.026398","0.028107"
"0.00607","0.005235","0.025779","0.028440"
"0.00493","0.005295","0.025501","0.028616"
"0.00438","0.005370","0.025534","0.028282"
"0.00427","0.005427","0.025375","0.027802"
"0.00427","0.005494","0.025010","0.027461"
"0.00431","0.005541","0.024585","0.027258"
"0.00436","0.005547","0.024057","0.027042"
"0.00437","0.005549","0.023645","0.026569"
"0.00437","0.005530","0.023338","0.025999"
"0.00437","0.005492","0.023030","0.025444"
"0.00438","0.005429","0.022718","0.024882"
"0.00440","0.005280","0.022466","0.024219"
"0.00442","0.005087","0.022150","0.023576"
"0.00447","0.004901","0.021865","0.022877"
"0.00453","0.004772","0.021647","0.022136"
"0.00461","0.004643","0.021487","0.021335"
"0.00470","0.004501","0.021384","0.020464"
"0.00475","0.004374","0.021413","0.019370"
"0.00478","0.004253","0.021588","0.018139"
"0.00478","0.004140","0.021811","0.016798"
"0.00480","0.004012","0.021964","0.015489"
"0.00482","0.003871","0.022030","0.014212"
"0.00489","0.003715","0.021879","0.013251"
"0.00499","0.003571","0.021619","0.012443"
"0.00509","0.003428","0.021356","0.011649"
"0.00517","0.003312","0.021125","0.010855"
"0.00522","0.003292","0.020972","0.010045"
"0.00524","0.003313","0.020933","0.009219"
"0.00526","0.003331","0.020901","0.008395"
"0.00528","0.003351","0.020889","0.007568"
"0.00530","0.003381","0.020855","0.006808"
"0.00532","0.003406","0.020746","0.006201"
"0.00536","0.003416","0.020524","0.005898"
"0.00539","0.003418","0.020299","0.005767"
"0.00542","0.003410","0.020116","0.005758"
"0.00541","0.003407","0.020026","0.005763"
"0.00539","0.003403","0.020047","0.005766"
"0.00537","0.003397","0.020089","0.005776"
"0.00534","0.003389","0.020156","0.005786"
"0.00531","0.003375","0.020235","0.005802"
"0.00529","0.003357","0.020311","0.005799"
"0.00527","0.003335","0.020366","0.005789"
"0.00527","0.003316","0.020395","0.005750"
"0.00527","0.003305","0.020389","0.005690"
"0.00528","0.003300","0.020333","0.005621"
"0.00529","0.003299","0.020254","0.005551"
"0.00532","0.003301","0.020157","0.005468"
"0.00534","0.003302","0.020043","0.005376"
"0.00538","0.003306","0.019916","0.005280"
"0.00542","0.003312","0.019774","0.005196"
"0.00548","0.003317","0.019626","0.005115"
"0.00554","0.003336","0.019471","0.005030"
"0.00560","0.003360","0.019305","0.004943"
"0.00566","0.003384","0.019116","0.004864"
"0.00572","0.003415","0.018919","0.004781"
"0.00578","0.003447","0.018736","0.004723"
"0.00583","0.003479","0.018577","0.004666"
"0.00588","0.003507","0.018442","0.004632"
"0.00592","0.003535","0.018356","0.004605"
"0.00596","0.003559","0.018312","0.004577"
"0.00599","0.003580","0.018285","0.004547"
"0.00602","0.003601","0.018270","0.004511"
"0.00605","0.003628","0.018280","0.004474"
"0.00606","0.003647","0.018307","0.004444"
"0.00606","0.003663","0.018337","0.004409"
"0.00606","0.003679","0.018358","0.004374"
"0.00605","0.003689","0.018385","0.004346"
"0.00604","0.003692","0.018418","0.004320"
"0.00603","0.003695","0.018448","0.004291"
"0.00602","0.003693","0.018479","0.004265"
"0.00601","0.003693","0.018498","0.004236"
"0.00601","0.003694","0.018514","0.004214"
"0.00600","0.003700","0.018542","0.004194"
"0.00599","0.003701","0.018562","0.004190"
"0.00597","0.003700","0.018577","0.004191"
"0.00595","0.003699","0.018597","0.004195"
"0.00592","0.003694","0.018626","0.004204"
"0.00589","0.003689","0.018642","0.004220"
"0.00585","0.003689","0.018655","0.004230"
"0.00582","0.003689","0.018670","0.004242"
"0.00578","0.003694","0.018702","0.004249"
"0.00575","0.003699","0.018733","0.004257"
"0.00572","0.003710","0.018758","0.004262"
"0.00569","0.003725","0.018783","0.004263"
"0.00567","0.003746","0.018794","0.004261"
"0.00564","0.003771","0.018806","0.004245"
"0.00561","0.003800","0.018835","0.004226"
"0.00558","0.003831","0.018869","0.004187"
"0.00555","0.003863","0.018922","0.004136"
"0.00554","0.003899","0.018984","0.004079"
"0.00553","0.003937","0.019048","0.004014"
"0.00552","0.003976","0.019121","0.003951"
"0.00552","0.004013","0.019199","0.003890"
"0.00552","0.004044","0.019277","0.003845"
"0.00553","0.004072","0.019350","0.003813"
"0.00553","0.004100","0.019428","0.003788"
"0.00553","0.004127","0.019511","0.003765"
"0.00552","0.004149","0.019627","0.003747"
"0.00551","0.004173","0.019755","0.003729"
"0.00551","0.004189","0.019916","0.003708"
"0.00552","0.004199","0.020115","0.003702"
"0.00554","0.004208","0.020335","0.003690"
"0.00556","0.004211","0.020630","0.003700"
"0.00559","0.004210","0.020997","0.003715"
"0.00563","0.004209","0.021375","0.003735"
"0.00566","0.004208","0.021815","0.003757"
"0.00571","0.004205","0.022293","0.003779"
"0.00575","0.004203","0.022793","0.003797"
"0.00579","0.004206","0.023272","0.003801"
"0.00582","0.004214","0.023752","0.003789"
"0.00586","0.004222","0.024210","0.003772"
"0.00590","0.004228","0.024655","0.003751"
"0.00594","0.004235","0.025074","0.003725"
"0.00600","0.004237","0.025472","0.003702"
"0.00604","0.004241","0.025849","0.003679"
"0.00608","0.004249","0.026203","0.003654"
"0.00611","0.004252","0.026532","0.003639"
"0.00612","0.004263","0.026784","0.003624"
"0.00613","0.004278","0.026941","0.003610"
"0.00612","0.004289","0.027085","0.003596"
"0.00610","0.004299","0.027164","0.003583"
"0.03518","0.004770","0.034909","0.005529"
"0.06436","0.005308","0.042734","0.007846"
"0.09360","0.005849","0.050260","0.011156"
"0.12454","0.006215","0.056974","0.015845"
"0.15620","0.006493","0.062898","0.021568"
"0.18835","0.006907","0.068871","0.027675"
"0.22600","0.007420","0.074027","0.033355"
"0.26966","0.008027","0.079659","0.038644"
"0.32173","0.008560","0.084430","0.043675"
"0.37629","0.009001","0.088977","0.049012"
"0.43147","0.009427","0.093198","0.054518"
"0.48653","0.009779","0.096677","0.061361"
"0.54138","0.010074","0.099154","0.069378"
"0.59569","0.010301","0.101143","0.078128"
"0.64923","0.010461","0.102406","0.087627"
"0.67190","0.010117","0.095528","0.095620"
"0.69120","0.009813","0.088280","0.103633"
"0.70812","0.009577","0.081236","0.110997"
"0.72168","0.009537","0.075021","0.117226"
"0.73315","0.009676","0.069782","0.122489"
"0.74383","0.009789","0.063723","0.126961"
"0.74231","0.009992","0.057417","0.132827"
"0.73275","0.009948","0.050000","0.139908"
"0.71351","0.009809","0.043445","0.147065"
"0.69126","0.009939","0.037092","0.154311"
"0.66834","0.010146","0.031057","0.162661"
"0.64544","0.010424","0.025752","0.169502"
"0.62119","0.010898","0.021442","0.173993"
"0.59686","0.011621","0.017614","0.177149"
"0.57192","0.012305","0.014509","0.179697"
"0.54387","0.012979","0.011831","0.182703"
"0.51160","0.013645","0.009424","0.186193"
"0.47456","0.018615","0.007131","0.188951"
"0.43738","0.025333","0.004824","0.192064"
"0.40093","0.032613","0.002343","0.195657"
"0.36441","0.043507","0.000640","0.197753"
"0.33435","0.056364","0.000618","0.197225"
"0.30619","0.069883","0.001721","0.195098"
"0.27928","0.083703","0.003316","0.192569"
"0.25293","0.097366","0.005287","0.189406"
"0.22651","0.111112","0.007505","0.184889"
"0.19977","0.124887","0.009852","0.180554"
"0.17386","0.138612","0.012295","0.177328"
"0.14806","0.152143","0.014536","0.174667"
"0.12139","0.165878","0.017089","0.171227"
"0.09823","0.179617","0.019925","0.166129"
"0.08229","0.193200","0.023269","0.158734"
"0.07339","0.202466","0.026783","0.150938"
"0.06632","0.209756","0.030399","0.141654"
"0.05980","0.216312","0.034583","0.130154"
"0.05356","0.219180","0.039070","0.119866"
"0.04757","0.219856","0.043051","0.111080"
"0.04171","0.219834","0.046526","0.102690"
"0.03593","0.219654","0.049367","0.094532"
"0.03006","0.219347","0.051708","0.086217"
"0.02392","0.218616","0.053643","0.077689"
"0.01837","0.213233","0.055472","0.069658"
"0.01340","0.206387","0.057401","0.060491"
"0.00892","0.199042","0.059448","0.051012"
"0.00719","0.187446","0.061037","0.042873"
"0.00694","0.174322","0.062137","0.035848"
"0.00694","0.160977","0.062627","0.030270"
"0.00696","0.147542","0.062799","0.025433"
"0.00694","0.134282","0.062634","0.021398"
"0.00709","0.120901","0.061714","0.019070"
"0.00729","0.107453","0.060541","0.017400"
"0.00758","0.093904","0.059192","0.015921"
"0.00784","0.080484","0.057930","0.014632"
"0.00805","0.067058","0.056762","0.013608"
"0.00830","0.053661","0.055712","0.012958"
"0.00889","0.040532","0.054872","0.012417"
"0.00930","0.031982","0.054026","0.011239"
"0.00987","0.024798","0.052898","0.011235"
"0.01047","0.018136","0.051783","0.011499"
"0.01061","0.015623","0.050830","0.011005"
"0.01065","0.014716","0.049972","0.010132"
"0.01073","0.014130","0.049184","0.009212"
"0.01082","0.013571","0.048538","0.008347"
"0.01093","0.013042","0.048099","0.007575"
"0.01095","0.012730","0.047833","0.006770"
"0.01097","0.012376","0.047357","0.006013"
"0.01093","0.012155","0.046912","0.005202"
"0.01090","0.011986","0.046380","0.004538"
"0.01083","0.011812","0.045839","0.003973"
"0.01080","0.011716","0.045238","0.003423"
"0.01084","0.011595","0.044514","0.003062"
"0.01089","0.011506","0.043720","0.002829"
"0.01091","0.011416","0.043050","0.002653"
"0.01086","0.011318","0.042456","0.002557"
"0.01081","0.011225","0.041775","0.002515"
"0.01067","0.011111","0.041179","0.002529"
"0.01055","0.010950","0.040655","0.002581"
"0.01049","0.010783","0.040194","0.002627"
"0.01049","0.010596","0.039796","0.002689"
"0.01051","0.010389","0.039386","0.002772"
"0.01056","0.010234","0.039130","0.002870"
"0.01061","0.010095","0.038871","0.002976"
"0.01064","0.009946","0.038637","0.003126"
"0.01069","0.009835","0.038459","0.003260"
"0.01070","0.009733","0.038366","0.003387"
"0.01068","0.009623","0.038341","0.003518"
"0.01061","0.009511","0.038351","0.003636"
"0.01036","0.009640","0.038681","0.003735"
"0.01008","0.009731","0.039215","0.003821"
"0.01013","0.009923","0.040070","0.003853"
"0.01021","0.010226","0.041495","0.003744"
"0.01020","0.010566","0.043181","0.003620"
"0.01027","0.010904","0.044919","0.003456"
"0.01036","0.011266","0.046618","0.003340"
"0.01055","0.011471","0.047941","0.003263"
"0.01079","0.011643","0.049025","0.003177"
"0.01089","0.011771","0.050152","0.003106"
"0.01074","0.011725","0.050638","0.003096"
"0.01061","0.011624","0.050616","0.003038"
"0.01040","0.011450","0.050351","0.003009"
"0.01014","0.011275","0.049862","0.002990"
"0.00988","0.011048","0.049329","0.002851"
"0.00983","0.010588","0.048320","0.002693"
"0.00979","0.010154","0.046752","0.002567"
"0.00941","0.009589","0.044954","0.002510"
"0.00908","0.008894","0.042578","0.002555"
"0.00881","0.008175","0.039943","0.002600"
"0.00838","0.007483","0.037268","0.002683"
"0.00789","0.006788","0.034708","0.002744"
"0.00727","0.006251","0.032547","0.002749"
"0.00660","0.005773","0.030620","0.002742"
"0.00604","0.005358","0.028704","0.002735"
"0.00610","0.005164","0.028452","0.002730"
"0.00676","0.005235","0.029570","0.002849"
"0.00782","0.005395","0.031123","0.002974"
"0.00898","0.005592","0.032995","0.003055"
"0.01015","0.005947","0.035019","0.003309"
"0.01137","0.006324","0.037271","0.003586"
"0.01263","0.006685","0.039877","0.003869"
"0.01376","0.007059","0.042134","0.004129"
"0.01430","0.007241","0.042861","0.004269"
"0.01427","0.007389","0.043317","0.004397"
"0.01422","0.007536","0.043456","0.004521"
"0.01419","0.007580","0.043386","0.004608"
"0.01419","0.007605","0.043162","0.004688"
"0.01417","0.007609","0.042881","0.004775"
"0.01419","0.007591","0.042546","0.004862"
"0.01385","0.007571","0.041252","0.004876"
"0.01293","0.007336","0.039084","0.004856"
"0.01171","0.007071","0.036704","0.004826"
"0.01046","0.006831","0.034232","0.004814"
"0.00921","0.006525","0.031762","0.004712"
"0.00797","0.006228","0.029302","0.004612"
"0.00673","0.005960","0.026901","0.004462"
"0.00565","0.005723","0.024889","0.004326"
"0.00514","0.005656","0.024371","0.004302"
"0.00519","0.005633","0.024168","0.004295"
"0.00528","0.005605","0.024294","0.004289"
"0.00539","0.005665","0.024465","0.004327"
"0.00549","0.005774","0.024954","0.004378"
"0.00564","0.005912","0.025926","0.004407"
"0.00574","0.006067","0.027055","0.004391"
"0.00586","0.006208","0.028223","0.004391"
"0.00633","0.006553","0.029758","0.004278"
"0.00723","0.007077","0.032144","0.004056"
"0.00822","0.007654","0.034824","0.003797"
"0.00934","0.008226","0.037478","0.003617"
"0.01048","0.008806","0.039775","0.003406"
"0.01163","0.009373","0.041943","0.003290"
"0.01281","0.009992","0.044315","0.003171"
"0.01376","0.010516","0.046618","0.003069"
"0.01443","0.010921","0.047780","0.003023"
"0.01486","0.011171","0.048572","0.003023"
"0.01517","0.011391","0.049177","0.002950"
"0.01530","0.011499","0.049564","0.002892"
"0.01539","0.011540","0.049366","0.002826"
"0.01549","0.011512","0.048545","0.002813"
"0.01559","0.011376","0.047442","0.002806"
"0.01513","0.010977","0.046009","0.002881"
"0.01423","0.010403","0.043630","0.003081"
"0.01324","0.009768","0.040956","0.003318"
"0.01216","0.009119","0.038045","0.003529"
"0.01105","0.008466","0.035416","0.003741"
"0.00991","0.007826","0.032887","0.003880"
"0.00872","0.007140","0.030220","0.004011"
"0.00774","0.006591","0.027654","0.004133"
"0.00705","0.006148","0.026139","0.004166"
"0.00659","0.005836","0.024931","0.004161"
"0.00619","0.005555","0.024015","0.004119"
"0.00594","0.005345","0.023071","0.004070"
"0.00568","0.005187","0.022275","0.004050"
"0.00548","0.005070","0.021978","0.004029"
"0.00527","0.005036","0.021793","0.004006"
"0.00522","0.005075","0.021585","0.003972"
"0.00518","0.005101","0.021448","0.003903"
"0.00516","0.005115","0.021289","0.003831"
"0.00511","0.005120","0.021311","0.003738"
"0.00512","0.005081","0.021379","0.003630"
"0.00515","0.005050","0.021363","0.003506"
"0.00523","0.004995","0.021192","0.003399"
"0.00532","0.004961","0.021154","0.003324"
"0.00545","0.004944","0.021203","0.003305"
"0.00560","0.004973","0.021284","0.003328"
"0.00582","0.005053","0.021669","0.003382"
"0.00622","0.005147","0.022198","0.003470"
"0.00669","0.005305","0.022914","0.003549"
"0.00720","0.005530","0.023956","0.003656"
"0.00783","0.005891","0.025416","0.003742"
"0.00862","0.006322","0.027291","0.003860"
"0.00990","0.006856","0.029510","0.003927"
"0.01168","0.007439","0.032223","0.003931"
"0.01565","0.008055","0.034742","0.003934"
"0.02172","0.008768","0.036868","0.004270"
"0.02860","0.009551","0.039065","0.005275"
"0.03589","0.010476","0.041386","0.006559"
"0.04348","0.011495","0.043828","0.007947"
"0.05109","0.012503","0.046415","0.009445"
"0.05872","0.013462","0.048903","0.011423"
"0.06634","0.014424","0.050982","0.014114"
"0.07372","0.015602","0.053185","0.017412"
"0.08123","0.017090","0.055283","0.020952"
"0.08873","0.018653","0.056984","0.024830"
"0.09612","0.020099","0.058234","0.028916"
"0.10333","0.021479","0.059114","0.033189"
"0.10995","0.022785","0.059942","0.037939"
"0.11607","0.023990","0.060451","0.043607"
"0.12015","0.025103","0.061118","0.050700"
"0.12212","0.026095","0.061915","0.058226"
"0.12322","0.027020","0.062714","0.065120"
"0.12391","0.027792","0.063143","0.071966"
"0.12424","0.028362","0.063014","0.079050"
"0.12441","0.028830","0.062349","0.086245"
"0.12426","0.029239","0.061506","0.093125"
"0.12366","0.029514","0.060310","0.099769"
"0.12251","0.029578","0.058652","0.106173"
"0.11810","0.029205","0.057218","0.113133"
"0.11242","0.028600","0.055757","0.119766"
"0.10631","0.027909","0.054194","0.126108"
"0.09966","0.027141","0.052524","0.132284"
"0.09290","0.026330","0.050395","0.138015"
"0.08607","0.025591","0.048143","0.142860"
"0.07906","0.024899","0.045916","0.146563"
"0.07205","0.024063","0.043773","0.149583"
"0.06500","0.022885","0.041489","0.152211"
"0.05782","0.021366","0.039262","0.154298"
"0.05060","0.019920","0.037434","0.155647"
"0.04347","0.018583","0.035822","0.156628"
"0.03664","0.017307","0.034406","0.156953"
"0.03021","0.016158","0.033170","0.156365"
"0.02417","0.015142","0.032304","0.154334"
"0.02109","0.014264","0.031216","0.150295"
"0.01916","0.013474","0.030319","0.145837"
"0.01760","0.012728","0.029779","0.141568"
"0.01657","0.012091","0.029477","0.136942"
"0.01566","0.011493","0.029435","0.132248"
"0.01480","0.010854","0.029232","0.127576"
"0.01394","0.010242","0.029181","0.122363"
"0.01305","0.009779","0.029313","0.116767"
"0.01220","0.009634","0.029653","0.110915"
"0.01144","0.009834","0.030297","0.104891"
"0.01053","0.010056","0.031097","0.098698"
"0.00955","0.010243","0.032106","0.092053"
"0.00855","0.010415","0.033059","0.085630"
"0.00761","0.010474","0.034117","0.079575"
"0.00685","0.010383","0.035113","0.074140"
"0.00623","0.010258","0.036100","0.069010"
"0.00565","0.010186","0.036969","0.063726"
"0.00512","0.010153","0.037634","0.058264"
"0.00462","0.010102","0.038172","0.053070"
"0.00418","0.010024","0.038658","0.047962"
"0.00377","0.009965","0.039282","0.042876"
"0.00339","0.009893","0.039717","0.038064"
"0.00303","0.009814","0.039983","0.033576"
"0.00271","0.009693","0.040086","0.029630"
"0.00245","0.009575","0.039983","0.026116"
"0.00243","0.009464","0.039628","0.023087"
"0.00250","0.009363","0.039029","0.020446"
"0.00260","0.009277","0.038416","0.017952"
"0.00268","0.009258","0.037963","0.015288"
"0.00277","0.009268","0.037420","0.012890"
"0.00287","0.009254","0.036680","0.011390"
"0.00296","0.009202","0.035904","0.010402"
"0.00306","0.009134","0.035170","0.009486"
"0.00320","0.009027","0.034323","0.008595"
"0.00335","0.008916","0.033423","0.007700"
"0.00352","0.008798","0.032551","0.006783"
"0.00368","0.008685","0.031751","0.005850"
"0.00381","0.008604","0.031072","0.004930"
"0.00392","0.008598","0.030477","0.004113"
"0.00403","0.008603","0.030025","0.003353"
"0.00413","0.008583","0.029642","0.002640"
"0.00422","0.008567","0.029393","0.002122"
"0.00432","0.008547","0.029225","0.001690"
"0.00445","0.008522","0.028990","0.001535"
"0.00457","0.008458","0.028809","0.001518"
"0.00473","0.008374","0.028777","0.001505"
"0.00489","0.008271","0.028809","0.001507"
"0.00506","0.008160","0.028813","0.001524"
"0.00523","0.008051","0.028914","0.001573"
"0.00537","0.007979","0.029083","0.001644"
"0.00547","0.007932","0.029278","0.001744"
"0.00558","0.007876","0.029438","0.001878"
"0.00569","0.007809","0.029495","0.002039"
"0.00582","0.007667","0.029463","0.002191"
"0.00593","0.007500","0.029364","0.002371"
"0.00603","0.007337","0.029212","0.002562"
"0.00612","0.007160","0.028992","0.002752"
"0.00620","0.006990","0.028667","0.002939"
"0.00623","0.006793","0.028298","0.003137"
"0.00622","0.006619","0.027952","0.003369"
"0.00615","0.006486","0.027726","0.003588"
"0.00611","0.006351","0.027457","0.003771"
"0.00619","0.006290","0.027180","0.003875"
"0.00636","0.006544","0.027121","0.003837"
"0.00690","0.006930","0.027733","0.003703"
"0.00756","0.007382","0.028623","0.003542"
"0.00838","0.007940","0.029787","0.003349"
"0.00943","0.008595","0.031255","0.003131"
"0.01056","0.009330","0.032942","0.002906"
"0.01174","0.010105","0.034958","0.002641"
"0.01289","0.010871","0.037303","0.002361"
"0.01394","0.011481","0.039914","0.002072"
"0.01465","0.011978","0.042120","0.001773"
"0.01528","0.012425","0.044051","0.001485"
"0.01581","0.012817","0.045848","0.001231"
"0.01614","0.013117","0.047514","0.001095"
"0.01636","0.013389","0.049151","0.001030"
"0.01639","0.013567","0.050815","0.001054"
"0.01622","0.013530","0.052360","0.001235"
"0.01569","0.013277","0.052981","0.001556"
"0.01502","0.012968","0.053386","0.001900"
"0.01414","0.012594","0.053614","0.002345"
"0.01307","0.012144","0.053426","0.002916"
"0.01181","0.011628","0.053003","0.003486"
"0.01049","0.011064","0.052509","0.004077"
"0.00913","0.010551","0.051764","0.004726"
"0.00794","0.010217","0.050366","0.005619"
"0.00709","0.010066","0.049585","0.006524"
"0.00636","0.010029","0.049333","0.007410"
"0.00572","0.010012","0.049424","0.008203"
"0.00531","0.010015","0.049699","0.008800"
"0.00493","0.010068","0.050153","0.009691"
"0.00450","0.010235","0.050768","0.010684"
"0.00423","0.010300","0.051173","0.011606"
"0.00391","0.010432","0.052104","0.012372"
"0.00360","0.010411","0.053048","0.013161"
"0.00331","0.010324","0.053645","0.013858"
"0.00295","0.010341","0.054234","0.014582"
"0.00269","0.010388","0.054956","0.015502"
"0.00249","0.010441","0.055287","0.016127"
"0.00245","0.010382","0.055096","0.016898"
"0.00239","0.010308","0.055251","0.017825"
"0.00232","0.010179","0.055240","0.018647"
"0.00232","0.010013","0.054794","0.019336"
"0.00227","0.009867","0.054560","0.020076"
"0.00227","0.009613","0.054205","0.021027"
"0.00233","0.009330","0.053693","0.021302"
"0.00254","0.008967","0.053069","0.021865"
"0.00266","0.008661","0.052655","0.022252"
"0.00275","0.008330","0.052166","0.022178"
"0.00286","0.008041","0.051687","0.022164"
"0.00305","0.007712","0.051359","0.022313"
"0.00328","0.007289","0.050929","0.022335"
"0.00388","0.006889","0.050115","0.022073"
"0.00513","0.006505","0.049374","0.021892"
"0.00624","0.006194","0.048988","0.021068"
"0.00737","0.005863","0.048460","0.019800"
"0.00852","0.005544","0.047802","0.018572"
"0.00971","0.005316","0.047256","0.017354"
"0.01096","0.005200","0.045984","0.015888"
"0.01222","0.005295","0.044649","0.014162"
"0.01345","0.005387","0.043410","0.012759"
"0.01375","0.005499","0.042150","0.011052"
"0.01409","0.005589","0.040789","0.009556"
"0.01449","0.005739","0.039135","0.008615"
"0.01489","0.005967","0.037340","0.007582"
"0.01521","0.006211","0.035496","0.006402"
"0.01546","0.006381","0.033820","0.005249"
"0.01532","0.006478","0.032422","0.004224"
"0.01449","0.006540","0.030979","0.003391"
"0.01362","0.006600","0.029504","0.002990"
"0.01271","0.006675","0.028261","0.002669"
"0.01175","0.006685","0.027374","0.002409"
"0.01067","0.006605","0.026625","0.002267"
"0.00959","0.006418","0.026189","0.002342"
"0.00845","0.006164","0.025813","0.002537"
"0.00730","0.005932","0.025326","0.002759"
"0.00701","0.005733","0.025381","0.002952"
"0.00676","0.005568","0.026085","0.003197"
"0.00665","0.005434","0.026920","0.003410"
"0.00659","0.005331","0.027785","0.003702"
"0.00664","0.005302","0.028913","0.004021"
"0.00691","0.005344","0.030231","0.004281"
"0.00722","0.005434","0.031624","0.004526"
"0.00758","0.005564","0.033360","0.004755"
"0.00803","0.005668","0.034949","0.004941"
"0.00844","0.005707","0.035811","0.004997"
"0.00875","0.005734","0.036458","0.005035"
"0.00952","0.005720","0.037370","0.004964"
"0.01089","0.005680","0.038662","0.004769"
"0.01217","0.005631","0.040464","0.004629"
"0.01412","0.005765","0.043882","0.004518"
"0.01675","0.005861","0.047000","0.005375"
"0.02038","0.005816","0.049047","0.007301"
"0.02392","0.005747","0.050845","0.010081"
"0.02744","0.005686","0.052681","0.013012"
"0.03084","0.005648","0.054417","0.015957"
"0.03406","0.005604","0.056058","0.018942"
"0.03720","0.005579","0.057625","0.021921"
"0.04009","0.005558","0.058967","0.025063"
"0.04270","0.005563","0.060461","0.028564"
"0.04514","0.005662","0.062452","0.032302"
"0.04746","0.005838","0.064297","0.036157"
"0.04917","0.006073","0.065836","0.040128"
"0.05026","0.006351","0.066844","0.044223"
"0.05146","0.006630","0.067094","0.048319"
"0.05204","0.006724","0.065522","0.052553"
"0.05188","0.006801","0.063550","0.055890"
"0.05069","0.006958","0.061890","0.058133"
"0.04929","0.007100","0.060002","0.059592"
"0.04760","0.007125","0.057825","0.060905"
"0.04585","0.007053","0.055143","0.062157"
"0.04394","0.006928","0.052135","0.063270"
"0.04191","0.006797","0.048954","0.064298"
"0.04004","0.006685","0.045707","0.064983"
"0.03817","0.006560","0.042752","0.065040"
"0.03614","0.006469","0.040227","0.064747"
"0.03411","0.006390","0.038118","0.064081"
"0.03178","0.006348","0.036253","0.063021"
"0.02937","0.006309","0.034441","0.061888"
"0.02685","0.006292","0.032829","0.060646"
"0.02429","0.006286","0.031481","0.059152"
"0.02177","0.006262","0.030292","0.057369"
"0.01924","0.006245","0.029240","0.055140"
"0.01687","0.006195","0.028588","0.052694"
"0.01479","0.006253","0.028164","0.050091"
"0.01278","0.006372","0.028237","0.047481"
"0.01096","0.006527","0.028616","0.044910"
"0.00931","0.006651","0.029179","0.042399"
"0.00771","0.006719","0.029805","0.040063"
"0.00639","0.006800","0.030222","0.038018"
"0.00546","0.006816","0.030391","0.036175"
"0.00477","0.006818","0.030316","0.034417"
"0.00452","0.006783","0.030040","0.032793"
"0.00439","0.006727","0.029835","0.031137"
"0.00441","0.006668","0.029614","0.029521"
"0.00444","0.006614","0.029442","0.027998"
"0.00449","0.006587","0.029326","0.026595"
"0.00455","0.006552","0.029183","0.025639"
"0.00460","0.006519","0.029060","0.024875"
"0.00465","0.006472","0.028970","0.024173"
"0.00471","0.006415","0.028882","0.023501"
"0.00476","0.006348","0.028821","0.022878"
"0.00482","0.006304","0.028758","0.022265"
"0.00487","0.006300","0.028700","0.021656"
"0.00493","0.006307","0.028618","0.020975"
"0.00501","0.006327","0.028471","0.020173"
"0.00509","0.006318","0.028296","0.019450"
"0.00520","0.006284","0.028081","0.018962"
"0.00530","0.006232","0.027772","0.018582"
"0.00539","0.006156","0.027442","0.018213"
"0.00546","0.006074","0.027050","0.017720"
"0.00552","0.005989","0.026603","0.017187"
"0.00556","0.005913","0.026125","0.016642"
"0.00560","0.005849","0.025663","0.016091"
"0.00562","0.005779","0.025173","0.015544"
"0.00565","0.005702","0.024689","0.014993"
"0.00569","0.005639","0.024206","0.014454"
"0.00575","0.005556","0.023728","0.013927"
"0.00581","0.005457","0.023272","0.013450"
"0.00584","0.005347","0.022920","0.013082"
"0.00584","0.005241","0.022702","0.012816"
"0.00583","0.005157","0.022581","0.012626"
"0.00580","0.005104","0.022511","0.012446"
"0.00576","0.005082","0.022539","0.012247"
"0.00572","0.005074","0.022621","0.012063"
"0.00570","0.005069","0.022714","0.011981"
"0.00569","0.005070","0.022861","0.011952"
"0.00566","0.005079","0.023077","0.011881"
"0.00563","0.005082","0.023290","0.011798"
"0.00559","0.005102","0.023477","0.011685"
"0.00555","0.005141","0.023709","0.011403"
"0.00547","0.005196","0.024038","0.010982"
"0.00536","0.005284","0.024392","0.010456"
"0.00524","0.005390","0.024727","0.009901"
"0.00512","0.005502","0.025066","0.009309"
"0.00500","0.005601","0.025389","0.008742"
"0.00488","0.005706","0.025739","0.008202"
"0.00478","0.005826","0.026137","0.007656"
"0.00467","0.005997","0.026597","0.007099"
"0.00456","0.006178","0.027070","0.006546"
"0.00445","0.006370","0.027542","0.006001"
"0.00436","0.006560","0.027935","0.005442"
"0.00429","0.006751","0.028291","0.004886"
"0.00422","0.006947","0.028615","0.004351"
"0.00415","0.007141","0.029036","0.003835"
"0.00407","0.007341","0.029463","0.003461"
"0.00401","0.007547","0.029853","0.003221"
"0.00394","0.007784","0.030319","0.003065"
"0.00387","0.008037","0.030854","0.002902"
"0.00378","0.008289","0.031379","0.002759"
"0.00369","0.008555","0.031913","0.002595"
"0.00360","0.008804","0.032402","0.002408"
"0.00349","0.009032","0.032844","0.002218"
"0.00336","0.009207","0.033257","0.002051"
"0.00324","0.009366","0.033661","0.001883"
"0.00306","0.009598","0.034276","0.001701"
"0.00289","0.009813","0.034817","0.001553"
"0.00272","0.010008","0.035283","0.001436"
"0.00256","0.010171","0.035754","0.001345"
"0.00243","0.010301","0.036203","0.001261"
"0.00228","0.010354","0.036593","0.001211"
"0.00214","0.010367","0.036970","0.001190"
"0.00206","0.010290","0.037101","0.001212"
"0.00204","0.010110","0.037031","0.001271"
"0.00202","0.009929","0.037050","0.001332"
"0.00203","0.009732","0.036975","0.001424"
"0.00208","0.009464","0.036789","0.001548"
"0.00215","0.009165","0.036582","0.001671"
"0.00224","0.008894","0.036602","0.001778"
"0.00235","0.008640","0.036700","0.001868"
"0.00259","0.008285","0.036666","0.002060"
"0.00292","0.007908","0.036600","0.002250"
"0.00326","0.007530","0.036560","0.002451"
"0.00356","0.007170","0.036672","0.002651"
"0.00383","0.006815","0.036854","0.002915"
"0.00419","0.006547","0.037091","0.003150"
"0.00462","0.006395","0.037447","0.003365"
"0.00515","0.006333","0.038174","0.003552"
"0.00576","0.006465","0.039235","0.003714"
"0.00651","0.006603","0.040039","0.003880"
"0.00728","0.006758","0.040838","0.004081"
"0.00813","0.007020","0.041613","0.004248"
"0.00895","0.007353","0.042387","0.004477"
"0.00980","0.007688","0.042884","0.004708"
"0.01069","0.008055","0.043126","0.004897"
"0.01152","0.008481","0.043242","0.004916"
"0.01220","0.008930","0.043312","0.004945"
"0.01282","0.009321","0.043369","0.004958"
"0.01339","0.009665","0.043120","0.004945"
"0.01385","0.009935","0.042471","0.004880"
"0.01412","0.010207","0.041784","0.004802"
"0.01428","0.010373","0.040955","0.004689"
"0.01411","0.010508","0.040068","0.004563"
"0.01373","0.010620","0.039161","0.004367"
"0.01324","0.010742","0.038492","0.004176"
"0.01266","0.010888","0.038018","0.003959"
"0.01195","0.011040","0.037718","0.003779"
"0.01123","0.011190","0.037491","0.003536"
"0.01045","0.011363","0.037222","0.003293"
"0.00960","0.011565","0.037090","0.003113"
"0.00874","0.011742","0.037033","0.003045"
"0.00791","0.011898","0.037118","0.002957"
"0.00714","0.012125","0.037183","0.002868"
"0.00648","0.012382","0.037214","0.002763"
"0.00594","0.012587","0.037316","0.002681"
"0.00549","0.012724","0.037320","0.002609"
"0.00511","0.012869","0.037375","0.002587"
"0.00501","0.012965","0.037240","0.002602"
"0.00509","0.012955","0.036924","0.002686"
"0.00524","0.012862","0.036633","0.002788"
"0.00550","0.012699","0.036157","0.002883"
"0.00586","0.012484","0.035628","0.002948"
"0.00631","0.012218","0.035015","0.003035"
"0.00682","0.011894","0.034491","0.003166"
"0.00740","0.011486","0.034014","0.003302"
"0.00802","0.011045","0.033475","0.003455"
"0.00870","0.010627","0.032930","0.003596"
"0.00940","0.010148","0.032294","0.003719"
"0.01003","0.009659","0.031744","0.003813"
"0.01060","0.009263","0.031390","0.003950"
"0.01113","0.008879","0.030928","0.004090"
"0.01157","0.008477","0.030383","0.004202"
"0.01184","0.008086","0.029896","0.004296"
"0.01196","0.007680","0.029373","0.004388"
"0.01194","0.007321","0.028668","0.004433"
"0.01182","0.006990","0.027959","0.004455"
"0.01159","0.006679","0.027227","0.004447"
"0.01122","0.006373","0.026537","0.004437"
"0.01077","0.006083","0.025798","0.004400"
"0.01031","0.005781","0.025219","0.004371"
"0.00982","0.005490","0.024821","0.004217"
"0.00926","0.005205","0.024429","0.004080"
"0.00870","0.004969","0.024168","0.003974"
"0.00818","0.004761","0.023957","0.003935"
"0.00775","0.004588","0.023815","0.003829"
"0.00739","0.004456","0.023909","0.003739"
"0.00707","0.004351","0.024112","0.003662"
"0.00684","0.004271","0.024346","0.003572"
"0.00668","0.004231","0.024660","0.003470"
"0.00655","0.004197","0.025108","0.003415"
"0.00643","0.004197","0.025580","0.003356"
"0.00634","0.004195","0.026137","0.003346"
"0.00633","0.004215","0.026700","0.003313"
"0.00635","0.004244","0.027347","0.003256"
"0.00639","0.004291","0.028001","0.003130"
"0.00643","0.004344","0.028494","0.003074"
"0.00645","0.004384","0.029084","0.003011"
"0.00684","0.004427","0.029649","0.002898"
"0.00744","0.004461","0.030505","0.002740"
"0.00815","0.004502","0.031290","0.002572"
"0.00916","0.004521","0.032144","0.002348"
"0.01130","0.004451","0.033646","0.002126"
"0.01404","0.004347","0.035935","0.001901"
"0.01741","0.004298","0.038546","0.001732"
"0.02158","0.004264","0.041478","0.001956"
"0.02597","0.004190","0.044440","0.002393"
"0.03055","0.004113","0.047447","0.003005"
"0.03520","0.004079","0.050503","0.003794"
"0.03994","0.004054","0.053365","0.005068"
"0.04463","0.004003","0.056015","0.007073"
"0.04961","0.003923","0.058408","0.009828"
"0.05508","0.003854","0.060624","0.012872"
"0.06018","0.003806","0.062973","0.016112"
"0.06501","0.003788","0.065140","0.019383"
"0.06964","0.003776","0.067245","0.022714"
"0.07394","0.003779","0.069102","0.026238"
"0.07715","0.003826","0.070048","0.030431"
"0.07966","0.003898","0.070190","0.034925"
"0.08137","0.003891","0.069991","0.039578"
"0.08218","0.003873","0.069368","0.043861"
"0.08242","0.003858","0.068408","0.048174"
"0.08201","0.003839","0.067119","0.052632"
"0.08124","0.003774","0.064973","0.057293"
"0.08022","0.003675","0.062544","0.061640"
"0.07882","0.003590","0.059830","0.065397"
"0.07698","0.003554","0.057316","0.068343"
"0.07427","0.003553","0.054730","0.070778"
"0.07119","0.003534","0.051694","0.073020"
"0.06777","0.003534","0.048681","0.075116"
"0.06416","0.003563","0.045791","0.077094"
"0.06036","0.003573","0.043053","0.078887"
"0.05644","0.003565","0.040438","0.079898"
"0.05253","0.003531","0.037848","0.080353"
"0.04877","0.003532","0.035183","0.080068"
"0.04482","0.003601","0.032813","0.079072"
"0.04074","0.003686","0.030961","0.077602"
"0.03690","0.003754","0.029302","0.075783"
"0.03322","0.003813","0.028350","0.073605"
"0.02967","0.003904","0.027754","0.071260"
"0.02648","0.004021","0.027478","0.068705"
"0.02343","0.004176","0.027438","0.065562"
"0.02072","0.004315","0.027593","0.062372"
"0.01834","0.004463","0.028216","0.059087"
"0.01636","0.004572","0.028804","0.055978"
"0.01465","0.004655","0.029363","0.052811"
"0.01297","0.004781","0.030027","0.049466"
"0.01134","0.005003","0.030717","0.045931"
"0.00974","0.005261","0.031311","0.042724"
"0.00812","0.005502","0.031953","0.040120"
"0.00681","0.005652","0.032373","0.038253"
"0.00604","0.005766","0.032533","0.036886"
"0.00550","0.005870","0.032711","0.035589"
"0.00513","0.005950","0.032781","0.034231"
"0.00483","0.005986","0.032794","0.032863"
"0.00458","0.006022","0.032683","0.031505"
"0.00435","0.006008","0.032413","0.030774"
"0.00414","0.006002","0.032194","0.030107"
"0.00396","0.006023","0.031884","0.029440"
"0.00381","0.006015","0.031490","0.028665"
"0.00368","0.005998","0.030941","0.027972"
"0.00374","0.005961","0.030229","0.027402"
"0.00384","0.005866","0.029562","0.027139"
"0.00403","0.005777","0.029039","0.026772"
"0.00424","0.005705","0.028629","0.026332"
"0.00446","0.005654","0.028251","0.025836"
"0.00465","0.005694","0.027977","0.025068"
"0.00484","0.005837","0.027649","0.024217"
"0.00500","0.006048","0.027404","0.023382"
"0.00513","0.006318","0.027265","0.022550"
"0.00524","0.006565","0.027202","0.021830"
"0.00536","0.006793","0.027170","0.021170"
"0.00546","0.007102","0.027154","0.020509"
"0.00555","0.007477","0.027242","0.019878"
"0.00559","0.007939","0.027433","0.019222"
"0.00558","0.008434","0.027904","0.018305"
"0.00549","0.009086","0.028753","0.017333"
"0.00532","0.009862","0.030055","0.016237"
"0.00511","0.010674","0.031431","0.015073"
"0.00491","0.011475","0.032783","0.013921"
"0.00467","0.012266","0.034151","0.012750"
"0.00442","0.012996","0.035640","0.011595"
"0.00415","0.013651","0.037292","0.010491"
"0.00385","0.014279","0.039123","0.009398"
"0.00349","0.014948","0.041184","0.008299"
"0.00308","0.015679","0.043403","0.007198"
"0.00266","0.016415","0.045619","0.006061"
"0.00226","0.017025","0.047637","0.005140"
"0.00189","0.017512","0.049477","0.004312"
"0.00154","0.017942","0.051222","0.003541"
"0.00122","0.018295","0.052788","0.003076"
"0.00098","0.018431","0.053995","0.002754"
"0.00082","0.018425","0.054751","0.002505"
"0.00067","0.018352","0.055336","0.002340"
"0.00052","0.018274","0.055835","0.002152"
"0.00039","0.018183","0.056186","0.001939"
"0.00028","0.018017","0.056351","0.001750"
"0.00020","0.017777","0.056350","0.001565"
"0.00016","0.017470","0.056186","0.001417"
"0.00016","0.017069","0.055768","0.001298"
"0.00028","0.016465","0.054948","0.001213"
"0.00046","0.015763","0.053709","0.001166"
"0.00064","0.015051","0.052391","0.001109"
"0.00083","0.014360","0.050998","0.001057"
"0.00104","0.013678","0.049516","0.001033"
"0.00126","0.013041","0.047928","0.001003"
"0.00155","0.012337","0.046081","0.001018"
"0.00188","0.011631","0.044172","0.001074"
"0.00221","0.010918","0.042264","0.001141"
"0.00253","0.010189","0.040389","0.001254"
"0.00286","0.009466","0.038552","0.001395"
"0.00316","0.008793","0.036755","0.001532"
"0.00344","0.008191","0.034965","0.001674"
"0.00375","0.007626","0.033152","0.001809"
"0.00404","0.007090","0.031333","0.001946"
"0.00422","0.006718","0.029869","0.002051"
"0.00434","0.006442","0.028833","0.002125"
"0.00445","0.006193","0.027984","0.002187"
"0.00456","0.005941","0.027290","0.002236"
"0.00467","0.005679","0.026701","0.002306"
"0.00475","0.005412","0.026212","0.002355"
"0.00475","0.005282","0.026017","0.002378"
"0.00473","0.005179","0.025730","0.002422"
"0.00471","0.005105","0.025304","0.002474"
"0.00473","0.005048","0.024848","0.002505"
"0.00475","0.005019","0.024465","0.002533"
"0.00479","0.005024","0.024153","0.002560"
"0.00481","0.005041","0.023946","0.002568"
"0.00476","0.005071","0.023893","0.002557"
"0.00473","0.005075","0.023936","0.002544"
"0.00474","0.005045","0.023928","0.002554"
"0.00474","0.005029","0.023969","0.002578"
"0.00476","0.005005","0.024013","0.002644"
"0.00474","0.005002","0.024084","0.002740"
"0.00471","0.005020","0.024214","0.002798"
"0.00470","0.005038","0.024362","0.002886"
"0.00472","0.005031","0.024456","0.002981"
"0.00475","0.005065","0.024638","0.003061"
"0.00476","0.005125","0.025010","0.003122"
"0.00476","0.005200","0.025375","0.003147"
"0.00474","0.005278","0.025602","0.003148"
"0.00473","0.005335","0.025692","0.003178"
"0.00487","0.005452","0.027151","0.003179"
"0.00506","0.005556","0.028587","0.003208"
"0.00523","0.005661","0.030015","0.003206"
"0.00538","0.005787","0.031365","0.003175"
"0.00551","0.005892","0.032597","0.003156"
"0.00565","0.006009","0.033814","0.003096"
"0.00582","0.006098","0.035241","0.003020"
"0.00596","0.006157","0.036672","0.002943"
"0.00593","0.006184","0.036802","0.002881"
"0.00586","0.006225","0.036968","0.002813"
"0.00577","0.006216","0.037108","0.002754"
"0.00569","0.006169","0.037157","0.002725"
"0.00562","0.006109","0.037385","0.002694"
"0.00552","0.006047","0.037711","0.002699"
"0.00546","0.006033","0.037821","0.002656"
"0.00531","0.005939","0.036413","0.002641"
"0.00515","0.005838","0.034906","0.002624"
"0.00501","0.005724","0.033298","0.002640"
"0.00492","0.005598","0.031690","0.002691"
"0.00482","0.005481","0.030105","0.002719"
"0.00474","0.005357","0.028401","0.002770"
"0.00469","0.005216","0.026598","0.002853"
"0.00468","0.005053","0.024742","0.003135"
"0.00481","0.004937","0.024173","0.003410"
"0.00496","0.004813","0.023797","0.003706"
"0.00510","0.004722","0.023659","0.004004"
"0.00526","0.004677","0.023673","0.004277"
"0.00541","0.004629","0.023686","0.004595"
"0.00558","0.004602","0.023676","0.004892"
"0.00570","0.004582","0.023909","0.005079"
"0.00583","0.004589","0.024286","0.005156"
"0.00596","0.004587","0.024774","0.005175"
"0.00606","0.004631","0.025137","0.005187"
"0.00608","0.004661","0.025476","0.005180"
"0.00610","0.004711","0.025902","0.005166"
"0.00624","0.004762","0.026511","0.005101"
"0.00636","0.004868","0.027271","0.005000"
"0.00645","0.005015","0.028178","0.004800"
"0.00652","0.005162","0.029103","0.004615"
"0.00664","0.005300","0.029760","0.004409"
"0.00679","0.005424","0.030280","0.004175"
"0.00696","0.005534","0.030722","0.003925"
"0.00707","0.005646","0.030936","0.003667"
"0.00712","0.005719","0.030965","0.003455"
"0.00717","0.005772","0.030990","0.003295"
"0.00714","0.005834","0.030902","0.003205"
"0.00706","0.005925","0.030764","0.003143"
"0.00698","0.006027","0.030805","0.003073"
"0.00698","0.006139","0.030890","0.003014"
"0.00695","0.006226","0.030755","0.002977"
"0.00688","0.006318","0.030659","0.002964"
"0.00677","0.006348","0.030139","0.002981"
"0.00667","0.006325","0.029445","0.002957"
"0.00661","0.006280","0.028924","0.002930"
"0.00650","0.006263","0.028857","0.003015"
"0.00641","0.006241","0.028822","0.003195"
"0.00627","0.006276","0.028780","0.003451"
"0.00613","0.006356","0.028777","0.003727"
"0.00605","0.006445","0.028891","0.003945"
"0.00598","0.006541","0.029061","0.004222"
"0.00595","0.006629","0.029338","0.004538"
"0.00599","0.006659","0.029295","0.004825"
"0.00604","0.006617","0.029026","0.005041"
"0.00608","0.006574","0.028736","0.005132"
"0.00615","0.006508","0.028558","0.005198"
"0.00613","0.006406","0.028291","0.005255"
"0.00614","0.006311","0.028205","0.005292"
"0.00617","0.006268","0.028149","0.005295"
"0.00616","0.006240","0.027928","0.005296"
"0.00615","0.006175","0.027359","0.005182"
"0.00618","0.006120","0.026797","0.004948"
"0.00622","0.005984","0.026224","0.004678"
"0.00630","0.005790","0.025778","0.004378"
"0.00639","0.005604","0.025510","0.004090"
"0.00647","0.005386","0.025274","0.003787"
"0.00652","0.005164","0.025092","0.003513"
"0.00651","0.004994","0.025288","0.003292"
"0.00650","0.004863","0.025690","0.003121"
"0.00649","0.004735","0.026149","0.003073"
"0.00649","0.004652","0.026737","0.003033"
"0.00651","0.004624","0.027535","0.003006"
"0.00654","0.004631","0.028308","0.002972"
"0.00655","0.004687","0.029132","0.002916"
"0.00659","0.004763","0.029973","0.002829"
"0.00659","0.004857","0.030725","0.002752"
"0.00655","0.004954","0.031489","0.002700"
"0.00653","0.005079","0.032412","0.002655"
"0.00673","0.005200","0.033563","0.002603"
"0.00721","0.005318","0.035080","0.002523"
"0.00792","0.005417","0.037081","0.002438"
"0.00906","0.005498","0.039167","0.002306"
"0.01128","0.005573","0.041975","0.002115"
"0.01573","0.005657","0.045221","0.001943"
"0.02089","0.005771","0.049306","0.001974"
"0.02613","0.005874","0.053499","0.002403"
"0.03138","0.005902","0.057221","0.003650"
"0.03698","0.005838","0.060895","0.005478"
"0.04349","0.005715","0.064970","0.007812"
"0.05176","0.005556","0.069659","0.010848"
"0.06067","0.005473","0.074774","0.014568"
"0.07052","0.005370","0.079769","0.018702"
"0.08074","0.005189","0.083936","0.023851"
"0.09121","0.004954","0.087185","0.029793"
"0.10298","0.004684","0.089407","0.035877"
"0.11507","0.004457","0.091753","0.042125"
"0.12764","0.004329","0.093424","0.048753"
"0.13713","0.004238","0.093655","0.056074"
"0.14368","0.004132","0.092420","0.063708"
"0.14941","0.004073","0.090089","0.070738"
"0.15502","0.004054","0.087866","0.076713"
"0.16026","0.004123","0.085993","0.081506"
"0.16440","0.004208","0.083389","0.086497"
"0.16667","0.004281","0.080804","0.091272"
"0.16686","0.004285","0.077520","0.095037"
"0.16546","0.004211","0.073714","0.097696"
"0.16250","0.004234","0.070372","0.098929"
"0.15889","0.004419","0.067955","0.098456"
"0.15334","0.004853","0.066088","0.097267"
"0.14527","0.005383","0.064425","0.096310"
"0.13524","0.005798","0.062308","0.095421"
"0.12426","0.006101","0.060997","0.093754"
"0.11554","0.006341","0.060400","0.090964"
"0.10760","0.006547","0.060635","0.088216"
"0.09972","0.006676","0.061132","0.085953"
"0.09185","0.006789","0.061521","0.084181"
"0.08404","0.007013","0.062318","0.081428"
"0.07605","0.007477","0.063473","0.077415"
"0.06865","0.007991","0.064036","0.073042"
"0.06159","0.008584","0.064553","0.069011"
"0.05594","0.009197","0.065275","0.065455"
"0.05029","0.009682","0.065831","0.063105"
"0.04471","0.009926","0.066412","0.061266"
"0.04037","0.009908","0.066577","0.059021"
"0.03659","0.009851","0.066817","0.055910"
"0.03414","0.009983","0.066831","0.052331"
"0.03151","0.010158","0.066564","0.049269"
"0.02858","0.010336","0.066436","0.046300"
"0.02557","0.010558","0.066662","0.042849"
"0.02260","0.010727","0.066475","0.039792"
"0.01974","0.010807","0.065729","0.036983"
"0.01729","0.010582","0.063692","0.035156"
"0.01585","0.010166","0.061692","0.033615"
"0.01475","0.009734","0.059783","0.032148"
"0.01314","0.009273","0.057889","0.030616"
"0.01101","0.008811","0.055767","0.028875"
"0.00952","0.008402","0.053223","0.026915"
"0.00820","0.008175","0.050419","0.025017"
"0.00712","0.008032","0.048144","0.023449"
"0.00642","0.007803","0.046188","0.022432"
"0.00579","0.007460","0.044307","0.021614"
"0.00544","0.007144","0.042269","0.020655"
"0.00520","0.006884","0.039798","0.020036"
"0.00499","0.006672","0.037228","0.019060"
"0.00476","0.006533","0.035091","0.017458"
"0.00445","0.006459","0.033342","0.015739"
"0.00400","0.006548","0.032434","0.014369"
"0.00350","0.006676","0.031955","0.013172"
"0.00306","0.006786","0.031515","0.011974"
"0.00313","0.006928","0.031046","0.010790"
"0.00333","0.007030","0.030655","0.009736"
"0.00351","0.007114","0.030402","0.008717"
"0.00371","0.007159","0.030116","0.007774"
"0.00393","0.007160","0.029793","0.006826"
"0.00417","0.007232","0.029513","0.005839"
"0.00447","0.007272","0.029360","0.004868"
"0.00473","0.007240","0.029223","0.003954"
"0.00491","0.007159","0.029457","0.003084"
"0.00509","0.007025","0.029519","0.002705"
"0.00519","0.006866","0.029450","0.002480"
"0.00527","0.006704","0.029464","0.002290"
"0.00537","0.006502","0.029025","0.002166"
"0.00545","0.006249","0.028462","0.002093"
"0.00552","0.006006","0.027790","0.002028"
"0.00561","0.005755","0.027658","0.001942"
"0.00562","0.005530","0.027616","0.001884"
"0.00564","0.005310","0.027515","0.001865"
"0.00563","0.005110","0.027463","0.001883"
"0.00553","0.004964","0.026907","0.001944"
"0.00542","0.004832","0.026345","0.001995"
"0.00527","0.004758","0.025795","0.002037"
"0.00517","0.004675","0.025683","0.002038"
"0.00510","0.004625","0.025490","0.002025"
"0.00505","0.004558","0.025350","0.002035"
"0.00500","0.004515","0.024912","0.002047"
"0.00498","0.004486","0.024374","0.002061"
"0.00496","0.004484","0.024678","0.002023"
"0.00493","0.004524","0.025072","0.001952"
"0.00490","0.004583","0.025666","0.001886"
"0.00479","0.004765","0.026221","0.001988"
"0.00477","0.005004","0.027534","0.002121"
"0.00472","0.005306","0.029130","0.002210"
"0.00475","0.005541","0.030653","0.002326"
"0.00481","0.005644","0.031551","0.002339"
"0.00492","0.005702","0.032457","0.002261"
"0.00501","0.005698","0.033031","0.002252"
"0.00505","0.005759","0.033142","0.002245"
"0.00509","0.005794","0.032777","0.002303"
"0.00513","0.005816","0.032547","0.002343"
"0.00522","0.005842","0.032985","0.002323"
"0.00535","0.005807","0.033370","0.002326"
"0.00543","0.005810","0.033386","0.002310"
"0.00548","0.005821","0.033054","0.002341"
"0.00550","0.005792","0.032844","0.002405"
"0.00559","0.005682","0.032257","0.002327"
"0.00561","0.005522","0.031132","0.002162"
"0.00564","0.005303","0.029977","0.001959"
"0.00562","0.005128","0.029015","0.001736"
"0.00565","0.005040","0.029089","0.001647"
"0.00569","0.004941","0.029239","0.001676"
"0.00563","0.005019","0.029214","0.001707"
"0.00559","0.005117","0.029955","0.001716"
"0.00552","0.005375","0.031233","0.001728"
"0.00543","0.005715","0.032689","0.001807"
"0.00541","0.006070","0.033548","0.001988"
"0.00547","0.006466","0.034454","0.002069"
"0.00552","0.006722","0.034876","0.002159"
"0.00565","0.006903","0.035464","0.002048"
"0.00573","0.006958","0.035640","0.001950"
"0.00576","0.006911","0.035768","0.001895"
"0.00575","0.006841","0.035821","0.001930"
"0.00570","0.006763","0.035277","0.002047"
"0.00566","0.006659","0.034836","0.002166"
"0.00564","0.006601","0.034335","0.002210"
"0.00562","0.006558","0.033885","0.002203"
"0.00566","0.006402","0.033482","0.002208"
"0.00566","0.006185","0.032442","0.002256"
"0.00570","0.005828","0.031355","0.002248"
"0.00575","0.005443","0.029948","0.002159"
"0.00576","0.005024","0.028895","0.001992"
"0.00569","0.004622","0.027815","0.001898"
"0.00564","0.004308","0.027274","0.001844"
"0.00554","0.004041","0.026811","0.001969"
"0.00544","0.003920","0.026560","0.002078"
"0.00536","0.003843","0.026618","0.002226"
"0.00533","0.003787","0.026486","0.002300"
"0.00536","0.003780","0.026731","0.002319"
"0.00539","0.003801","0.026807","0.002275"
"0.00543","0.003821","0.026697","0.002368"
"0.00540","0.003833","0.026433","0.002542"
"0.00538","0.003809","0.026498","0.002722"
"0.00544","0.003780","0.026710","0.002952"
"0.00548","0.003720","0.027141","0.003163"
"0.00553","0.003651","0.027530","0.003403"
"0.00557","0.003594","0.027868","0.003620"
"0.00556","0.003521","0.028477","0.003804"
"0.00552","0.003481","0.028677","0.003973"
"0.00552","0.003417","0.029244","0.004262"
"0.00555","0.003350","0.029868","0.004678"
"0.00558","0.003322","0.029919","0.004952"
"0.00562","0.003297","0.029697","0.005245"
"0.00564","0.003237","0.029556","0.005418"
"0.00565","0.003204","0.029251","0.005441"
"0.00561","0.003131","0.029405","0.005500"
"0.00559","0.003085","0.029316","0.005521"
"0.00562","0.003077","0.029379","0.005491"
"0.00560","0.003061","0.029681","0.005404"
"0.00569","0.003073","0.030027","0.005136"
"0.00580","0.003094","0.030347","0.004861"
"0.00683","0.003070","0.030994","0.004664"
"0.00833","0.003011","0.031347","0.005390"
"0.01029","0.002880","0.032420","0.007159"
"0.01282","0.002773","0.033671","0.009225"
"0.01600","0.002650","0.035785","0.011828"
"0.01566","0.003039","0.038482","0.011949"
"0.01538","0.003372","0.041133","0.012324"
"0.01507","0.003699","0.044030","0.012970"
"0.01470","0.004034","0.047339","0.013907"
"0.01434","0.004377","0.050837","0.014770"
"0.01405","0.004671","0.054258","0.015683"
"0.01390","0.004985","0.057567","0.016673"
"0.01428","0.005277","0.060676","0.017855"
"0.01563","0.005438","0.063250","0.020130"
"0.01726","0.005553","0.065308","0.022440"
"0.01800","0.005730","0.066812","0.024578"
"0.01845","0.005965","0.068397","0.025608"
"0.02006","0.006228","0.069424","0.025131"
"0.02136","0.006439","0.069701","0.024178"
"0.02212","0.006648","0.068646","0.022387"
"0.02644","0.006306","0.066834","0.023116"
"0.03063","0.006008","0.065290","0.023533"
"0.03479","0.005721","0.063457","0.023623"
"0.03793","0.005645","0.061273","0.023189"
"0.04081","0.005827","0.058998","0.022218"
"0.04460","0.006157","0.057176","0.021104"
"0.04967","0.006498","0.055157","0.019812"
"0.05350","0.006995","0.053683","0.018339"
"0.05751","0.007693","0.052677","0.015982"
"0.06256","0.008567","0.053089","0.013582"
"0.06893","0.009406","0.053177","0.011940"
"0.07593","0.010201","0.052664","0.011008"
"0.08145","0.010961","0.051822","0.011402"
"0.08687","0.011772","0.051638","0.012369"
"0.09402","0.012342","0.051499","0.013782"
"0.10261","0.012799","0.051685","0.015393"
"0.11144","0.013167","0.052319","0.017126"
"0.12185","0.013467","0.053049","0.018994"
"0.13491","0.013441","0.053134","0.021506"
"0.14732","0.012976","0.052161","0.024769"
"0.15765","0.012413","0.050713","0.028165"
"0.16609","0.011827","0.049760","0.031831"
"0.17645","0.011007","0.047564","0.036803"
"0.18637","0.010126","0.044865","0.041574"
"0.19433","0.009023","0.041312","0.046887"
"0.19975","0.007973","0.038288","0.050873"
"0.20370","0.006983","0.035789","0.054274"
"0.20531","0.006066","0.033394","0.057525"
"0.20547","0.005193","0.030627","0.060475"
"0.20187","0.004824","0.029218","0.063024"
"0.19636","0.004714","0.028539","0.065480"
"0.19036","0.004785","0.027503","0.068114"
"0.18146","0.005086","0.026795","0.069904"
"0.17035","0.005499","0.027153","0.070592"
"0.15972","0.006125","0.028918","0.070342"
"0.14944","0.006815","0.031016","0.069937"
"0.13856","0.007480","0.032708","0.069894"
"0.12662","0.008289","0.034691","0.068721"
"0.11366","0.008951","0.036281","0.068211"
"0.10066","0.009544","0.037573","0.067348"
"0.08887","0.009941","0.038739","0.067275"
"0.07962","0.010214","0.039965","0.066798"
"0.07277","0.010348","0.041757","0.064564"
"0.06723","0.010392","0.043192","0.062855"
"0.06324","0.010232","0.043333","0.061293"
"0.05967","0.009910","0.042665","0.059683"
"0.05641","0.009505","0.041874","0.057755"
"0.05417","0.008894","0.040727","0.056858"
"0.05248","0.008277","0.039356","0.056236"
"0.05114","0.007680","0.037341","0.055769"
"0.05030","0.007038","0.035123","0.055295"
"0.04938","0.006429","0.032433","0.054378"
"0.04678","0.005786","0.029904","0.053550"
"0.04429","0.005332","0.028285","0.051375"
"0.04241","0.005024","0.027126","0.048796"
"0.04052","0.004882","0.026392","0.046168"
"0.03676","0.004839","0.025662","0.043841"
"0.03284","0.004891","0.024804","0.042442"
"0.02889","0.004983","0.024350","0.040192"
"0.02531","0.005053","0.024150","0.037797"
"0.02178","0.005118","0.024121","0.035455"
"0.01826","0.005143","0.024546","0.033192"
"0.01506","0.005190","0.025200","0.030525"
"0.01193","0.005223","0.025851","0.028399"
"0.00887","0.005225","0.026533","0.026682"
"0.00608","0.005204","0.027112","0.024867"
"0.00449","0.005125","0.027952","0.022957"
"0.00445","0.005049","0.028903","0.020705"
"0.00447","0.004944","0.029587","0.019001"
"0.00452","0.004855","0.030236","0.017473"
"0.00485","0.004944","0.031255","0.015788"
"0.00534","0.005246","0.032603","0.014295"
"0.00600","0.005655","0.034061","0.012908"
"0.00680","0.006206","0.035461","0.011563"
"0.00765","0.006829","0.037026","0.010329"
"0.00846","0.007567","0.038737","0.009041"
"0.00926","0.008362","0.040444","0.007757"
"0.01005","0.009233","0.042107","0.006762"
"0.01081","0.010095","0.043949","0.005876"
"0.01153","0.010981","0.046070","0.005082"
"0.01213","0.011848","0.048166","0.004533"
"0.01243","0.012486","0.050091","0.004025"
"0.01257","0.013041","0.051534","0.003586"
"0.01256","0.013517","0.052636","0.003468"
"0.01251","0.013853","0.053622","0.003417"
"0.01214","0.013987","0.054130","0.003436"
"0.01165","0.013854","0.054263","0.003446"
"0.01107","0.013651","0.053793","0.003393"
"0.01038","0.013377","0.052948","0.003369"
"0.00957","0.013024","0.051998","0.003355"
"0.00880","0.012623","0.051023","0.003349"
"0.00803","0.012225","0.049694","0.003342"
"0.00732","0.011743","0.047827","0.003333"
"0.00668","0.011229","0.045409","0.003310"
"0.00611","0.010639","0.043040","0.003312"
"0.00556","0.010038","0.041125","0.003321"
"0.00534","0.009722","0.039594","0.003341"
"0.00538","0.009525","0.038772","0.003363"
"0.00567","0.009518","0.038882","0.003342"
"0.00605","0.009644","0.039245","0.003254"
"0.00643","0.009805","0.039524","0.003202"
"0.00675","0.010013","0.039626","0.003155"
"0.00701","0.010169","0.039961","0.003143"
"0.00722","0.010239","0.040587","0.003109"
"0.00734","0.010141","0.040792","0.003069"
"0.00735","0.009879","0.040434","0.003029"
"0.00733","0.009560","0.039790","0.003030"
"0.00732","0.009214","0.039226","0.003009"
"0.00733","0.008890","0.038685","0.002977"
"0.00732","0.008603","0.037857","0.002904"
"0.00732","0.008344","0.036820","0.002818"
"0.00726","0.008060","0.035760","0.002726"
"0.00711","0.007724","0.034391","0.002646"
"0.00689","0.007226","0.032528","0.002588"
"0.00664","0.006714","0.030545","0.002567"
"0.00641","0.006186","0.028521","0.002569"
"0.00620","0.005669","0.026688","0.002568"
"0.00598","0.005201","0.024982","0.002628"
"0.00577","0.004770","0.023401","0.002716"
"0.00571","0.004498","0.022260","0.002796"
"0.00570","0.004383","0.021645","0.002861"
"0.00572","0.004309","0.021357","0.002862"
"0.00575","0.004254","0.021207","0.002859"
"0.00577","0.004209","0.021197","0.002858"
"0.00578","0.004182","0.021237","0.002823"
"0.00581","0.004147","0.021379","0.002781"
"0.00583","0.004123","0.021587","0.002721"
"0.00584","0.004105","0.021812","0.002646"
"0.00582","0.004111","0.021927","0.002624"
"0.00577","0.004132","0.022032","0.002593"
"0.00570","0.004150","0.022140","0.002546"
"0.00567","0.004165","0.022228","0.002509"
"0.00561","0.004193","0.022291","0.002459"
"0.00553","0.004252","0.022337","0.002419"
"0.00545","0.004349","0.022504","0.002376"
"0.00538","0.004414","0.022749","0.002356"
"0.00529","0.004476","0.023079","0.002370"
"0.00518","0.004559","0.023487","0.002383"
"0.00503","0.004644","0.024051","0.002379"
"0.00487","0.004738","0.024666","0.002382"
"0.00466","0.004778","0.025643","0.002447"
"0.00444","0.004795","0.026622","0.002526"
"0.00431","0.004831","0.027814","0.002589"
"0.00422","0.004852","0.028985","0.002652"
"0.00411","0.004866","0.030257","0.002758"
"0.00401","0.004868","0.031488","0.002974"
"0.00390","0.004872","0.032638","0.003242"
"0.00386","0.004879","0.033464","0.003447"
"0.00387","0.004871","0.034131","0.003648"
"0.00377","0.004859","0.034537","0.003854"
"0.00366","0.004892","0.034966","0.004061"
"0.00360","0.004917","0.035130","0.004255"
"0.00357","0.004945","0.035182","0.004335"
"0.00358","0.004953","0.035003","0.004503"
"0.00360","0.004954","0.034572","0.004685"
"0.00367","0.005015","0.033695","0.004774"
"0.00383","0.005062","0.032615","0.004820"
"0.00390","0.005086","0.031332","0.004865"
"0.00394","0.005133","0.030136","0.004885"
"0.00400","0.005184","0.028833","0.004864"
"0.00407","0.005221","0.027785","0.004635"
"0.00414","0.005245","0.027006","0.004364"
"0.00416","0.005231","0.026594","0.004156"
"0.00413","0.005204","0.026295","0.003959"
"0.00424","0.005142","0.026054","0.003735"
"0.00440","0.005031","0.025685","0.003496"
"0.00456","0.004905","0.025491","0.003253"
"0.00472","0.004785","0.025362","0.003129"
"0.00493","0.004671","0.025292","0.002887"
"0.00515","0.004552","0.025351","0.002667"
"0.00538","0.004423","0.025411","0.002485"
"0.00554","0.004317","0.025665","0.002332"
"0.00570","0.004233","0.025984","0.002196"
"0.00585","0.004144","0.026215","0.002076"
"0.00596","0.004059","0.026190","0.001998"
"0.00599","0.004007","0.025903","0.002037"
"0.00601","0.004037","0.025591","0.002045"
"0.00603","0.004109","0.025414","0.002046"
"0.00609","0.004180","0.025197","0.002037"
"0.00611","0.004256","0.025010","0.002029"
"0.00617","0.004353","0.024909","0.002000"
"0.00651","0.004475","0.025376","0.001941"
"0.00738","0.004645","0.026100","0.002031"
"0.00918","0.004860","0.027128","0.002534"
"0.01125","0.005051","0.028335","0.003643"
"0.01332","0.005252","0.029409","0.005766"
"0.01539","0.005499","0.030476","0.007907"
"0.01746","0.005760","0.031426","0.010241"
"0.01954","0.006022","0.032357","0.012645"
"0.02167","0.006279","0.033502","0.015091"
"0.02403","0.006495","0.034685","0.017887"
"0.02648","0.006622","0.036143","0.020832"
"0.02893","0.006733","0.037649","0.023908"
"0.03134","0.006819","0.039225","0.027081"
"0.03377","0.006895","0.040667","0.030331"
"0.03601","0.006951","0.041793","0.033645"
"0.03759","0.006987","0.042130","0.037078"
"0.03848","0.006953","0.042204","0.040420"
"0.03814","0.006907","0.041977","0.043343"
"0.03744","0.006868","0.041578","0.045567"
"0.03671","0.006805","0.041373","0.046897"
"0.03554","0.006691","0.041075","0.048168"
"0.03395","0.006501","0.040720","0.049237"
"0.03218","0.006297","0.040203","0.050219"
"0.03036","0.006071","0.039518","0.051535"
"0.02825","0.005866","0.038737","0.052613"
"0.02601","0.005740","0.037681","0.053275"
"0.02374","0.005619","0.036602","0.053458"
"0.02146","0.005526","0.035632","0.053302"
"0.01918","0.005446","0.034886","0.052802"
"0.01704","0.005380","0.034403","0.052104"
"0.01523","0.005311","0.034170","0.051315"
"0.01356","0.005271","0.034063","0.050337"
"0.01209","0.005200","0.034008","0.049612"
"0.01068","0.005146","0.033977","0.048997"
"0.00908","0.005137","0.033926","0.048016"
"0.00788","0.005154","0.033620","0.046961"
"0.00709","0.005263","0.033326","0.045795"
"0.00650","0.005398","0.033220","0.044540"
"0.00598","0.005545","0.033362","0.042828"
"0.00560","0.005692","0.033584","0.041014"
"0.00526","0.005785","0.033675","0.039468"
"0.00497","0.005886","0.033614","0.038241"
"0.00471","0.005996","0.033374","0.037285"
"0.00448","0.006103","0.032897","0.036830"
"0.00427","0.006211","0.032248","0.036587"
"0.00408","0.006335","0.031520","0.036391"
"0.00388","0.006452","0.030752","0.036352"
"0.00368","0.006569","0.029992","0.035997"
"0.00351","0.006708","0.029222","0.035181"
"0.00356","0.006804","0.028478","0.034396"
"0.00366","0.006846","0.028010","0.033721"
"0.00377","0.006834","0.027581","0.033184"
"0.00389","0.006776","0.027098","0.032793"
"0.00401","0.006717","0.026477","0.032639"
"0.00414","0.006640","0.025772","0.032757"
"0.00427","0.006523","0.025002","0.033191"
"0.00440","0.006376","0.024173","0.033928"
"0.00452","0.006221","0.023401","0.034544"
"0.00460","0.006065","0.022862","0.034833"
"0.00465","0.005919","0.022460","0.035003"
"0.00465","0.005764","0.022099","0.035143"
"0.00467","0.005599","0.021671","0.035262"
"0.00470","0.005436","0.021154","0.035599"
"0.00472","0.005243","0.020470","0.036543"
"0.00478","0.005063","0.019596","0.037964"
"0.00484","0.004927","0.018751","0.039450"
"0.00489","0.004800","0.017983","0.040938"
"0.00492","0.004658","0.017348","0.042351"
"0.00495","0.004501","0.016868","0.043408"
"0.00495","0.004380","0.016572","0.043904"
"0.00494","0.004289","0.016345","0.044008"
"0.00494","0.004206","0.016159","0.043799"
"0.00495","0.004114","0.015937","0.043677"
"0.00496","0.004024","0.015624","0.043655"
"0.00498","0.003928","0.015281","0.043727"
"0.00506","0.003844","0.014866","0.043825"
"0.00516","0.003773","0.014489","0.043963"
"0.00528","0.003712","0.014180","0.043937"
"0.00537","0.003668","0.014074","0.043483"
"0.00542","0.003649","0.014175","0.042502"
"0.00546","0.003646","0.014344","0.041137"
"0.00550","0.003639","0.014576","0.039420"
"0.00555","0.003664","0.014727","0.037576"
"0.00564","0.003705","0.014703","0.035859"
"0.00575","0.003729","0.014525","0.034381"
"0.00588","0.003753","0.014256","0.033001"
"0.00600","0.003769","0.014022","0.031653"
"0.00611","0.003783","0.013867","0.030194"
"0.00623","0.003798","0.013789","0.028528"
"0.00632","0.003823","0.013894","0.026516"
"0.00638","0.003834","0.014088","0.024414"
"0.00642","0.003839","0.014274","0.022252"
"0.00645","0.003844","0.014443","0.020096"
"0.00647","0.003847","0.014608","0.018087"
"0.00647","0.003837","0.014752","0.016288"
"0.00649","0.003829","0.014875","0.014805"
"0.00650","0.003846","0.014973","0.013661"
"0.00648","0.003874","0.015142","0.012680"
"0.00644","0.003900","0.015404","0.011742"
"0.00640","0.003929","0.015707","0.010777"
"0.00632","0.003965","0.016135","0.009752"
"0.00624","0.004024","0.016557","0.008687"
"0.00615","0.004081","0.016912","0.007693"
"0.00606","0.004125","0.017206","0.006888"
"0.00599","0.004156","0.017382","0.006369"
"0.00591","0.004217","0.017548","0.005905"
"0.00580","0.004329","0.017865","0.005426"
"0.00567","0.004506","0.018549","0.004962"
"0.00554","0.004880","0.019734","0.004538"
"0.00541","0.005277","0.020999","0.004146"
"0.00527","0.005664","0.022354","0.003736"
"0.00513","0.006069","0.023830","0.003306"
"0.00494","0.006548","0.025536","0.002849"
"0.00478","0.007007","0.027217","0.002401"
"0.00460","0.007418","0.028701","0.002008"
"0.00448","0.007603","0.029645","0.001742"
"0.00440","0.007746","0.030474","0.001539"
"0.00432","0.007907","0.031357","0.001412"
"0.00439","0.008226","0.032787","0.001312"
"0.00455","0.008570","0.034327","0.001221"
"0.00475","0.008903","0.035968","0.001144"
"0.00497","0.009200","0.037457","0.001116"
"0.00521","0.009454","0.038555","0.001103"
"0.00547","0.009512","0.039143","0.001165"
"0.00572","0.009527","0.039576","0.001236"
"0.00584","0.009388","0.039371","0.001311"
"0.00590","0.009140","0.038804","0.001426"
"0.00601","0.008798","0.037815","0.001544"
"0.00611","0.008460","0.036816","0.001677"
"0.00624","0.008157","0.036100","0.001813"
"0.00632","0.008051","0.035909","0.001867"
"0.00637","0.008011","0.035885","0.001886"
"0.00640","0.007951","0.035752","0.001898"
"0.00631","0.007717","0.034957","0.001923"
"0.00612","0.007447","0.034042","0.001971"
"0.00590","0.007152","0.033033","0.001995"
"0.00563","0.006839","0.032005","0.002018"
"0.00535","0.006494","0.030906","0.002072"
"0.00510","0.006119","0.029725","0.002112"
"0.00484","0.005770","0.028612","0.002139"
"0.00473","0.005577","0.028072","0.002190"
"0.00469","0.005459","0.027684","0.002231"
"0.00470","0.005379","0.027445","0.002275"
"0.00470","0.005323","0.027212","0.002274"
"0.00468","0.005282","0.026888","0.002250"
"0.00469","0.005255","0.026532","0.002253"
"0.00471","0.005178","0.026033","0.002282"
"0.00474","0.005108","0.025620","0.002297"
"0.00474","0.005057","0.025494","0.002297"
"0.00470","0.004998","0.025396","0.002312"
"0.00468","0.004976","0.025320","0.002349"
"0.00472","0.004972","0.025302","0.002371"
"0.00475","0.004983","0.025346","0.002393"
"0.00480","0.005018","0.025449","0.002438"
"0.00487","0.005049","0.025487","0.002492"
"0.00495","0.005082","0.025336","0.002541"
"0.00502","0.005105","0.025164","0.002582"
"0.00504","0.005100","0.024954","0.002633"
"0.00501","0.005094","0.024924","0.002719"
"0.00497","0.005073","0.024944","0.002802"
"0.00490","0.005045","0.024910","0.002866"
"0.00482","0.005016","0.024919","0.002978"
"0.00474","0.004976","0.024862","0.003140"
"0.00469","0.004946","0.024633","0.003288"
"0.00468","0.004941","0.024453","0.003426"
"0.00471","0.004898","0.024125","0.003663"
"0.00471","0.004845","0.023819","0.003948"
"0.00473","0.004820","0.023734","0.004277"
"0.00474","0.004824","0.023753","0.004607"
"0.00476","0.004822","0.023878","0.005096"
"0.00477","0.004853","0.024327","0.005608"
"0.00486","0.004903","0.024830","0.006189"
"0.00497","0.004964","0.025408","0.006661"
"0.00515","0.005029","0.026373","0.007036"
"0.00534","0.005083","0.027257","0.007388"
"0.00553","0.005132","0.028063","0.007721"
"0.00573","0.005202","0.029033","0.007808"
"0.00592","0.005212","0.030140","0.008044"
"0.00604","0.005191","0.031288","0.008343"
"0.00614","0.005167","0.032734","0.008691"
"0.00611","0.005126","0.033907","0.009076"
"0.00606","0.005062","0.035103","0.009500"
"0.00598","0.004975","0.036221","0.009847"
"0.00579","0.004856","0.037321","0.010293"
"0.00559","0.004749","0.038462","0.010407"
"0.00542","0.004607","0.039602","0.010357"
"0.00520","0.004460","0.040369","0.010155"
"0.00502","0.004325","0.041022","0.010001"
"0.00483","0.004210","0.041114","0.009834"
"0.00467","0.004120","0.041253","0.009689"
"0.00459","0.004066","0.041318","0.009445"
"0.00446","0.004022","0.041622","0.009474"
"0.00426","0.004071","0.041966","0.009326"
"0.00407","0.004239","0.042635","0.009130"
"0.00391","0.004436","0.042952","0.008848"
"0.00382","0.004690","0.043687","0.008452"
"0.00372","0.004995","0.044318","0.008026"
"0.00362","0.005298","0.044890","0.007619"
"0.00368","0.005623","0.044751","0.007035"
"0.00377","0.005923","0.044185","0.006636"
"0.00390","0.006135","0.043203","0.006363"
"0.00423","0.006309","0.042550","0.006120"
"0.00468","0.006396","0.042675","0.005898"
"0.00700","0.006421","0.043734","0.005555"
"0.01501","0.006329","0.045406","0.005139"
"0.02711","0.006089","0.046836","0.004852"
"0.04019","0.005864","0.048034","0.004474"
"0.05379","0.005653","0.049198","0.004082"
"0.06804","0.005340","0.050259","0.003906"
"0.08301","0.004949","0.051140","0.004318"
"0.09810","0.004537","0.052165","0.005131"
"0.11331","0.004079","0.053446","0.006230"
"0.12904","0.003619","0.054709","0.007345"
"0.14854","0.003074","0.057065","0.008035"
"0.17016","0.002523","0.059693","0.008483"
"0.19203","0.002053","0.062589","0.009036"
"0.21377","0.001623","0.065264","0.010206"
"0.23541","0.001266","0.066461","0.012533"
"0.25567","0.000951","0.065849","0.016106"
"0.27084","0.000748","0.064168","0.020960"
"0.28171","0.000680","0.062287","0.026325"
"0.29062","0.000590","0.059752","0.031943"
"0.29848","0.000461","0.056477","0.037502"
"0.30250","0.000336","0.052924","0.043517"
"0.30107","0.000258","0.050171","0.050409"
"0.29859","0.000175","0.047169","0.057303"
"0.29549","0.000102","0.043976","0.063799"
"0.29139","0.000022","0.040617","0.069893"
"0.28279","0.000000","0.036584","0.076585"
"0.27202","0.000000","0.032457","0.083417"
"0.26084","0.000000","0.028078","0.090028"
"0.24916","0.000000","0.023954","0.096025"
"0.23405","0.000000","0.019949","0.101644"
"0.21570","0.000000","0.016857","0.107137"
"0.19627","0.000000","0.014209","0.111585"
"0.17702","0.000000","0.012274","0.115262"
"0.15886","0.000041","0.011292","0.117682"
"0.14079","0.000144","0.011283","0.119579"
"0.12477","0.000301","0.011286","0.120161"
"0.11283","0.000490","0.011005","0.119003"
"0.10174","0.000686","0.010973","0.117252"
"0.09115","0.000855","0.010965","0.115522"
"0.08097","0.001016","0.011219","0.113957"
"0.07103","0.001221","0.011693","0.111557"
"0.06080","0.001449","0.012459","0.108737"
"0.05060","0.001693","0.013484","0.105902"
"0.04080","0.001960","0.014471","0.103026"
"0.03435","0.002240","0.016179","0.099096"
"0.03046","0.002544","0.017980","0.093826"
"0.02700","0.002845","0.019725","0.088227"
"0.02342","0.003139","0.021379","0.082950"
"0.01975","0.003419","0.022621","0.078656"
"0.01656","0.003719","0.023692","0.074370"
"0.01454","0.003989","0.024742","0.070499"
"0.01303","0.004203","0.025458","0.066800"
"0.01150","0.004372","0.025958","0.063081"
"0.00995","0.004545","0.026556","0.059048"
"0.00846","0.004747","0.027242","0.054736"
"0.00740","0.004918","0.027885","0.050874"
"0.00666","0.005095","0.028244","0.047475"
"0.00601","0.005271","0.028660","0.044152"
"0.00534","0.005459","0.029276","0.040786"
"0.00478","0.005626","0.029713","0.037496"
"0.00444","0.005771","0.029840","0.034922"
"0.00413","0.005930","0.030076","0.032627"
"0.00389","0.006123","0.030320","0.030293"
"0.00369","0.006341","0.030666","0.027812"
"0.00352","0.006504","0.030887","0.025844"
"0.00336","0.006667","0.031137","0.024046"
"0.00334","0.006904","0.031421","0.022316"
"0.00342","0.007185","0.031865","0.020612"
"0.00356","0.007471","0.032087","0.019191"
"0.00375","0.007725","0.032049","0.018216"
"0.00395","0.007970","0.032019","0.017508"
"0.00412","0.008208","0.032127","0.016831"
"0.00429","0.008444","0.032153","0.016186"
"0.00446","0.008650","0.032013","0.015649"
"0.00454","0.008865","0.031957","0.015339"
"0.00458","0.009055","0.032072","0.014738"
"0.00459","0.009231","0.032040","0.014044"
"0.00461","0.009373","0.031874","0.013327"
"0.00462","0.009431","0.031479","0.012814"
"0.00469","0.009457","0.031165","0.011994"
"0.00475","0.009448","0.030758","0.011111"
"0.00483","0.009349","0.030285","0.010257"
"0.00494","0.009200","0.029665","0.009557"
"0.00502","0.009033","0.029068","0.008922"
"0.00509","0.008852","0.028475","0.008335"
"0.00517","0.008634","0.027803","0.007721"
"0.00527","0.008374","0.027026","0.007111"
"0.00538","0.008090","0.026214","0.006545"
"0.00548","0.007788","0.025453","0.006010"
"0.00557","0.007476","0.024760","0.005500"
"0.00565","0.007182","0.024106","0.004982"
"0.00577","0.006890","0.023563","0.004456"
"0.00588","0.006597","0.023224","0.003927"
"0.00601","0.006338","0.023008","0.003367"
"0.00611","0.006091","0.022690","0.003160"
"0.00621","0.005866","0.022493","0.003064"
"0.00634","0.005661","0.022355","0.002984"
"0.00652","0.005498","0.022299","0.002867"
"0.00664","0.005375","0.022280","0.002768"
"0.00676","0.005277","0.022323","0.002672"
"0.00687","0.005220","0.022456","0.002605"
"0.00695","0.005209","0.022723","0.002560"
"0.00686","0.005093","0.023254","0.002517"
"0.00679","0.005054","0.023270","0.002494"
"0.00666","0.005028","0.023711","0.002566"
"0.00652","0.004987","0.023851","0.002550"
"0.00639","0.004914","0.023699","0.002521"
"0.00627","0.004827","0.023571","0.002514"