"1 Chan 1","2 Chan 2","3 Chan 3","4 Chan 4"
0.018257,"0.071341","0.004605","0.038041"
0.018497,"0.071314","0.004358","0.038639"
0.018724,"0.071005","0.004124","0.039214"
0.018965,"0.070717","0.003899","0.039665"
0.019146,"0.070725","0.003692","0.039913"
0.019251,"0.070971","0.003495","0.039951"
0.019304,"0.071498","0.003321","0.039735"
0.019249,"0.072328","0.003187","0.039362"
0.019110,"0.073246","0.003062","0.038919"
0.018891,"0.074480","0.002962","0.038444"
0.018495,"0.075776","0.002934","0.037941"
0.018006,"0.076895","0.002946","0.037321"
0.017354,"0.077894","0.002990","0.036574"
0.016663,"0.078655","0.003064","0.035680"
0.015915,"0.079297","0.003138","0.034789"
0.015202,"0.079802","0.003221","0.033893"
0.014513,"0.080193","0.003305","0.032946"
0.013835,"0.080504","0.003372","0.032016"
0.013172,"0.080624","0.003440","0.031018"
0.012562,"0.080621","0.003495","0.030011"
0.012011,"0.080478","0.003548","0.029059"
0.011510,"0.080397","0.003592","0.027976"
0.011002,"0.080208","0.003645","0.026931"
0.010523,"0.079625","0.003689","0.025876"
0.010066,"0.078808","0.003733","0.024956"
0.009632,"0.077989","0.003788","0.024193"
0.009281,"0.076774","0.003822","0.023602"
0.009023,"0.075494","0.003855","0.023029"
0.008832,"0.073565","0.003884","0.022453"
0.009000,"0.071311","0.003894","0.021834"
0.009413,"0.068904","0.003882","0.021259"
0.010041,"0.066271","0.003860","0.020741"
0.010740,"0.063926","0.003838","0.020308"
0.011518,"0.061742","0.003812","0.019903"
0.012317,"0.059653","0.003779","0.019509"
0.013121,"0.057643","0.003741","0.019123"
0.013936,"0.055733","0.003708","0.018756"
0.014743,"0.053971","0.003673","0.018452"
0.015529,"0.052515","0.003643","0.018141"
0.016308,"0.051372","0.003619","0.017777"
0.017052,"0.050332","0.003588","0.017459"
0.017812,"0.049220","0.003550","0.017144"
0.018552,"0.048197","0.003501","0.016909"
0.019264,"0.047541","0.003452","0.016684"
0.019964,"0.046762","0.003396","0.016503"
0.020656,"0.046252","0.003342","0.016280"
0.021306,"0.045524","0.003302","0.016095"
0.022118,"0.044708","0.003238","0.015919"
0.022658,"0.043839","0.003185","0.015789"
0.022921,"0.043034","0.003148","0.015707"
0.023095,"0.042644","0.003111","0.015637"
0.022838,"0.042239","0.003100","0.015659"
0.022468,"0.041835","0.003098","0.015663"
0.022058,"0.041361","0.003094","0.015695"
0.021664,"0.040818","0.003092","0.015716"
0.021257,"0.040188","0.003109","0.015740"
0.020840,"0.039614","0.003140","0.015773"
0.020461,"0.039027","0.003175","0.015818"
0.020100,"0.038482","0.003225","0.015855"
0.019754,"0.037924","0.003283","0.015889"
0.019390,"0.037477","0.003337","0.015905"
0.019030,"0.037053","0.003408","0.015883"
0.018675,"0.036510","0.003493","0.015843"
0.018503,"0.035889","0.003564","0.015726"
0.018357,"0.035067","0.003645","0.015604"
0.018236,"0.034318","0.003716","0.015445"
0.017925,"0.033781","0.003811","0.015288"
0.017630,"0.033427","0.003901","0.015156"
0.017259,"0.033073","0.004000","0.015040"
0.016797,"0.032741","0.004103","0.014978"
0.016902,"0.032407","0.004161","0.014841"
0.017420,"0.032063","0.004200","0.014672"
0.018198,"0.031738","0.004233","0.014465"
0.019169,"0.031450","0.004255","0.014289"
0.020291,"0.031189","0.004252","0.014117"
0.021680,"0.030830","0.004236","0.013932"
0.023421,"0.030403","0.004171","0.013829"
0.025648,"0.029869","0.004068","0.013828"
0.028619,"0.029213","0.003966","0.013864"
0.032149,"0.028519","0.003927","0.013828"
0.035918,"0.027924","0.003972","0.013937"
0.039919,"0.027463","0.004095","0.014176"
0.043757,"0.027071","0.004354","0.014567"
0.048125,"0.026832","0.004777","0.014931"
0.052618,"0.026691","0.005286","0.015407"
0.057079,"0.026687","0.005807","0.016092"
0.061649,"0.026676","0.006324","0.016925"
0.066547,"0.026701","0.006893","0.017768"
0.071734,"0.026661","0.007832","0.018528"
0.076875,"0.026561","0.009060","0.019243"
0.082039,"0.026470","0.010402","0.019926"
0.087266,"0.026433","0.011800","0.020575"
0.091987,"0.026362","0.013314","0.021269"
0.096337,"0.026253","0.014877","0.022004"
0.100252,"0.026135","0.016527","0.022710"
0.103650,"0.025969","0.018264","0.023359"
0.106318,"0.025827","0.020082","0.023946"
0.107846,"0.025798","0.021941","0.024490"
0.108597,"0.025811","0.023816","0.025004"
0.108446,"0.025587","0.025672","0.025307"
0.107447,"0.025097","0.027448","0.025564"
0.106137,"0.024376","0.029046","0.025644"
0.104021,"0.023333","0.030390","0.025676"
0.101741,"0.022206","0.031571","0.025536"
0.099207,"0.021044","0.032559","0.025172"
0.096356,"0.019895","0.033489","0.024529"
0.093130,"0.018843","0.034438","0.023626"
0.089529,"0.017832","0.035038","0.022631"
0.085633,"0.016888","0.035233","0.021697"
0.081162,"0.015997","0.034938","0.020887"
0.076189,"0.015075","0.034373","0.020216"
0.071162,"0.014159","0.033607","0.019557"
0.066120,"0.013189","0.032827","0.018866"
0.061219,"0.012233","0.031865","0.018223"
0.056422,"0.011313","0.030820","0.017564"
0.051864,"0.010440","0.029660","0.016892"
0.047582,"0.009584","0.028423","0.016261"
0.043478,"0.008720","0.027098","0.015738"
0.039930,"0.008013","0.025687","0.015278"
0.036862,"0.007420","0.024249","0.014773"
0.034014,"0.006999","0.022763","0.014394"
0.031403,"0.006874","0.021344","0.014092"
0.028837,"0.006848","0.020022","0.013885"
0.026567,"0.006912","0.018878","0.013737"
0.024332,"0.006999","0.017772","0.013755"
0.022039,"0.007075","0.016597","0.014064"
0.019954,"0.007171","0.015345","0.014564"
0.018103,"0.007229","0.014169","0.015167"
0.016525,"0.007227","0.013367","0.015780"
0.015172,"0.007208","0.012783","0.016333"
0.014188,"0.007231","0.012291","0.016831"
0.013469,"0.007297","0.011775","0.017354"
0.012829,"0.007380","0.011335","0.017883"
0.012229,"0.007454","0.010904","0.018428"
0.011644,"0.007531","0.010532","0.018948"
0.011195,"0.007603","0.010216","0.019478"
0.010787,"0.007690","0.009913","0.020015"
0.010473,"0.007804","0.009613","0.020543"
0.010301,"0.007915","0.009326","0.021063"
0.010207,"0.008034","0.009102","0.021564"
0.010123,"0.008140","0.008880","0.022106"
0.010035,"0.008255","0.008609","0.022677"
0.009943,"0.008364","0.008288","0.023232"
0.009965,"0.008447","0.007960","0.023725"
0.010161,"0.008516","0.007610","0.024098"
0.010360,"0.008580","0.007305","0.024400"
0.010490,"0.008677","0.007059","0.024602"
0.010611,"0.008839","0.006816","0.024664"
0.010693,"0.009053","0.006576","0.024630"
0.010741,"0.009272","0.006340","0.024546"
0.010735,"0.009505","0.006100","0.024423"
0.010661,"0.009712","0.005886","0.024256"
0.010547,"0.009922","0.005695","0.024018"
0.010420,"0.010158","0.005498","0.023786"
0.010277,"0.010459","0.005259","0.023520"
0.010113,"0.010829","0.005010","0.023187"
0.009958,"0.011292","0.004759","0.022802"
0.009804,"0.011790","0.004512","0.022384"
0.009646,"0.012323","0.004306","0.021927"
0.009491,"0.012852","0.004115","0.021439"
0.009322,"0.013529","0.003949","0.020897"
0.009136,"0.014294","0.003845","0.020286"
0.008961,"0.015153","0.003784","0.019614"
0.008810,"0.016082","0.003741","0.018973"
0.008678,"0.017059","0.003708","0.018305"
0.008580,"0.018045","0.003680","0.017619"
0.008467,"0.018993","0.003677","0.017004"
0.008371,"0.019878","0.003674","0.016456"
0.008276,"0.020719","0.003674","0.015926"
0.008186,"0.021549","0.003696","0.015383"
0.008103,"0.022373","0.003738","0.014852"
0.008059,"0.023187","0.003781","0.014368"
0.008004,"0.023975","0.003832","0.013882"
0.007947,"0.024826","0.003896","0.013347"
0.007918,"0.025872","0.003978","0.012802"
0.007868,"0.027019","0.004085","0.012303"
0.007811,"0.028217","0.004193","0.011833"
0.007751,"0.029509","0.004289","0.011378"
0.007701,"0.031480","0.004378","0.010858"
0.007666,"0.033669","0.004466","0.010305"
0.007629,"0.035748","0.004545","0.009804"
0.007585,"0.037653","0.004619","0.009354"
0.007533,"0.039515","0.004681","0.008926"
0.007459,"0.041248","0.004739","0.008560"
0.007377,"0.042954","0.004786","0.008213"
0.007293,"0.044655","0.004818","0.007881"
0.007222,"0.046543","0.004832","0.007526"
0.007151,"0.048639","0.004847","0.007159"
0.007090,"0.050765","0.004840","0.006797"
0.007053,"0.053009","0.004801","0.006432"
0.007024,"0.055451","0.004745","0.006038"
0.007010,"0.058247","0.004680","0.005609"
0.006999,"0.061044","0.004609","0.005194"
0.007003,"0.063463","0.004529","0.004843"
0.007010,"0.065683","0.004455","0.004514"
0.007049,"0.068372","0.004376","0.004122"
0.007099,"0.071106","0.004311","0.003736"
0.007142,"0.073343","0.004250","0.003432"
0.007171,"0.075435","0.004186","0.003168"
0.007206,"0.077682","0.004119","0.002898"
0.007247,"0.080247","0.004059","0.002633"
0.007319,"0.082969","0.004002","0.002371"
0.007396,"0.085895","0.003950","0.002087"
0.007466,"0.089264","0.003909","0.001799"
0.007567,"0.092412","0.003874","0.001507"
0.007652,"0.094993","0.003859","0.001348"
0.007750,"0.097330","0.003844","0.001258"
0.007860,"0.099485","0.003821","0.001248"
0.007952,"0.101015","0.003813","0.001366"
0.008001,"0.101413","0.003818","0.001662"
0.008056,"0.100868","0.003815","0.002114"
0.008128,"0.099792","0.003826","0.002694"
0.008193,"0.098707","0.003839","0.003302"
0.008260,"0.097333","0.003842","0.003944"
0.008348,"0.095330","0.003840","0.004672"
0.008427,"0.093056","0.003827","0.005417"
0.008514,"0.090054","0.003810","0.006291"
0.008601,"0.086712","0.003789","0.007185"
0.008687,"0.083379","0.003767","0.008045"
0.008772,"0.079848","0.003766","0.009035"
0.008828,"0.076098","0.003824","0.009993"
0.008879,"0.072168","0.003909","0.010928"
0.008948,"0.067694","0.003982","0.011866"
0.009012,"0.063368","0.004044","0.012770"
0.009088,"0.059390","0.004098","0.013568"
0.009133,"0.055504","0.004155","0.014252"
0.009188,"0.051860","0.004225","0.014860"
0.009237,"0.048915","0.004303","0.015370"
0.009324,"0.046847","0.004385","0.015773"
0.009396,"0.045173","0.004474","0.016196"
0.009444,"0.043828","0.004560","0.016551"
0.009475,"0.042532","0.004692","0.016928"
0.009516,"0.041488","0.004819","0.017218"
0.009503,"0.040436","0.004917","0.017421"
0.009494,"0.039456","0.004965","0.017627"
0.009529,"0.039308","0.004999","0.017696"
0.009603,"0.039325","0.005079","0.017892"
0.009676,"0.039232","0.005169","0.018168"
0.009747,"0.039154","0.005243","0.018291"
0.009823,"0.039202","0.005261","0.018478"
0.009870,"0.039041","0.005256","0.018807"
0.009881,"0.038737","0.005261","0.019254"
0.009865,"0.038444","0.005267","0.019656"
0.009839,"0.038260","0.005286","0.019914"
0.009843,"0.038021","0.005283","0.020245"
0.009794,"0.037553","0.005289","0.020647"
0.009763,"0.037032","0.005288","0.021037"
0.009714,"0.036900","0.005295","0.021355"
0.009625,"0.036802","0.005309","0.021562"
0.009506,"0.036697","0.005306","0.021660"
0.009367,"0.036554","0.005234","0.021580"
0.009219,"0.036426","0.005157","0.021557"
0.009075,"0.036099","0.005105","0.021620"
0.009374,"0.035856","0.005143","0.021932"
0.009738,"0.035539","0.005215","0.022358"
0.010067,"0.035260","0.005252","0.022712"
0.010416,"0.034988","0.005266","0.023127"
0.010773,"0.034717","0.005280","0.023633"
0.011182,"0.034445","0.005262","0.024065"
0.011627,"0.034394","0.005223","0.024378"
0.012122,"0.034298","0.005180","0.024599"
0.012678,"0.034317","0.005142","0.024895"
0.013257,"0.034242","0.005096","0.025333"
0.013877,"0.034113","0.005065","0.025780"
0.015120,"0.034151","0.004989","0.026099"
0.016613,"0.034062","0.004898","0.026420"
0.018425,"0.033682","0.004774","0.026739"
0.020267,"0.033045","0.004569","0.026573"
0.022641,"0.032361","0.004418","0.026335"
0.025620,"0.031670","0.004334","0.026004"
0.028893,"0.030843","0.004285","0.025610"
0.032247,"0.030203","0.004296","0.025125"
0.035708,"0.029348","0.004311","0.024408"
0.039425,"0.028253","0.004303","0.023605"
0.043202,"0.026901","0.004319","0.022837"
0.047118,"0.025302","0.004444","0.021966"
0.051310,"0.023649","0.004568","0.020995"
0.055963,"0.021740","0.004797","0.020002"
0.060404,"0.019800","0.005108","0.019125"
0.064639,"0.018118","0.005545","0.018217"
0.068555,"0.016359","0.006003","0.017326"
0.071722,"0.014689","0.006493","0.016494"
0.074339,"0.013107","0.007064","0.015648"
0.075835,"0.011509","0.007724","0.014918"
0.076983,"0.009898","0.008411","0.014246"
0.077500,"0.008292","0.009185","0.013583"
0.077665,"0.007117","0.010047","0.013431"
0.077247,"0.006068","0.010967","0.013400"
0.076194,"0.005148","0.011764","0.013626"
0.074493,"0.004398","0.012578","0.013974"
0.072280,"0.003774","0.013282","0.014573"
0.069202,"0.003348","0.013891","0.015168"
0.065688,"0.002961","0.014517","0.015751"
0.061955,"0.002772","0.015124","0.016232"
0.058005,"0.002796","0.015615","0.016723"
0.053752,"0.002852","0.016041","0.017260"
0.048990,"0.003056","0.016381","0.017880"
0.044466,"0.003341","0.016636","0.018404"
0.040128,"0.003660","0.016745","0.018979"
0.036076,"0.004000","0.016820","0.019572"
0.032755,"0.004294","0.016864","0.020133"
0.029949,"0.004577","0.016824","0.020734"
0.027716,"0.004848","0.016721","0.021309"
0.025589,"0.005140","0.016601","0.021863"
0.023808,"0.005403","0.016421","0.022451"
0.022421,"0.005653","0.016230","0.023002"
0.021130,"0.005921","0.015943","0.023597"
0.019910,"0.006172","0.015737","0.024156"
0.019048,"0.006401","0.015485","0.024685"
0.018639,"0.006579","0.015281","0.025053"
0.018571,"0.006710","0.015096","0.025426"
0.018606,"0.006852","0.014831","0.025808"
0.018822,"0.006985","0.014531","0.026197"
0.019097,"0.007120","0.014247","0.026584"
0.019395,"0.007257","0.013981","0.026951"
0.019721,"0.007415","0.013686","0.027294"
0.020027,"0.007582","0.013371","0.027621"
0.020314,"0.007760","0.013057","0.027919"
0.020597,"0.007937","0.012731","0.028183"
0.020881,"0.008124","0.012403","0.028427"
0.021148,"0.008308","0.012064","0.028660"
0.021377,"0.008487","0.011729","0.028864"
0.021634,"0.008699","0.011383","0.029021"
0.021876,"0.008937","0.011015","0.029185"
0.022101,"0.009233","0.010608","0.029351"
0.022276,"0.009675","0.010186","0.029491"
0.022290,"0.010186","0.009763","0.029639"
0.022278,"0.010779","0.009334","0.029762"
0.022229,"0.011492","0.008901","0.029868"
0.022141,"0.012249","0.008489","0.029951"
0.022021,"0.013018","0.008137","0.030002"
0.021916,"0.013891","0.007764","0.030020"
0.021823,"0.014812","0.007365","0.029984"
0.021729,"0.015736","0.006995","0.029925"
0.021607,"0.016648","0.006668","0.029855"
0.021477,"0.017574","0.006372","0.029748"
0.021365,"0.018546","0.006091","0.029592"
0.021228,"0.019613","0.005837","0.029392"
0.021083,"0.020720","0.005586","0.029185"
0.020951,"0.021836","0.005326","0.028973"
0.020829,"0.022951","0.005046","0.028757"
0.020668,"0.024034","0.004765","0.028560"
0.020503,"0.025100","0.004496","0.028350"
0.020325,"0.026093","0.004268","0.028123"
0.020200,"0.026941","0.004049","0.027897"
0.020225,"0.027729","0.003831","0.027635"
0.020275,"0.028436","0.003626","0.027361"
0.020346,"0.029065","0.003437","0.027078"
0.020419,"0.029658","0.003268","0.026772"
0.020482,"0.030272","0.003109","0.026459"
0.020490,"0.030854","0.002993","0.026147"
0.020462,"0.031449","0.002912","0.025861"
0.020452,"0.032072","0.002837","0.025610"
0.020419,"0.032690","0.002771","0.025379"
0.020389,"0.033303","0.002708","0.025176"
0.020412,"0.033951","0.002642","0.025029"
0.020437,"0.034529","0.002574","0.024926"
0.020494,"0.035153","0.002510","0.024826"
0.020518,"0.035846","0.002465","0.024706"
0.020522,"0.036543","0.002444","0.024548"
0.020529,"0.037285","0.002445","0.024342"
0.020534,"0.038019","0.002454","0.024131"
0.020541,"0.038772","0.002463","0.023905"
0.020502,"0.039529","0.002477","0.023656"
0.020461,"0.040276","0.002496","0.023402"
0.020400,"0.041055","0.002518","0.023163"
0.020304,"0.041787","0.002548","0.022932"
0.020204,"0.042507","0.002590","0.022721"
0.020112,"0.043200","0.002640","0.022520"
0.020037,"0.043834","0.002688","0.022331"
0.019977,"0.044396","0.002734","0.022165"
0.019892,"0.044956","0.002787","0.021983"
0.019829,"0.045543","0.002835","0.021785"
0.019764,"0.046093","0.002883","0.021595"
0.019629,"0.046535","0.002939","0.021369"
0.019520,"0.046972","0.002984","0.021135"
0.019379,"0.047387","0.003034","0.020912"
0.019250,"0.047757","0.003087","0.020705"
0.019114,"0.048149","0.003143","0.020511"
0.018969,"0.048668","0.003193","0.020325"
0.018823,"0.049281","0.003245","0.020124"
0.018685,"0.050005","0.003290","0.019914"
0.018601,"0.050856","0.003331","0.019704"
0.018513,"0.051759","0.003369","0.019501"
0.018454,"0.052782","0.003401","0.019272"
0.018438,"0.053845","0.003431","0.019021"
0.018423,"0.054811","0.003442","0.018787"
0.018399,"0.055743","0.003451","0.018552"
0.018382,"0.056608","0.003466","0.018322"
0.018364,"0.057364","0.003483","0.018093"
0.018348,"0.058069","0.003493","0.017855"
0.018326,"0.058742","0.003507","0.017615"
0.018252,"0.059130","0.003494","0.017444"
0.018162,"0.059328","0.003477","0.017324"
0.017873,"0.059074","0.003481","0.017213"
0.017591,"0.058584","0.003433","0.017215"
0.017295,"0.057344","0.003370","0.017329"
0.016965,"0.055491","0.003283","0.017651"
0.016610,"0.053505","0.003223","0.017960"
0.016225,"0.051293","0.003182","0.018277"
0.015841,"0.049064","0.003111","0.018591"
0.015437,"0.046841","0.003042","0.018796"
0.015040,"0.044715","0.002983","0.018944"
0.014619,"0.042572","0.002936","0.019051"
0.014192,"0.040362","0.002857","0.019181"
0.013774,"0.038625","0.002777","0.019270"
0.013390,"0.037150","0.002680","0.019345"
0.012913,"0.035523","0.002613","0.019319"
0.012409,"0.033896","0.002556","0.019243"
0.011919,"0.032174","0.002492","0.019174"
0.011418,"0.030425","0.002433","0.019065"
0.010958,"0.028706","0.002392","0.018845"
0.010492,"0.027116","0.002376","0.018497"
0.010196,"0.026014","0.002347","0.018114"
0.009904,"0.025260","0.002372","0.017699"
0.009636,"0.025487","0.002421","0.017184"
0.009435,"0.026200","0.002484","0.016556"
0.009263,"0.026701","0.002515","0.016068"
0.009128,"0.027114","0.002525","0.015701"
0.009021,"0.027460","0.002550","0.015434"
0.008922,"0.027407","0.002564","0.015272"
0.008851,"0.027068","0.002556","0.015226"
0.008850,"0.026629","0.002544","0.015523"
0.008856,"0.026617","0.002566","0.015795"
0.008911,"0.026393","0.002580","0.016106"
0.008976,"0.025944","0.002611","0.016424"
0.009102,"0.025881","0.002623","0.016812"
0.009231,"0.025817","0.002628","0.017163"
0.009317,"0.026068","0.002638","0.017265"
0.009435,"0.026090","0.002642","0.017423"
0.009501,"0.026190","0.002681","0.017651"
0.009605,"0.026486","0.002703","0.017905"
0.009710,"0.026693","0.002716","0.018174"
0.009790,"0.026833","0.002740","0.018284"
0.009820,"0.026447","0.002764","0.018407"
0.009816,"0.026347","0.002793","0.018326"
0.009822,"0.026423","0.002819","0.018138"
0.009784,"0.026622","0.002844","0.017910"
0.009689,"0.026734","0.002894","0.017688"
0.009579,"0.027195","0.002951","0.017607"
0.009458,"0.027958","0.003022","0.017479"
0.009265,"0.028559","0.003086","0.017127"
0.009050,"0.028993","0.003141","0.016688"
0.008766,"0.029223","0.003220","0.016157"
0.008460,"0.029499","0.003298","0.015584"
0.008208,"0.029581","0.003336","0.014930"
0.007983,"0.030035","0.003370","0.014289"
0.007758,"0.030078","0.003408","0.013931"
0.007545,"0.030455","0.003434","0.013591"
0.007437,"0.031365","0.003430","0.013163"
0.007348,"0.032266","0.003417","0.012792"
0.007288,"0.033349","0.003414","0.012448"
0.007236,"0.034063","0.003408","0.012197"
0.007246,"0.035192","0.003395","0.011924"
0.007260,"0.036204","0.003393","0.011774"
0.007243,"0.037047","0.003400","0.011753"
0.007249,"0.038372","0.003421","0.011625"
0.007269,"0.039849","0.003443","0.011425"
0.007331,"0.041317","0.003478","0.011116"
0.007380,"0.042521","0.003509","0.010810"
0.007446,"0.043764","0.003549","0.010424"
0.007514,"0.044460","0.003578","0.010129"
0.007627,"0.044987","0.003611","0.009867"
0.007723,"0.045403","0.003647","0.009642"
0.007760,"0.045714","0.003712","0.009559"
0.007803,"0.045806","0.003816","0.009496"
0.007881,"0.046289","0.003908","0.009428"
0.007935,"0.046644","0.004022","0.009354"
0.007953,"0.046383","0.004116","0.009393"
0.007985,"0.046046","0.004189","0.009444"
0.008016,"0.045598","0.004263","0.009490"
0.008039,"0.045071","0.004293","0.009596"
0.008055,"0.044246","0.004321","0.009703"
0.008079,"0.043214","0.004344","0.009819"
0.008138,"0.042266","0.004380","0.009875"
0.008217,"0.040895","0.004403","0.009997"
0.008624,"0.039316","0.004423","0.010137"
0.009129,"0.037611","0.004423","0.010268"
0.010041,"0.036087","0.004398","0.010329"
0.010977,"0.034683","0.004353","0.010507"
0.011879,"0.033595","0.004321","0.010656"
0.012766,"0.033428","0.004270","0.010759"
0.013334,"0.033444","0.004212","0.010829"
0.013677,"0.033873","0.004166","0.010840"
0.013803,"0.034184","0.004090","0.010887"
0.014273,"0.034059","0.004005","0.010927"
0.015546,"0.033792","0.003879","0.010982"
0.017946,"0.033106","0.003825","0.011069"
0.021014,"0.032112","0.003973","0.011105"
0.024434,"0.030972","0.004274","0.011118"
0.028527,"0.030182","0.004978","0.010905"
0.032432,"0.029896","0.006028","0.010536"
0.036682,"0.029814","0.007090","0.010026"
0.040835,"0.029770","0.008153","0.009479"
0.044536,"0.029862","0.009322","0.008915"
0.047559,"0.029982","0.010573","0.008371"
0.049926,"0.030128","0.011795","0.007895"
0.051744,"0.030193","0.013072","0.007372"
0.053534,"0.030241","0.014298","0.006754"
0.055178,"0.030315","0.015471","0.006225"
0.056640,"0.029646","0.016620","0.005836"
0.058391,"0.028755","0.017813","0.005518"
0.060413,"0.027475","0.018995","0.005224"
0.062801,"0.026247","0.020128","0.004885"
0.064810,"0.025320","0.021149","0.004542"
0.065892,"0.024535","0.022073","0.004201"
0.065483,"0.024391","0.022858","0.003849"
0.064608,"0.024270","0.023375","0.003546"
0.063379,"0.024287","0.023661","0.003257"
0.061556,"0.024409","0.023481","0.003115"
0.059466,"0.024231","0.023000","0.003199"
0.056962,"0.023996","0.022517","0.003430"
0.054557,"0.023719","0.021960","0.003625"
0.052675,"0.023339","0.021198","0.003781"
0.051375,"0.023020","0.020317","0.003871"
0.050618,"0.022734","0.019499","0.003901"
0.049961,"0.022428","0.018723","0.004030"
0.049112,"0.022132","0.018022","0.004215"
0.048286,"0.021781","0.017383","0.004369"
0.047717,"0.021431","0.016816","0.004464"
0.047316,"0.021109","0.016182","0.004593"
0.046988,"0.020875","0.015487","0.004816"
0.046444,"0.020672","0.014869","0.005160"
0.045838,"0.020486","0.014396","0.005521"
0.045370,"0.020364","0.014027","0.005878"
0.045027,"0.020317","0.013711","0.006245"
0.044336,"0.020449","0.013509","0.006662"
0.043514,"0.020522","0.013390","0.007125"
0.042610,"0.020382","0.013319","0.007643"
0.042262,"0.020096","0.013198","0.008103"
0.041986,"0.019773","0.013105","0.008591"
0.041617,"0.019557","0.013077","0.009114"
0.040965,"0.019360","0.013154","0.009705"
0.040086,"0.019219","0.013208","0.010323"
0.039219,"0.019084","0.013151","0.010962"
0.038385,"0.018928","0.013009","0.011623"
0.037606,"0.018704","0.012879","0.012280"
0.036776,"0.018527","0.012708","0.012991"
0.035706,"0.018429","0.012431","0.013684"
0.034145,"0.018441","0.012203","0.014289"
0.032463,"0.018434","0.011986","0.014748"
0.030834,"0.018363","0.011719","0.015136"
0.029282,"0.018207","0.011446","0.015470"
0.027699,"0.018085","0.011198","0.015711"
0.026323,"0.017927","0.010986","0.015834"
0.025019,"0.017836","0.010739","0.015867"
0.023817,"0.017757","0.010497","0.015812"
0.022366,"0.017826","0.010324","0.015704"
0.020757,"0.018019","0.010125","0.015572"
0.019155,"0.018255","0.009883","0.015399"
0.017609,"0.018451","0.009643","0.015175"
0.016270,"0.018585","0.009394","0.014904"
0.014942,"0.018668","0.009199","0.014639"
0.013594,"0.018710","0.009088","0.014364"
0.012256,"0.018797","0.008976","0.014085"
0.011072,"0.018908","0.008820","0.013757"
0.010126,"0.018945","0.008695","0.013403"
0.009394,"0.018847","0.008627","0.013096"
0.009025,"0.018661","0.008531","0.012839"
0.008676,"0.018482","0.008491","0.012640"
0.008333,"0.018378","0.008465","0.012440"
0.008015,"0.018256","0.008417","0.012285"
0.007715,"0.018035","0.008342","0.012199"
0.007421,"0.017749","0.008276","0.012161"
0.007175,"0.017470","0.008199","0.012147"
0.006973,"0.017148","0.008058","0.012185"
0.007035,"0.016728","0.007898","0.012209"
0.007137,"0.016245","0.007767","0.012242"
0.007280,"0.015891","0.007634","0.012402"
0.007475,"0.015699","0.007485","0.012670"
0.007674,"0.015596","0.007331","0.012971"
0.007864,"0.015590","0.007151","0.013244"
0.008055,"0.015761","0.006961","0.013496"
0.008253,"0.015996","0.006737","0.013750"
0.008425,"0.016262","0.006518","0.014003"
0.008543,"0.016637","0.006306","0.014221"
0.008597,"0.017142","0.006122","0.014417"
0.008662,"0.017686","0.005938","0.014594"
0.008735,"0.018309","0.005741","0.014770"
0.008796,"0.019095","0.005561","0.014922"
0.008860,"0.020249","0.005397","0.015028"
0.008933,"0.021614","0.005248","0.015112"
0.009024,"0.023333","0.005072","0.015175"
0.009110,"0.025217","0.004912","0.015254"
0.009200,"0.027211","0.004761","0.015332"
0.009310,"0.029323","0.004593","0.015413"
0.009374,"0.031376","0.004429","0.015378"
0.009350,"0.033257","0.004269","0.015155"
0.009300,"0.035110","0.004117","0.014830"
0.009253,"0.036951","0.003972","0.014501"
0.009199,"0.038753","0.003861","0.014214"
0.009158,"0.040756","0.003760","0.013913"
0.009112,"0.042923","0.003688","0.013588"
0.009080,"0.045024","0.003616","0.013339"
0.009117,"0.047001","0.003514","0.013168"
0.009176,"0.048999","0.003392","0.013055"
0.009231,"0.050908","0.003275","0.013074"
0.009309,"0.052828","0.003163","0.013138"
0.009379,"0.054457","0.003050","0.013169"
0.009433,"0.055272","0.002951","0.013268"
0.009501,"0.055952","0.002863","0.013430"
0.009586,"0.056460","0.002806","0.013550"
0.009673,"0.056365","0.002755","0.013676"
0.009707,"0.055815","0.002756","0.013749"
0.009703,"0.055303","0.002774","0.013734"
0.009749,"0.054651","0.002800","0.013892"
0.009848,"0.054880","0.002843","0.014045"
0.009965,"0.054993","0.002872","0.014223"
0.010071,"0.055006","0.002880","0.014468"
0.010183,"0.055011","0.002898","0.014730"
0.010306,"0.054966","0.002895","0.015078"
0.010457,"0.054763","0.002897","0.015434"
0.010624,"0.054426","0.002917","0.015778"
0.010770,"0.054100","0.002923","0.016069"
0.010968,"0.053281","0.002899","0.016385"
0.011130,"0.052811","0.002881","0.016513"
0.011244,"0.052273","0.002884","0.016478"
0.011354,"0.051892","0.002862","0.016490"
0.011411,"0.052196","0.002850","0.016349"
0.011439,"0.052764","0.002842","0.016092"
0.011434,"0.053246","0.002834","0.015773"
0.011430,"0.054141","0.002846","0.015375"
0.011342,"0.055220","0.002859","0.015013"
0.011262,"0.056679","0.002870","0.014649"
0.011184,"0.058426","0.002886","0.014171"
0.011105,"0.058946","0.002871","0.013791"
0.011017,"0.059197","0.002857","0.013449"
0.010952,"0.059750","0.002876","0.013001"
0.010869,"0.060445","0.002878","0.012501"
0.010781,"0.061005","0.002902","0.011912"
0.010805,"0.061322","0.002918","0.011356"
0.010815,"0.061228","0.002947","0.010846"
0.010844,"0.061648","0.003013","0.010276"
0.010759,"0.062507","0.003125","0.009660"
0.010682,"0.062807","0.003240","0.009125"
0.010644,"0.062857","0.003334","0.008722"
0.010636,"0.062825","0.003439","0.008347"
0.010657,"0.062592","0.003519","0.008112"
0.010584,"0.061776","0.003605","0.007946"
0.010506,"0.060802","0.003673","0.007890"
0.010394,"0.059396","0.003721","0.007910"
0.010407,"0.058288","0.003739","0.007919"
0.010420,"0.056673","0.003745","0.008002"
0.010421,"0.054986","0.003735","0.008132"
0.010423,"0.053713","0.003740","0.008215"
0.010396,"0.052440","0.003766","0.008294"
0.010384,"0.051467","0.003766","0.008315"
0.010409,"0.050375","0.003767","0.008330"
0.010416,"0.049155","0.003780","0.008344"
0.010283,"0.047811","0.003800","0.008379"
0.010133,"0.047089","0.003816","0.008330"
0.009991,"0.045931","0.003818","0.008309"
0.009885,"0.044726","0.003798","0.008278"
0.009799,"0.043790","0.003753","0.008271"
0.009689,"0.043218","0.003713","0.008276"
0.009594,"0.042648","0.003677","0.008290"
0.009523,"0.042153","0.003643","0.008318"
0.009551,"0.042028","0.003594","0.008414"
0.009591,"0.042089","0.003544","0.008514"
0.009697,"0.043358","0.003494","0.008535"
0.009801,"0.044706","0.003447","0.008591"
0.009968,"0.046202","0.003390","0.008694"
0.010120,"0.047144","0.003341","0.008878"
0.010261,"0.048079","0.003271","0.009109"
0.010448,"0.049242","0.003203","0.009298"
0.010614,"0.049998","0.003150","0.009560"
0.010750,"0.050617","0.003110","0.009881"
0.010823,"0.050448","0.003065","0.010332"
0.010893,"0.050590","0.003032","0.010755"
0.010969,"0.050759","0.002990","0.011127"
0.011020,"0.050889","0.002960","0.011512"
0.011101,"0.051010","0.002936","0.011896"
0.011183,"0.051294","0.002934","0.012208"
0.011286,"0.051364","0.002931","0.012467"
0.011387,"0.051198","0.002906","0.012861"
0.011483,"0.050827","0.002894","0.013226"
0.011630,"0.050399","0.002896","0.013510"
0.011817,"0.049552","0.002919","0.013811"
0.012123,"0.047846","0.002922","0.014219"
0.012662,"0.045986","0.002925","0.014713"
0.013155,"0.043712","0.002921","0.015226"
0.014189,"0.042025","0.002869","0.015568"
0.015513,"0.040330","0.002835","0.015840"
0.017378,"0.038461","0.002742","0.016279"
0.019584,"0.036339","0.002679","0.016726"
0.022263,"0.034237","0.002735","0.017186"
0.025451,"0.032885","0.002981","0.017622"
0.028735,"0.031388","0.003527","0.017961"
0.032657,"0.029792","0.004179","0.018223"
0.036145,"0.028033","0.005221","0.018482"
0.039604,"0.026230","0.006603","0.018550"
0.043635,"0.024205","0.008288","0.018378"
0.047781,"0.022258","0.010011","0.018215"
0.051734,"0.020566","0.011903","0.017892"
0.055520,"0.018914","0.014011","0.017555"
0.059354,"0.017139","0.016071","0.017130"
0.062999,"0.015752","0.018063","0.016667"
0.066135,"0.014598","0.020105","0.016192"
0.068807,"0.013511","0.022075","0.015561"
0.071262,"0.012631","0.024195","0.014794"
0.073055,"0.011699","0.026481","0.014050"
0.074624,"0.010743","0.028785","0.013326"
0.075692,"0.009986","0.030987","0.012442"
0.076285,"0.009346","0.033158","0.011544"
0.076145,"0.008786","0.035184","0.010613"
0.075543,"0.008218","0.036984","0.009594"
0.074782,"0.007754","0.038348","0.008677"
0.073331,"0.007356","0.039585","0.007897"
0.072139,"0.007126","0.040359","0.007170"
0.070627,"0.006984","0.040668","0.006731"
0.068500,"0.006941","0.040533","0.006572"
0.066004,"0.006934","0.040332","0.006491"
0.063353,"0.006966","0.039873","0.006447"
0.060556,"0.007132","0.039110","0.006423"
0.057439,"0.007420","0.038324","0.006508"
0.054304,"0.007706","0.037477","0.006688"
0.051516,"0.007882","0.036360","0.006892"
0.048761,"0.007989","0.035334","0.007197"
0.046091,"0.008159","0.034163","0.007622"
0.043542,"0.008273","0.032834","0.008112"
0.040932,"0.008311","0.031501","0.008639"
0.038293,"0.008352","0.030188","0.009194"
0.035774,"0.008443","0.028671","0.009786"
0.033400,"0.008515","0.027072","0.010401"
0.030938,"0.008617","0.025484","0.011056"
0.028555,"0.008752","0.023992","0.011706"
0.026140,"0.008852","0.022524","0.012365"
0.023688,"0.008972","0.021126","0.013027"
0.021536,"0.009121","0.019764","0.013600"
0.019430,"0.009239","0.018488","0.014155"
0.017587,"0.009360","0.017206","0.014623"
0.016078,"0.009470","0.016022","0.015034"
0.014880,"0.009561","0.014940","0.015416"
0.013923,"0.009643","0.013889","0.015776"
0.013133,"0.009733","0.012927","0.016071"
0.012360,"0.009787","0.012176","0.016337"
0.011769,"0.009838","0.011440","0.016558"
0.011307,"0.009890","0.010717","0.016714"
0.010880,"0.010054","0.009953","0.016842"
0.010429,"0.010294","0.009167","0.016955"
0.009936,"0.010523","0.008509","0.017033"
0.009433,"0.010719","0.008048","0.017070"
0.009041,"0.010881","0.007677","0.017078"
0.008747,"0.011033","0.007283","0.017061"
0.008422,"0.011142","0.006924","0.017048"
0.008188,"0.011263","0.006560","0.017006"
0.008150,"0.011357","0.006198","0.016897"
0.008137,"0.011385","0.005927","0.016768"
0.008123,"0.011426","0.005699","0.016624"
0.008076,"0.011426","0.005508","0.016485"
0.008020,"0.011399","0.005322","0.016349"
0.007978,"0.011349","0.005110","0.016229"
0.007914,"0.011286","0.004919","0.016120"
0.007836,"0.011185","0.004782","0.015983"
0.007746,"0.011092","0.004658","0.015837"
0.007661,"0.010970","0.004517","0.015702"
0.007576,"0.010831","0.004392","0.015588"
0.007489,"0.010676","0.004340","0.015505"
0.007430,"0.010566","0.004272","0.015434"
0.007377,"0.010507","0.004205","0.015363"
0.007338,"0.010451","0.004142","0.015321"
0.007321,"0.010433","0.004088","0.015269"
0.007301,"0.010431","0.004084","0.015191"
0.007282,"0.010461","0.004083","0.015107"
0.007270,"0.010547","0.004074","0.014994"
0.007273,"0.010679","0.004069","0.014865"
0.007284,"0.010875","0.004070","0.014714"
0.007287,"0.011104","0.004093","0.014554"
0.007308,"0.011387","0.004147","0.014406"
0.007320,"0.011744","0.004212","0.014271"
0.007325,"0.012122","0.004275","0.014143"
0.007356,"0.012542","0.004334","0.013998"
0.007403,"0.013023","0.004371","0.013848"
0.007445,"0.013574","0.004428","0.013678"
0.007494,"0.014207","0.004479","0.013485"
0.007544,"0.014886","0.004512","0.013311"
0.007597,"0.015583","0.004550","0.013124"
0.007634,"0.016291","0.004602","0.012916"
0.007686,"0.017102","0.004652","0.012687"
0.007727,"0.018054","0.004712","0.012403"
0.007748,"0.018967","0.004776","0.012100"
0.007764,"0.019862","0.004835","0.011808"
0.007796,"0.020823","0.004903","0.011479"
0.007816,"0.021771","0.004978","0.011155"
0.007822,"0.022712","0.005051","0.010858"
0.007828,"0.023713","0.005117","0.010572"
0.007833,"0.024792","0.005164","0.010292"
0.007837,"0.026009","0.005176","0.009990"
0.007859,"0.027255","0.005160","0.009678"
0.007878,"0.028498","0.005137","0.009365"
0.007888,"0.029720","0.005084","0.009047"
0.007901,"0.030883","0.005007","0.008741"
0.007892,"0.031953","0.004935","0.008453"
0.007874,"0.032915","0.004862","0.008215"
0.007864,"0.034036","0.004775","0.007975"
0.007844,"0.034980","0.004672","0.007787"
0.007835,"0.036029","0.004570","0.007643"
0.007830,"0.037072","0.004460","0.007553"
0.007855,"0.037757","0.004336","0.007555"
0.007904,"0.038329","0.004203","0.007636"
0.007966,"0.038942","0.004058","0.007788"
0.008046,"0.039567","0.003912","0.007978"
0.008146,"0.040098","0.003766","0.008219"
0.009041,"0.042343","0.003501","0.009815"
0.009967,"0.044491","0.003228","0.011506"
0.010905,"0.046238","0.002951","0.013311"
0.011842,"0.047703","0.002672","0.015191"
0.012769,"0.049402","0.002408","0.017020"
0.013693,"0.051063","0.002155","0.018833"
0.014618,"0.052575","0.001940","0.020669"
0.015558,"0.054566","0.001743","0.022444"
0.016205,"0.055667","0.001571","0.023477"
0.016489,"0.055807","0.001438","0.024098"
0.016791,"0.055876","0.001305","0.024782"
0.017097,"0.056876","0.001189","0.025316"
0.017418,"0.058116","0.001069","0.025859"
0.017734,"0.058994","0.000969","0.026463"
0.018055,"0.060064","0.000870","0.027085"
0.018366,"0.061425","0.000780","0.027640"
0.018674,"0.062713","0.000693","0.028166"
0.018884,"0.063856","0.000602","0.028648"
0.019027,"0.065047","0.000543","0.028909"
0.018345,"0.064751","0.000634","0.027667"
0.017601,"0.063705","0.000746","0.026395"
0.016826,"0.062856","0.000867","0.025014"
0.016024,"0.062201","0.000976","0.023550"
0.015186,"0.061475","0.001094","0.022089"
0.014353,"0.060428","0.001210","0.020725"
0.013526,"0.059480","0.001332","0.019335"
0.012691,"0.058101","0.001465","0.018018"
0.012254,"0.057634","0.001557","0.017559"
0.012213,"0.058262","0.001592","0.017532"
0.012148,"0.059073","0.001640","0.017421"
0.012097,"0.059479","0.001704","0.017332"
0.012066,"0.059673","0.001780","0.017187"
0.012037,"0.060055","0.001839","0.016947"
0.011950,"0.060557","0.001910","0.016610"
0.011858,"0.061218","0.001984","0.016206"
0.011742,"0.061954","0.002050","0.015683"
0.011618,"0.062828","0.002136","0.015083"
0.011519,"0.063162","0.002192","0.014694"
0.011431,"0.062673","0.002212","0.014525"
0.011394,"0.062711","0.002207","0.014325"
0.011391,"0.062870","0.002194","0.014207"
0.011416,"0.062959","0.002195","0.014095"
0.011478,"0.062500","0.002188","0.014121"
0.011536,"0.062072","0.002184","0.014123"
0.011547,"0.061730","0.002183","0.014112"
0.011535,"0.061391","0.002180","0.014074"
0.011450,"0.061286","0.002186","0.013891"
0.011331,"0.061146","0.002211","0.013644"
0.011183,"0.060585","0.002245","0.013415"
0.010999,"0.059576","0.002276","0.013232"
0.010767,"0.058599","0.002299","0.013074"
0.010518,"0.057928","0.002341","0.012868"
0.010294,"0.057163","0.002375","0.012687"
0.010089,"0.056029","0.002399","0.012576"
0.009909,"0.054797","0.002432","0.012568"
0.009798,"0.053433","0.002464","0.012656"
0.009692,"0.052561","0.002506","0.012697"
0.009626,"0.052236","0.002565","0.012641"
0.009532,"0.051937","0.002625","0.012592"
0.009423,"0.051404","0.002685","0.012473"
0.009313,"0.050767","0.002738","0.012367"
0.009215,"0.050372","0.002796","0.012164"
0.009121,"0.050295","0.002855","0.011896"
0.009057,"0.050131","0.002915","0.011640"
0.009009,"0.050105","0.002959","0.011383"
0.008946,"0.049653","0.002996","0.011152"
0.008874,"0.049277","0.003025","0.010859"
0.008854,"0.049497","0.003056","0.010469"
0.008849,"0.049711","0.003090","0.010111"
0.008875,"0.049568","0.003125","0.009752"
0.008942,"0.049197","0.003149","0.009433"
0.009014,"0.048798","0.003185","0.009085"
0.009058,"0.048307","0.003251","0.008746"
0.009111,"0.047690","0.003329","0.008395"
0.009234,"0.047341","0.003390","0.008025"
0.009381,"0.046651","0.003443","0.007738"
0.009494,"0.045696","0.003483","0.007513"
0.009680,"0.044916","0.003526","0.007253"
0.009872,"0.044444","0.003579","0.006972"
0.010037,"0.044033","0.003628","0.006731"
0.010193,"0.043469","0.003666","0.006560"
0.010442,"0.042863","0.003668","0.006422"
0.010690,"0.042293","0.003650","0.006365"
0.011546,"0.041207","0.003611","0.006547"
0.012751,"0.040184","0.003573","0.006775"
0.015235,"0.038806","0.003593","0.006940"
0.018123,"0.036766","0.003800","0.007369"
0.021420,"0.034497","0.004214","0.007948"
0.025165,"0.032116","0.004747","0.008545"
0.029053,"0.029651","0.005312","0.009137"
0.033170,"0.027139","0.005932","0.009713"
0.037320,"0.024773","0.006666","0.010275"
0.041497,"0.022552","0.007482","0.010828"
0.045615,"0.020106","0.008325","0.011453"
0.049896,"0.018040","0.009161","0.012014"
0.054354,"0.016263","0.010017","0.012527"
0.058938,"0.014490","0.010917","0.013044"
0.063631,"0.012575","0.011942","0.013566"
0.068437,"0.010681","0.013007","0.014084"
0.073279,"0.009022","0.014101","0.014526"
0.077790,"0.007434","0.015289","0.014924"
0.082134,"0.005906","0.016515","0.015188"
0.085736,"0.004731","0.017837","0.015215"
0.088933,"0.003692","0.019289","0.015158"
0.090755,"0.002828","0.021114","0.015163"
0.092027,"0.002154","0.022928","0.015020"
0.092760,"0.001787","0.024545","0.014763"
0.092976,"0.001666","0.026078","0.014472"
0.092792,"0.001606","0.027605","0.014256"
0.091776,"0.001656","0.029128","0.014170"
0.090654,"0.001713","0.030624","0.014099"
0.089611,"0.001795","0.032109","0.014017"
0.088661,"0.001905","0.033581","0.013868"
0.087574,"0.002047","0.034992","0.013692"
0.086159,"0.002210","0.036334","0.013522"
0.084387,"0.002439","0.037585","0.013261"
0.082430,"0.002702","0.038722","0.012977"
0.080287,"0.003011","0.039881","0.012618"
0.077978,"0.003320","0.040990","0.012288"
0.075779,"0.003614","0.041959","0.011994"
0.073664,"0.003844","0.042906","0.011781"
0.071526,"0.004068","0.043773","0.011619"
0.069302,"0.004290","0.044453","0.011556"
0.067103,"0.004566","0.044676","0.011637"
0.064809,"0.004850","0.044727","0.011768"
0.062412,"0.005125","0.044776","0.011949"
0.060020,"0.005405","0.044672","0.012192"
0.057788,"0.005701","0.044487","0.012438"
0.056112,"0.006015","0.044221","0.012590"
0.054308,"0.006382","0.043877","0.012773"
0.052224,"0.006827","0.043460","0.012968"
0.049859,"0.007290","0.042996","0.013192"
0.047345,"0.007845","0.042472","0.013474"
0.044920,"0.008421","0.041983","0.013726"
0.042594,"0.008950","0.041524","0.014067"
0.040339,"0.009476","0.041001","0.014450"
0.038150,"0.009928","0.040408","0.014914"
0.036097,"0.010348","0.039758","0.015367"
0.034159,"0.010778","0.039028","0.015799"
0.032396,"0.011372","0.037887","0.016253"
0.030803,"0.012103","0.036608","0.016655"
0.029352,"0.013059","0.035378","0.016945"
0.027926,"0.014280","0.034147","0.017126"
0.026715,"0.015672","0.032843","0.017187"
0.025782,"0.017295","0.031448","0.017136"
0.024739,"0.019223","0.030037","0.017013"
0.023386,"0.021253","0.028614","0.016873"
0.021917,"0.023377","0.027188","0.016733"
0.020561,"0.025492","0.025725","0.016561"
0.019303,"0.027666","0.024260","0.016382"
0.018241,"0.029908","0.022806","0.016188"
0.017318,"0.032090","0.021408","0.015979"
0.016499,"0.034267","0.019978","0.015810"
0.015780,"0.036499","0.018523","0.015647"
0.015104,"0.038747","0.017118","0.015484"
0.014503,"0.041112","0.015732","0.015257"
0.013932,"0.043528","0.014428","0.014996"
0.013374,"0.045987","0.013286","0.014679"
0.012748,"0.048515","0.012529","0.014241"
0.012122,"0.051138","0.011876","0.013771"
0.011529,"0.053558","0.011151","0.013325"
0.011001,"0.055737","0.010441","0.012860"
0.010478,"0.057742","0.009764","0.012396"
0.009926,"0.059479","0.009155","0.011959"
0.009552,"0.060933","0.008650","0.011506"
0.009546,"0.062284","0.008198","0.011010"
0.009686,"0.063489","0.007752","0.010522"
0.009914,"0.064606","0.007309","0.010025"
0.010201,"0.065596","0.006865","0.009536"
0.010483,"0.066507","0.006443","0.009065"
0.010745,"0.067444","0.006088","0.008589"
0.010988,"0.068493","0.005779","0.008086"
0.011195,"0.069584","0.005520","0.007582"
0.011375,"0.070691","0.005262","0.007079"
0.011513,"0.071681","0.004998","0.006627"
0.011618,"0.072497","0.004732","0.006251"
0.011729,"0.073107","0.004460","0.005962"
0.011815,"0.073294","0.004208","0.005797"
0.011870,"0.073049","0.003997","0.005721"
0.011897,"0.072556","0.003873","0.005689"
0.011908,"0.071755","0.003774","0.005751"
0.011918,"0.070840","0.003709","0.005897"
0.011923,"0.069825","0.003642","0.006075"
0.011900,"0.068716","0.003607","0.006307"
0.011878,"0.067454","0.003585","0.006563"
0.011872,"0.066060","0.003577","0.006833"
0.011879,"0.064646","0.003556","0.007130"
0.011875,"0.063137","0.003532","0.007448"
0.011849,"0.061541","0.003509","0.007756"
0.011715,"0.059739","0.003479","0.008121"
0.011578,"0.057383","0.003441","0.008582"
0.011445,"0.054906","0.003419","0.009052"
0.011296,"0.052316","0.003389","0.009527"
0.011163,"0.049722","0.003362","0.010028"
0.011041,"0.047089","0.003329","0.010508"
0.010897,"0.044384","0.003294","0.010980"
0.010779,"0.041757","0.003257","0.011409"
0.010681,"0.039359","0.003222","0.011808"
0.010576,"0.037258","0.003177","0.012190"
0.010484,"0.035544","0.003130","0.012522"
0.010383,"0.033961","0.003086","0.012775"
0.010285,"0.032559","0.003049","0.012986"
0.010171,"0.031122","0.003022","0.013173"
0.010070,"0.029804","0.002970","0.013346"
0.009953,"0.028544","0.002931","0.013532"
0.009820,"0.027564","0.002893","0.013663"
0.009704,"0.026975","0.002861","0.013753"
0.009613,"0.026774","0.002838","0.013826"
0.009630,"0.026717","0.002830","0.013866"
0.009637,"0.027141","0.002823","0.013865"
0.009678,"0.027507","0.002797","0.013876"
0.009720,"0.027866","0.002772","0.013891"
0.009750,"0.028370","0.002744","0.013890"
0.009770,"0.029048","0.002720","0.013910"
0.009799,"0.029961","0.002705","0.013920"
0.009803,"0.031169","0.002696","0.013925"
0.009801,"0.032356","0.002680","0.013904"
0.009819,"0.033260","0.002674","0.013898"
0.009816,"0.033650","0.002664","0.013967"
0.009830,"0.033704","0.002631","0.014122"
0.009814,"0.033833","0.002590","0.014284"
0.009817,"0.034057","0.002545","0.014417"
0.009769,"0.034293","0.002537","0.014508"
0.009741,"0.034582","0.002519","0.014548"
0.009710,"0.034578","0.002522","0.014593"
0.009669,"0.034182","0.002534","0.014641"
0.009635,"0.033450","0.002533","0.014695"
0.009594,"0.032537","0.002530","0.014730"
0.009549,"0.031673","0.002529","0.014706"
0.009440,"0.030943","0.002526","0.014653"
0.009323,"0.030290","0.002526","0.014557"
0.009203,"0.029516","0.002536","0.014407"
0.009083,"0.028736","0.002562","0.014192"
0.008967,"0.027838","0.002589","0.013982"
0.008852,"0.026818","0.002620","0.013792"
0.008725,"0.025856","0.002663","0.013619"
0.008590,"0.025140","0.002702","0.013424"
0.008463,"0.024921","0.002742","0.013138"
0.008323,"0.025065","0.002799","0.012807"
0.008338,"0.025399","0.002953","0.012997"
0.008396,"0.025831","0.003151","0.013441"
0.008515,"0.026298","0.003352","0.014110"
0.008732,"0.026813","0.003564","0.014877"
0.009010,"0.027435","0.003770","0.015709"
0.009338,"0.027965","0.003968","0.016627"
0.009673,"0.028462","0.004163","0.017587"
0.010005,"0.029091","0.004371","0.018569"
0.010380,"0.029837","0.004578","0.019564"
0.010819,"0.030726","0.004791","0.020559"
0.011282,"0.031678","0.005002","0.021620"
0.011780,"0.032731","0.005198","0.022721"
0.012159,"0.033569","0.005318","0.023402"
0.012493,"0.034313","0.005369","0.023832"
0.012813,"0.034896","0.005413","0.024049"
0.013044,"0.035368","0.005440","0.024201"
0.013230,"0.035778","0.005473","0.024307"
0.013369,"0.036065","0.005499","0.024395"
0.013499,"0.036299","0.005520","0.024459"
0.013530,"0.036289","0.005437","0.023966"
0.013491,"0.036112","0.005302","0.023247"
0.013400,"0.035666","0.005146","0.022356"
0.013192,"0.035114","0.004990","0.021369"
0.012909,"0.034329","0.004820","0.020365"
0.012572,"0.033684","0.004647","0.019339"
0.012217,"0.033110","0.004466","0.018328"
0.011887,"0.032601","0.004266","0.017289"
0.011534,"0.031892","0.004078","0.016258"
0.011150,"0.031057","0.003876","0.015252"
0.010749,"0.030165","0.003678","0.014266"
0.010366,"0.029110","0.003487","0.013341"
0.010519,"0.028151","0.003329","0.012986"
0.011402,"0.027053","0.003269","0.013038"
0.012932,"0.025992","0.003263","0.013328"
0.014759,"0.024983","0.003403","0.013654"
0.016940,"0.024006","0.003634","0.014001"
0.019373,"0.023049","0.003983","0.014351"
0.022167,"0.021928","0.004508","0.014745"
0.025273,"0.020697","0.005071","0.015235"
0.028946,"0.019416","0.005648","0.015647"
0.032622,"0.018238","0.006399","0.016099"
0.036202,"0.017128","0.007447","0.016580"
0.039740,"0.016232","0.008549","0.017002"
0.042833,"0.015392","0.009894","0.017262"
0.045162,"0.014582","0.011565","0.017337"
0.046772,"0.013744","0.013317","0.017355"
0.048107,"0.012788","0.014942","0.017500"
0.049133,"0.011764","0.016479","0.017652"
0.050008,"0.010697","0.017918","0.017761"
0.050400,"0.009768","0.019188","0.017840"
0.050366,"0.008954","0.020455","0.017816"
0.049575,"0.008447","0.021703","0.017606"
0.048016,"0.007988","0.022925","0.017363"
0.045940,"0.007519","0.024045","0.017200"
0.043380,"0.007043","0.025094","0.017094"
0.040482,"0.006602","0.026014","0.017023"
0.037169,"0.006330","0.026757","0.016945"
0.033518,"0.006094","0.027445","0.016822"
0.029320,"0.005997","0.028036","0.016795"
0.025144,"0.006029","0.028417","0.016754"
0.021091,"0.006049","0.028437","0.016742"
0.017159,"0.006053","0.028274","0.016781"
0.013706,"0.006043","0.027784","0.016931"
0.011052,"0.005985","0.026907","0.017234"
0.009101,"0.005932","0.025950","0.017586"
0.007412,"0.005958","0.025109","0.017798"
0.006039,"0.005994","0.024334","0.018013"
0.004829,"0.006087","0.023622","0.018245"
0.004087,"0.006118","0.022970","0.018465"
0.003373,"0.006139","0.022306","0.018695"
0.002783,"0.006168","0.021531","0.018961"
0.002346,"0.006219","0.020666","0.019250"
0.002268,"0.006286","0.019647","0.019510"
0.002398,"0.006368","0.018486","0.019761"
0.002686,"0.006453","0.017279","0.020034"
0.003040,"0.006551","0.016075","0.020303"
0.003394,"0.006661","0.014894","0.020540"
0.003743,"0.006778","0.013795","0.020732"
0.004095,"0.006888","0.012737","0.020875"
0.004434,"0.007024","0.011736","0.020974"
0.004717,"0.007166","0.010876","0.021055"
0.004973,"0.007316","0.010097","0.021145"
0.005202,"0.007464","0.009387","0.021223"
0.005427,"0.007604","0.008683","0.021309"
0.005654,"0.007748","0.007982","0.021402"
0.005865,"0.007918","0.007308","0.021470"
0.006055,"0.008110","0.006674","0.021502"
0.006204,"0.008290","0.006172","0.021533"
0.006326,"0.008477","0.005731","0.021533"
0.006391,"0.008714","0.005388","0.021491"
0.006444,"0.009007","0.005095","0.021407"
0.006468,"0.009307","0.004902","0.021306"
0.006468,"0.009623","0.004808","0.021170"
0.006458,"0.009956","0.004760","0.021008"
0.006450,"0.010324","0.004706","0.020839"
0.006446,"0.010730","0.004662","0.020704"
0.006451,"0.011160","0.004631","0.020599"
0.006442,"0.011663","0.004611","0.020495"
0.006438,"0.012215","0.004593","0.020352"
0.006436,"0.012788","0.004588","0.020147"
0.006420,"0.013405","0.004617","0.019894"
0.006385,"0.014060","0.004656","0.019628"
0.006348,"0.014789","0.004699","0.019332"
0.006306,"0.015601","0.004742","0.019000"
0.006264,"0.016411","0.004792","0.018664"
0.006226,"0.017252","0.004840","0.018336"
0.006208,"0.018119","0.004862","0.017964"
0.006197,"0.019071","0.004873","0.017565"
0.006205,"0.020053","0.004886","0.017177"
0.006216,"0.021085","0.004913","0.016772"
0.006206,"0.022160","0.004972","0.016344"
0.006176,"0.023186","0.005081","0.015916"
0.006145,"0.024182","0.005217","0.015490"
0.006123,"0.025175","0.005364","0.015046"
0.006097,"0.026172","0.005507","0.014579"
0.006068,"0.027196","0.005654","0.014095"
0.006040,"0.028178","0.005816","0.013619"
0.006018,"0.029191","0.005974","0.013159"
0.005997,"0.030248","0.006130","0.012746"
0.005996,"0.031316","0.006251","0.012371"
0.006010,"0.032426","0.006365","0.011998"
0.006033,"0.033530","0.006475","0.011641"
0.006064,"0.034688","0.006588","0.011305"
0.006098,"0.035946","0.006712","0.010956"
0.006136,"0.037304","0.006836","0.010588"
0.006159,"0.038730","0.006968","0.010222"
0.006193,"0.040195","0.007095","0.009855"
0.006235,"0.041649","0.007195","0.009468"
0.006271,"0.043014","0.007290","0.009104"
0.006321,"0.044313","0.007379","0.008758"
0.006376,"0.045701","0.007445","0.008414"
0.006427,"0.047160","0.007499","0.008066"
0.006454,"0.048669","0.007551","0.007750"
0.006476,"0.050269","0.007595","0.007448"
0.006505,"0.051813","0.007623","0.007165"
0.006555,"0.053608","0.007623","0.006852"
0.006604,"0.055621","0.007615","0.006530"
0.006672,"0.057913","0.007590","0.006187"
0.006742,"0.060191","0.007562","0.005840"
0.006821,"0.062370","0.007513","0.005506"
0.006911,"0.064442","0.007436","0.005195"
0.007005,"0.066382","0.007354","0.004902"
0.007106,"0.068306","0.007254","0.004616"
0.007212,"0.070070","0.007156","0.004365"
0.007310,"0.071878","0.007055","0.004129"
0.007397,"0.073805","0.006959","0.003894"
0.007468,"0.075809","0.006888","0.003689"
0.007551,"0.077951","0.006823","0.003487"
0.007640,"0.080107","0.006748","0.003294"
0.007741,"0.082072","0.006665","0.003131"
0.007852,"0.083938","0.006539","0.003028"
0.007964,"0.085699","0.006380","0.002965"
0.008055,"0.087174","0.006212","0.002967"
0.008142,"0.088334","0.006025","0.003030"
0.008217,"0.088757","0.005834","0.003201"
0.008291,"0.088945","0.005647","0.003421"
0.008334,"0.088492","0.005466","0.003719"
0.008348,"0.087629","0.005285","0.004079"
0.008326,"0.086469","0.005127","0.004486"
0.008262,"0.085192","0.005021","0.004917"
0.008189,"0.083787","0.004921","0.005371"
0.008069,"0.082169","0.004820","0.005850"
0.007935,"0.080515","0.004725","0.006310"
0.007820,"0.078581","0.004629","0.006780"
0.007720,"0.076648","0.004522","0.007259"
0.007614,"0.074993","0.004413","0.007694"
0.007485,"0.073317","0.004303","0.008133"
0.007347,"0.071458","0.004199","0.008595"
0.007232,"0.069852","0.004107","0.009016"
0.007108,"0.067867","0.004055","0.009465"
0.007007,"0.065777","0.004039","0.009865"
0.006947,"0.063947","0.004021","0.010183"
0.006898,"0.062282","0.004017","0.010430"
0.006850,"0.061230","0.004024","0.010558"
0.006812,"0.060183","0.004023","0.010632"
0.006778,"0.059390","0.004022","0.010650"
0.006770,"0.058647","0.004026","0.010627"
0.006787,"0.057877","0.004030","0.010597"
0.006844,"0.057408","0.004012","0.010484"
0.006884,"0.057207","0.003984","0.010328"
0.006940,"0.057140","0.003950","0.010161"
0.007013,"0.057300","0.003903","0.009941"
0.007073,"0.057731","0.003846","0.009738"
0.007116,"0.057980","0.003800","0.009570"
0.007161,"0.057593","0.003761","0.009479"
0.007213,"0.056707","0.003726","0.009468"
0.007267,"0.055940","0.003688","0.009451"
0.007322,"0.055136","0.003636","0.009431"
0.007363,"0.054891","0.003596","0.009323"
0.007392,"0.055020","0.003556","0.009163"
0.007381,"0.054900","0.003529","0.009060"
0.007366,"0.054746","0.003525","0.008989"
0.007370,"0.054273","0.003527","0.008961"
0.007350,"0.053617","0.003543","0.009047"
0.007332,"0.052901","0.003560","0.009127"
0.007314,"0.052557","0.003573","0.009171"
0.007293,"0.052552","0.003580","0.009154"
0.007259,"0.052444","0.003590","0.009160"
0.007241,"0.052146","0.003613","0.009173"
0.007234,"0.051838","0.003656","0.009195"
0.007237,"0.051174","0.003698","0.009266"
0.007243,"0.050441","0.003750","0.009317"
0.007266,"0.049769","0.003803","0.009329"
0.007301,"0.049341","0.003847","0.009276"
0.007324,"0.049173","0.003893","0.009148"
0.007359,"0.049295","0.003942","0.008915"
0.007379,"0.049355","0.004000","0.008716"
0.007424,"0.048890","0.004048","0.008560"
0.007475,"0.047995","0.004090","0.008479"
0.007565,"0.047209","0.004127","0.008357"
0.007656,"0.046853","0.004152","0.008192"
0.007742,"0.047119","0.004179","0.007953"
0.007829,"0.047513","0.004201","0.007640"
0.007931,"0.047633","0.004222","0.007376"
0.008043,"0.047346","0.004243","0.007186"
0.008143,"0.047029","0.004259","0.007053"
0.008248,"0.046752","0.004258","0.006951"
0.008357,"0.046210","0.004258","0.006898"
0.008458,"0.045605","0.004247","0.006820"
0.008537,"0.045192","0.004242","0.006742"
0.008608,"0.044732","0.004230","0.006674"
0.008652,"0.044170","0.004213","0.006639"
0.008674,"0.043407","0.004202","0.006685"
0.008699,"0.042237","0.004172","0.006805"
0.008720,"0.040756","0.004145","0.007036"
0.008725,"0.039311","0.004103","0.007293"
0.008715,"0.038274","0.004071","0.007533"
0.008714,"0.037469","0.004034","0.007751"
0.008689,"0.036605","0.004010","0.008009"
0.008646,"0.035431","0.003978","0.008344"
0.008613,"0.033776","0.003939","0.008796"
0.008598,"0.032043","0.003899","0.009270"
0.008580,"0.030830","0.003860","0.009736"
0.008551,"0.029927","0.003815","0.010205"
0.008532,"0.028928","0.003771","0.010781"
0.008539,"0.027787","0.003723","0.011397"
0.008616,"0.026946","0.003668","0.012010"
0.008828,"0.026009","0.003616","0.012682"
0.009577,"0.025009","0.003533","0.013339"
0.010971,"0.023917","0.003417","0.014083"
0.013000,"0.022843","0.003283","0.015124"
0.015427,"0.021949","0.003310","0.016039"
0.017788,"0.021380","0.003628","0.016913"
0.020173,"0.020808","0.004593","0.017790"
0.023147,"0.019931","0.005780","0.018604"
0.026802,"0.018950","0.007083","0.019429"
0.031418,"0.017975","0.008441","0.019935"
0.036092,"0.017068","0.010175","0.020370"
0.040977,"0.016149","0.012057","0.020723"
0.045769,"0.015288","0.014008","0.021029"
0.050430,"0.014464","0.016042","0.021325"
0.054617,"0.013439","0.018309","0.021606"
0.058396,"0.012427","0.020682","0.021781"
0.061735,"0.011567","0.023267","0.021573"
0.064830,"0.010694","0.025930","0.021203"
0.067541,"0.009787","0.028570","0.020848"
0.070090,"0.009054","0.031057","0.020422"
0.072226,"0.008389","0.033420","0.019987"
0.073927,"0.007827","0.035539","0.019456"
0.074795,"0.007269","0.037292","0.018573"
0.074841,"0.006752","0.038764","0.017814"
0.074954,"0.006441","0.039863","0.016943"
0.074430,"0.006227","0.040269","0.016041"
0.072707,"0.006211","0.040463","0.015263"
0.069803,"0.006225","0.040490","0.014586"
0.065897,"0.006199","0.040269","0.014218"
0.061691,"0.006246","0.039402","0.013925"
0.057196,"0.006360","0.038389","0.013659"
0.052748,"0.006428","0.037330","0.013384"
0.048283,"0.006516","0.036124","0.013088"
0.044237,"0.006693","0.034537","0.012769"
0.040631,"0.006913","0.032707","0.012528"
0.037467,"0.007129","0.030614","0.012534"
0.034448,"0.007421","0.028284","0.012721"
0.031713,"0.007738","0.025918","0.012862"
0.029022,"0.008019","0.023677","0.013015"
0.026229,"0.008249","0.021576","0.013236"
0.023072,"0.008480","0.019700","0.013501"
0.020070,"0.008683","0.018194","0.013813"
0.017475,"0.008820","0.016867","0.014104"
0.014874,"0.008936","0.015636","0.014472"
0.012870,"0.009016","0.014466","0.014836"
0.011476,"0.009116","0.013310","0.015120"
0.010554,"0.009258","0.012242","0.015257"
0.009647,"0.009380","0.011386","0.015377"
0.009001,"0.009434","0.010778","0.015475"
0.008431,"0.009496","0.010176","0.015567"
0.007907,"0.009557","0.009494","0.015654"
0.007521,"0.009619","0.008856","0.015726"
0.007188,"0.009647","0.008357","0.015806"
0.006818,"0.009652","0.008005","0.015863"
0.006451,"0.009607","0.007701","0.015935"
0.006163,"0.009554","0.007570","0.015907"
0.005923,"0.009525","0.007507","0.015844"
0.005670,"0.009493","0.007470","0.015822"
0.005409,"0.009460","0.007455","0.015809"
0.005303,"0.009401","0.007494","0.015758"
0.005242,"0.009318","0.007596","0.015703"
0.005234,"0.009252","0.007625","0.015606"
0.005276,"0.009196","0.007649","0.015489"
0.005311,"0.009145","0.007677","0.015415"
0.005372,"0.009093","0.007692","0.015320"
0.005486,"0.009035","0.007642","0.015221"
0.005642,"0.008956","0.007552","0.015154"
0.005818,"0.008910","0.007471","0.015103"
0.006008,"0.008892","0.007387","0.015074"
0.006188,"0.008861","0.007379","0.015062"
0.006357,"0.008826","0.007409","0.015070"
0.006532,"0.008800","0.007446","0.015114"
0.006696,"0.008772","0.007494","0.015167"
0.006853,"0.008764","0.007568","0.015168"
0.007007,"0.008810","0.007629","0.015182"
0.007138,"0.008874","0.007674","0.015247"
0.007283,"0.008953","0.007716","0.015302"
0.007441,"0.009060","0.007740","0.015268"
0.007601,"0.009174","0.007767","0.015210"
0.007768,"0.009290","0.007741","0.015117"
0.007927,"0.009434","0.007684","0.015046"
0.008058,"0.009607","0.007563","0.015010"
0.008184,"0.009814","0.007398","0.014939"
0.008307,"0.010080","0.007203","0.014833"
0.008373,"0.010399","0.007031","0.014737"
0.008419,"0.010842","0.006888","0.014618"
0.008423,"0.011327","0.006747","0.014458"
0.008419,"0.011820","0.006615","0.014235"
0.008412,"0.012423","0.006469","0.013979"
0.008411,"0.013120","0.006292","0.013702"
0.008399,"0.013862","0.006114","0.013404"
0.008414,"0.014700","0.005913","0.013057"
0.008432,"0.015645","0.005686","0.012724"
0.008470,"0.016575","0.005459","0.012398"
0.008524,"0.017509","0.005238","0.012045"
0.008570,"0.018432","0.005023","0.011647"
0.008596,"0.019378","0.004825","0.011286"
0.008622,"0.020377","0.004654","0.010925"
0.008658,"0.021470","0.004527","0.010568"
0.008682,"0.022576","0.004453","0.010207"
0.008698,"0.023743","0.004448","0.009830"
0.008740,"0.025032","0.004462","0.009436"
0.008739,"0.026246","0.004507","0.009093"
0.008764,"0.027453","0.004549","0.008760"
0.008779,"0.028792","0.004592","0.008410"
0.008796,"0.030216","0.004639","0.008073"
0.008822,"0.031635","0.004673","0.007778"
0.008799,"0.033019","0.004698","0.007515"
0.008771,"0.034350","0.004736","0.007276"
0.008740,"0.035589","0.004766","0.007053"
0.008698,"0.036742","0.004806","0.006876"
0.008647,"0.037840","0.004861","0.006712"
0.008572,"0.038954","0.004933","0.006566"
0.008482,"0.040689","0.005017","0.006363"
0.008395,"0.042527","0.005057","0.006192"
0.008317,"0.044330","0.005034","0.006052"
0.008242,"0.045983","0.004993","0.005942"
0.008190,"0.047768","0.004919","0.005841"
0.008128,"0.049665","0.004835","0.005718"
0.008099,"0.051254","0.004739","0.005641"
0.008084,"0.053201","0.004642","0.005514"
0.008089,"0.054782","0.004541","0.005422"
0.008116,"0.055907","0.004440","0.005377"
0.008148,"0.056628","0.004340","0.005382"
0.008187,"0.057221","0.004235","0.005385"
0.008214,"0.057572","0.004124","0.005435"
0.008273,"0.057421","0.004011","0.005513"
0.008329,"0.057281","0.003896","0.005599"
0.008377,"0.057081","0.003783","0.005669"
0.008391,"0.056497","0.003676","0.005778"
0.008421,"0.056182","0.003560","0.005860"
0.008436,"0.056029","0.003443","0.005898"
0.008466,"0.055230","0.003320","0.005987"
0.008489,"0.054261","0.003246","0.006082"
0.008520,"0.053657","0.003229","0.006115"
0.008548,"0.053281","0.003204","0.006123"
0.008562,"0.052520","0.003178","0.006168"
0.008602,"0.051568","0.003147","0.006250"
0.008601,"0.050964","0.003136","0.006283"
0.008566,"0.049621","0.003137","0.006422"
0.008494,"0.048975","0.003148","0.006540"
0.008436,"0.049201","0.003156","0.006565"
0.008377,"0.049442","0.003153","0.006615"
0.008312,"0.049393","0.003160","0.006716"
0.008256,"0.049692","0.003177","0.006782"
0.008197,"0.050247","0.003202","0.006837"
0.008125,"0.050985","0.003228","0.006894"
0.008092,"0.051703","0.003258","0.006955"
0.008087,"0.052720","0.003276","0.006979"
0.008094,"0.053074","0.003294","0.007055"
0.008100,"0.053134","0.003311","0.007174"
0.008119,"0.053332","0.003316","0.007271"
0.008136,"0.053814","0.003309","0.007318"
0.008169,"0.053896","0.003295","0.007411"
0.008202,"0.053987","0.003283","0.007482"
0.008219,"0.053952","0.003276","0.007565"
0.008226,"0.053892","0.003279","0.007633"
0.008236,"0.053702","0.003271","0.007718"
0.008252,"0.053758","0.003264","0.007722"
0.008284,"0.053485","0.003254","0.007718"
0.008285,"0.052796","0.003267","0.007735"
0.008282,"0.052322","0.003292","0.007707"
0.008284,"0.052327","0.003304","0.007603"
0.008290,"0.052216","0.003323","0.007505"
0.008310,"0.052197","0.003339","0.007389"
0.008337,"0.052118","0.003358","0.007276"
0.008336,"0.052108","0.003368","0.007203"
0.008335,"0.052532","0.003400","0.007088"
0.008327,"0.053249","0.003428","0.006956"
0.008326,"0.053566","0.003457","0.006886"
0.008288,"0.053864","0.003497","0.006827"
0.008232,"0.053647","0.003538","0.006828"
0.008144,"0.053442","0.003582","0.006820"
0.008075,"0.053136","0.003613","0.006837"
0.008016,"0.053288","0.003652","0.006775"
0.007991,"0.053408","0.003678","0.006674"
0.007946,"0.052879","0.003701","0.006638"
0.007913,"0.052320","0.003712","0.006667"
0.007928,"0.052121","0.003718","0.006626"
0.007944,"0.051646","0.003708","0.006633"
0.007975,"0.051250","0.003700","0.006630"
0.008000,"0.050721","0.003697","0.006660"
0.008020,"0.049810","0.003694","0.006715"
0.008024,"0.048806","0.003676","0.006793"
0.008047,"0.047725","0.003664","0.006845"
0.008079,"0.046933","0.003672","0.006817"
0.008100,"0.045680","0.003654","0.006848"
0.008089,"0.044314","0.003642","0.006904"
0.008062,"0.043421","0.003623","0.006898"
0.008081,"0.042198","0.003598","0.006930"
0.008131,"0.041436","0.003570","0.006936"
0.008189,"0.040610","0.003540","0.006959"
0.008259,"0.039444","0.003519","0.007015"
0.008380,"0.038095","0.003484","0.007125"
0.008484,"0.036457","0.003445","0.007335"
0.008619,"0.035369","0.003410","0.007486"
0.008760,"0.034416","0.003387","0.007595"
0.008872,"0.033240","0.003368","0.007787"
0.008973,"0.032183","0.003354","0.007957"
0.009039,"0.030881","0.003343","0.008150"
0.009084,"0.029520","0.003341","0.008364"
0.009092,"0.028589","0.003330","0.008558"
0.009124,"0.027824","0.003319","0.008788"
0.009672,"0.026826","0.003275","0.009079"
0.011147,"0.025415","0.003193","0.009453"
0.013275,"0.023827","0.003259","0.009912"
0.015930,"0.022137","0.003561","0.010507"
0.019307,"0.020365","0.004063","0.011045"
0.022702,"0.018780","0.004786","0.011683"
0.026496,"0.017000","0.005598","0.012365"
0.030596,"0.015236","0.006533","0.013024"
0.034845,"0.013769","0.007584","0.013511"
0.039747,"0.014439","0.008508","0.014223"
0.044742,"0.015517","0.009444","0.014928"
0.049722,"0.016668","0.010410","0.015619"
0.054539,"0.017640","0.011473","0.016290"
0.059519,"0.018561","0.012577","0.016881"
0.064518,"0.019656","0.013752","0.017403"
0.069505,"0.020849","0.014943","0.017839"
0.074350,"0.022016","0.016102","0.018183"
0.079176,"0.023043","0.017324","0.018388"
0.083624,"0.023896","0.018628","0.018465"
0.087197,"0.024780","0.020069","0.018382"
0.089651,"0.025635","0.021505","0.018292"
0.091017,"0.026649","0.022767","0.018182"
0.091695,"0.027926","0.023778","0.017905"
0.091726,"0.029290","0.024367","0.017692"
0.091639,"0.030615","0.024656","0.017322"
0.091078,"0.031915","0.024842","0.016861"
0.090157,"0.033106","0.024854","0.016308"
0.088973,"0.034225","0.024655","0.015881"
0.086566,"0.033153","0.024606","0.015302"
0.083652,"0.031935","0.024596","0.014676"
0.080577,"0.030748","0.024533","0.014027"
0.077701,"0.029528","0.024385","0.013336"
0.074548,"0.028210","0.024197","0.012653"
0.071204,"0.026823","0.023895","0.012043"
0.067699,"0.025439","0.023485","0.011558"
0.063950,"0.024000","0.023103","0.011145"
0.060135,"0.022443","0.022658","0.010867"
0.056556,"0.021049","0.022164","0.010670"
0.053288,"0.019730","0.021575","0.010601"
0.050079,"0.018643","0.021018","0.010498"
0.047183,"0.017677","0.020410","0.010327"
0.044521,"0.016757","0.019685","0.010175"
0.042031,"0.015859","0.019169","0.009955"
0.039684,"0.014998","0.018731","0.009771"
0.037436,"0.014174","0.018223","0.009674"
0.035239,"0.013522","0.017781","0.009650"
0.033096,"0.012933","0.017435","0.009654"
0.031451,"0.012429","0.017061","0.009594"
0.030197,"0.012036","0.016656","0.009545"
0.029045,"0.011635","0.016298","0.009564"
0.027700,"0.011356","0.015903","0.009700"
0.026508,"0.011181","0.015446","0.009951"
0.025426,"0.011079","0.015016","0.010241"
0.024370,"0.011040","0.014640","0.010553"
0.023672,"0.011079","0.014252","0.010860"
0.023091,"0.011302","0.013868","0.011159"
0.022636,"0.011607","0.013457","0.011456"
0.022250,"0.011968","0.012995","0.011772"
0.022007,"0.012293","0.012471","0.012117"
0.021914,"0.012646","0.011971","0.012440"
0.021776,"0.012977","0.011572","0.012743"
0.021428,"0.013233","0.011165","0.013116"
0.020994,"0.013450","0.010795","0.013536"
0.020509,"0.013664","0.010527","0.013913"
0.019764,"0.013863","0.010248","0.014366"
0.018960,"0.014053","0.009966","0.014828"
0.018171,"0.014203","0.009695","0.015300"
0.017403,"0.014362","0.009380","0.015813"
0.016723,"0.014518","0.009029","0.016313"
0.016196,"0.014641","0.008697","0.016775"
0.015622,"0.014707","0.008415","0.017179"
0.015156,"0.014737","0.008114","0.017524"
0.014835,"0.014692","0.007833","0.017803"
0.014531,"0.014606","0.007544","0.018062"
0.014220,"0.014449","0.007255","0.018292"
0.013901,"0.014222","0.006964","0.018530"
0.013565,"0.013981","0.006712","0.018776"
0.013264,"0.013782","0.006533","0.018984"
0.012982,"0.013595","0.006439","0.019179"
0.012724,"0.013374","0.006388","0.019345"
0.012485,"0.013287","0.006373","0.019466"
0.012283,"0.013271","0.006329","0.019550"
0.012126,"0.013326","0.006264","0.019667"
0.012233,"0.013467","0.006177","0.019763"
0.012463,"0.013677","0.006070","0.019822"
0.012733,"0.013931","0.005938","0.019866"
0.012986,"0.014217","0.005844","0.019868"
0.013273,"0.014558","0.005780","0.019847"
0.013585,"0.014955","0.005733","0.019771"
0.013938,"0.015460","0.005711","0.019626"
0.014284,"0.015974","0.005746","0.019474"
0.014691,"0.016554","0.005793","0.019314"
0.015195,"0.017177","0.005856","0.019172"
0.015690,"0.017999","0.005940","0.019061"
0.016242,"0.018941","0.006025","0.018927"
0.016822,"0.019988","0.006115","0.018721"
0.017360,"0.021060","0.006197","0.018513"
0.017874,"0.022139","0.006267","0.018277"
0.018368,"0.023378","0.006357","0.018022"
0.018786,"0.024553","0.006433","0.017818"
0.019168,"0.025734","0.006489","0.017601"
0.019530,"0.026962","0.006552","0.017363"
0.019898,"0.028237","0.006617","0.017094"
0.020237,"0.029569","0.006712","0.016842"
0.020608,"0.031023","0.006811","0.016537"
0.021029,"0.032525","0.006910","0.016179"
0.021414,"0.034152","0.007016","0.015786"
0.021819,"0.035921","0.007108","0.015412"
0.022217,"0.037635","0.007197","0.015091"
0.022616,"0.039301","0.007252","0.014797"
0.023015,"0.040891","0.007233","0.014537"
0.023323,"0.042336","0.007251","0.014315"
0.023654,"0.043600","0.007300","0.014122"
0.023956,"0.044526","0.007388","0.014060"
0.024288,"0.045144","0.007481","0.014071"
0.024518,"0.045180","0.007552","0.014167"
0.024707,"0.045337","0.007685","0.014339"
0.025042,"0.045512","0.007752","0.014573"
0.025320,"0.045480","0.007805","0.014827"
0.025692,"0.045611","0.007847","0.015254"
0.026116,"0.045689","0.007888","0.015733"
0.026561,"0.045662","0.007932","0.016333"
0.026908,"0.045601","0.007962","0.017017"
0.026974,"0.045186","0.007973","0.017791"
0.026858,"0.044629","0.007942","0.018598"
0.026640,"0.043740","0.007820","0.019254"
0.026176,"0.042609","0.007656","0.019813"
0.025506,"0.041533","0.007466","0.020292"
0.024681,"0.040551","0.007256","0.020554"
0.023772,"0.039656","0.007098","0.020642"
0.022838,"0.039093","0.006897","0.020646"
0.021892,"0.038631","0.006640","0.020563"
0.020929,"0.038873","0.006347","0.020214"
0.019853,"0.039179","0.006059","0.019790"
0.018922,"0.039653","0.005780","0.019257"
0.017997,"0.039974","0.005443","0.018665"
0.016970,"0.040325","0.005154","0.018047"
0.016024,"0.040864","0.004900","0.017382"
0.015027,"0.041082","0.004670","0.016564"
0.014004,"0.041268","0.004435","0.015738"
0.012946,"0.041688","0.004209","0.014822"
0.011996,"0.042130","0.004005","0.013849"
0.011244,"0.043097","0.003836","0.012799"
0.010647,"0.044132","0.003693","0.011830"
0.010120,"0.045270","0.003610","0.011074"
0.009769,"0.046113","0.003553","0.010493"
0.009558,"0.046882","0.003506","0.010009"
0.009505,"0.047683","0.003487","0.009717"
0.009548,"0.048350","0.003489","0.009583"
0.009613,"0.048224","0.003511","0.009579"
0.009714,"0.048095","0.003566","0.009826"
0.009817,"0.047351","0.003636","0.010224"
0.009983,"0.047225","0.003684","0.010682"
0.010149,"0.047739","0.003734","0.011126"
0.010268,"0.047781","0.003766","0.011674"
0.010336,"0.047603","0.003842","0.012356"
0.010413,"0.047088","0.003902","0.012955"
0.010472,"0.046700","0.004011","0.013553"
0.010549,"0.046440","0.004153","0.014064"
0.010538,"0.045053","0.004357","0.014630"
0.010526,"0.043571","0.004545","0.015299"
0.010507,"0.042096","0.004695","0.015860"
0.010472,"0.040986","0.004859","0.016188"
0.010474,"0.039960","0.004995","0.016387"
0.010451,"0.039027","0.005110","0.016543"
0.010439,"0.038143","0.005207","0.016674"
0.010394,"0.037202","0.005293","0.016645"
0.010306,"0.036070","0.005384","0.016588"
0.010293,"0.035141","0.005447","0.016533"
0.010259,"0.033973","0.005480","0.016278"
0.010482,"0.032954","0.005528","0.015945"
0.010705,"0.031218","0.005643","0.015572"
0.010929,"0.028952","0.005737","0.015275"
0.011205,"0.027144","0.005814","0.014915"
0.011437,"0.025453","0.005819","0.014390"
0.011623,"0.024311","0.005843","0.013919"
0.011667,"0.023234","0.005842","0.013517"
0.011667,"0.022132","0.005803","0.013207"
0.011770,"0.022063","0.005721","0.012830"
0.011926,"0.022322","0.005690","0.012320"
0.012150,"0.022358","0.005724","0.011963"
0.012410,"0.022178","0.005767","0.011767"
0.012623,"0.022039","0.005793","0.011619"
0.012839,"0.022159","0.005807","0.011413"
0.013031,"0.022164","0.005786","0.011188"
0.013184,"0.022050","0.005743","0.011121"
0.013270,"0.022091","0.005662","0.011056"
0.013296,"0.022484","0.005572","0.010899"
0.013299,"0.022751","0.005471","0.010779"
0.013042,"0.022916","0.005341","0.010729"
0.012761,"0.023288","0.005154","0.010684"
0.012470,"0.024042","0.005000","0.010591"
0.012243,"0.024802","0.004856","0.010464"
0.012045,"0.025371","0.004733","0.010410"
0.011967,"0.025886","0.004602","0.010367"
0.012219,"0.026541","0.004446","0.010199"
0.012975,"0.027243","0.004267","0.009865"
0.014131,"0.027422","0.004036","0.009549"
0.015745,"0.027080","0.003737","0.009296"
0.017723,"0.026461","0.003573","0.009015"
0.020373,"0.025499","0.003497","0.008829"
0.022931,"0.024236","0.003583","0.008893"
0.025696,"0.022616","0.004041","0.009066"
0.028314,"0.021020","0.004835","0.009228"
0.030455,"0.019521","0.005742","0.009453"
0.032496,"0.018158","0.006606","0.009658"
0.034463,"0.016899","0.007546","0.009741"
0.036297,"0.016004","0.008315","0.009711"
0.037846,"0.015188","0.009090","0.009697"
0.039354,"0.014405","0.009591","0.009840"
0.040806,"0.013485","0.010039","0.010041"
0.042218,"0.012583","0.010472","0.010257"
0.043474,"0.011790","0.010915","0.010470"
0.044532,"0.010843","0.011352","0.010707"
0.045341,"0.009701","0.011868","0.010984"
0.045592,"0.008398","0.012471","0.011387"
0.045362,"0.007481","0.013108","0.011792"
0.044598,"0.006748","0.013770","0.012157"
0.043304,"0.006193","0.014256","0.012554"
0.041142,"0.005866","0.014536","0.012871"
0.038947,"0.005771","0.014696","0.012980"
0.036497,"0.006020","0.014520","0.013040"
0.034172,"0.006246","0.014057","0.013149"
0.032176,"0.006447","0.013526","0.013248"
0.030310,"0.006615","0.013070","0.013377"
0.028489,"0.006713","0.012577","0.013656"
0.026804,"0.006769","0.012270","0.014013"
0.025407,"0.006852","0.011959","0.014354"
0.024050,"0.006935","0.011861","0.014565"
0.022698,"0.007044","0.011739","0.014715"
0.021369,"0.007160","0.011583","0.014807"
0.020148,"0.007278","0.011415","0.014842"
0.018840,"0.007400","0.011220","0.014942"
0.017534,"0.007507","0.010970","0.015077"
0.016268,"0.007611","0.010693","0.015206"
0.015070,"0.007670","0.010429","0.015335"
0.013893,"0.007730","0.010163","0.015496"
0.012819,"0.007783","0.009921","0.015642"
0.011910,"0.007801","0.009783","0.015793"
0.011196,"0.007819","0.009534","0.015994"
0.010600,"0.007835","0.009250","0.016204"
0.010080,"0.007876","0.008968","0.016429"
0.009753,"0.007909","0.008686","0.016630"
0.009458,"0.007940","0.008410","0.016823"
0.009218,"0.007970","0.008117","0.016994"
0.009002,"0.007971","0.007831","0.017190"
0.008791,"0.007978","0.007541","0.017385"
0.008594,"0.007968","0.007306","0.017587"
0.008406,"0.007918","0.007141","0.017847"
0.008175,"0.007843","0.007036","0.018225"
0.008018,"0.007758","0.006918","0.018624"
0.008077,"0.007666","0.006813","0.018957"
0.008184,"0.007594","0.006691","0.019252"
0.008313,"0.007522","0.006541","0.019544"
0.008442,"0.007480","0.006381","0.019784"
0.008563,"0.007445","0.006214","0.020011"
0.008671,"0.007422","0.006038","0.020222"
0.008773,"0.007392","0.005863","0.020405"
0.008826,"0.007346","0.005773","0.020574"
0.008856,"0.007291","0.005722","0.020810"
0.008880,"0.007260","0.005675","0.020999"
0.008892,"0.007234","0.005616","0.021155"
0.008896,"0.007215","0.005544","0.021329"
0.008896,"0.007224","0.005472","0.021451"
0.008871,"0.007255","0.005385","0.021533"
0.008836,"0.007297","0.005308","0.021593"
0.008790,"0.007361","0.005238","0.021583"
0.008741,"0.007441","0.005163","0.021539"
0.008700,"0.007528","0.005085","0.021440"
0.008653,"0.007621","0.005018","0.021349"
0.008580,"0.007756","0.004955","0.021237"
0.008509,"0.007916","0.004908","0.021130"
0.008418,"0.008099","0.004898","0.020986"
0.008324,"0.008336","0.004903","0.020789"
0.008220,"0.008610","0.004919","0.020508"
0.008124,"0.008938","0.004936","0.020243"
0.008008,"0.009289","0.004965","0.019977"
0.007892,"0.009646","0.005022","0.019686"
0.007753,"0.010048","0.005081","0.019314"
0.007610,"0.010551","0.005138","0.018942"
0.007465,"0.011218","0.005198","0.018555"
0.007325,"0.012043","0.005264","0.018121"
0.007182,"0.012891","0.005323","0.017717"
0.007057,"0.013797","0.005377","0.017265"
0.006928,"0.014722","0.005416","0.016763"
0.006803,"0.015622","0.005459","0.016286"
0.006692,"0.016512","0.005496","0.015806"
0.006584,"0.017435","0.005540","0.015306"
0.006466,"0.018392","0.005587","0.014794"
0.006366,"0.019425","0.005635","0.014277"
0.006275,"0.020524","0.005660","0.013743"
0.006199,"0.021689","0.005647","0.013234"
0.006119,"0.022915","0.005616","0.012778"
0.006043,"0.024220","0.005582","0.012364"
0.005982,"0.025614","0.005547","0.011922"
0.005936,"0.027293","0.005512","0.011439"
0.005900,"0.029247","0.005474","0.010924"
0.005887,"0.031495","0.005439","0.010365"
0.005894,"0.033857","0.005400","0.009808"
0.005913,"0.036162","0.005357","0.009280"
0.005944,"0.038477","0.005315","0.008775"
0.005983,"0.040922","0.005276","0.008280"
0.006017,"0.043373","0.005248","0.007834"
0.006062,"0.045748","0.005232","0.007460"
0.006116,"0.048132","0.005211","0.007094"
0.006171,"0.050404","0.005202","0.006731"
0.006222,"0.052533","0.005190","0.006391"
0.006274,"0.054598","0.005178","0.006063"
0.006323,"0.056560","0.005165","0.005764"
0.006368,"0.058452","0.005145","0.005477"
0.006398,"0.060219","0.005123","0.005209"
0.006446,"0.061769","0.005106","0.004968"
0.006509,"0.063073","0.005080","0.004742"
0.006574,"0.063762","0.005006","0.004621"
0.006630,"0.063590","0.004898","0.004626"
0.006697,"0.062962","0.004795","0.004689"
0.006743,"0.061813","0.004688","0.004824"
0.006777,"0.060670","0.004599","0.004959"
0.006823,"0.059795","0.004513","0.005064"
0.006851,"0.059036","0.004426","0.005152"
0.006873,"0.058118","0.004344","0.005277"
0.006902,"0.056940","0.004265","0.005429"
0.006949,"0.056151","0.004178","0.005511"
0.006969,"0.055244","0.004098","0.005596"
0.006995,"0.054752","0.004010","0.005654"
0.007055,"0.054862","0.003911","0.005643"
0.007116,"0.054708","0.003807","0.005657"
0.007199,"0.054438","0.003705","0.005690"
0.007310,"0.054040","0.003617","0.005737"
0.007425,"0.053848","0.003526","0.005784"
0.007517,"0.053586","0.003429","0.005865"
0.007603,"0.053316","0.003341","0.005969"
0.007661,"0.053189","0.003305","0.006017"
0.007725,"0.053029","0.003295","0.006067"
0.007790,"0.053387","0.003293","0.006049"
0.007854,"0.054102","0.003292","0.005988"
0.007892,"0.054470","0.003278","0.005971"
0.007901,"0.054275","0.003274","0.006003"
0.007905,"0.053928","0.003265","0.006042"
0.007923,"0.053996","0.003257","0.006009"
0.007939,"0.054613","0.003260","0.005922"
0.007928,"0.054817","0.003275","0.005950"
0.007913,"0.054697","0.003278","0.006043"
0.007892,"0.054458","0.003296","0.006153"
0.007841,"0.053935","0.003339","0.006304"
0.007804,"0.053877","0.003391","0.006391"
0.007759,"0.053762","0.003435","0.006471"
0.007685,"0.053915","0.003481","0.006550"
0.007603,"0.053287","0.003528","0.006703"
0.007541,"0.053312","0.003591","0.006736"
0.007478,"0.053525","0.003652","0.006746"
0.007426,"0.053827","0.003698","0.006747"
0.007378,"0.054546","0.003729","0.006699"
0.007302,"0.054985","0.003757","0.006720"
0.007254,"0.055286","0.003789","0.006788"
0.007245,"0.055224","0.003827","0.006863"
0.007262,"0.055334","0.003845","0.006939"
0.007279,"0.055223","0.003866","0.007038"
0.007291,"0.054936","0.003881","0.007136"
0.007300,"0.054541","0.003893","0.007236"
0.007309,"0.054212","0.003900","0.007296"
0.007342,"0.054268","0.003913","0.007304"
0.007350,"0.054122","0.003910","0.007309"
0.007365,"0.053782","0.003890","0.007340"
0.007368,"0.053549","0.003874","0.007370"
0.007370,"0.053363","0.003868","0.007415"
0.007371,"0.052952","0.003864","0.007473"
0.007396,"0.053465","0.003868","0.007409"
0.007411,"0.053328","0.003871","0.007425"
0.007437,"0.053314","0.003880","0.007400"
0.007464,"0.053485","0.003905","0.007347"
0.007482,"0.054229","0.003952","0.007206"
0.007492,"0.054828","0.003996","0.007050"
0.007509,"0.055568","0.004042","0.006830"
0.007552,"0.056636","0.004080","0.006574"
0.007591,"0.057085","0.004107","0.006403"
0.007635,"0.057622","0.004131","0.006225"
0.007699,"0.058184","0.004147","0.006030"
0.007791,"0.058371","0.004145","0.005898"
0.007954,"0.058457","0.004136","0.005783"
0.008132,"0.058751","0.004133","0.005651"
0.008306,"0.058815","0.004123","0.005541"
0.008440,"0.058797","0.004135","0.005448"
0.008566,"0.058814","0.004144","0.005356"
0.008695,"0.059113","0.004155","0.005233"
0.008805,"0.058754","0.004165","0.005194"
0.008905,"0.058085","0.004184","0.005197"
0.008946,"0.057289","0.004192","0.005226"
0.008957,"0.056167","0.004188","0.005321"
0.008985,"0.055166","0.004176","0.005427"
0.009052,"0.053829","0.004138","0.005600"
0.009146,"0.052445","0.004100","0.005797"
0.009216,"0.050546","0.004039","0.006081"
0.009248,"0.048836","0.003989","0.006378"
0.009301,"0.047655","0.003953","0.006602"
0.009446,"0.046560","0.003917","0.006867"
0.009549,"0.045177","0.003893","0.007217"
0.009607,"0.043785","0.003887","0.007562"
0.009871,"0.042407","0.003871","0.007838"
0.010182,"0.040874","0.003841","0.008109"
0.010958,"0.039537","0.003819","0.008318"
0.012399,"0.038136","0.003739","0.008564"
0.014481,"0.036158","0.003780","0.008938"
0.017109,"0.033881","0.003959","0.009457"
0.019965,"0.032083","0.004461","0.009954"
0.023362,"0.030167","0.005236","0.010316"
0.026966,"0.028481","0.006256","0.010598"
0.030153,"0.026698","0.007875","0.010856"
0.033174,"0.024829","0.009609","0.011160"
0.035161,"0.022923","0.011805","0.011485"
0.037034,"0.021150","0.014109","0.011779"
0.038815,"0.019706","0.016606","0.012001"
0.040477,"0.018220","0.019173","0.012221"
0.041962,"0.016853","0.021789","0.012393"
0.043196,"0.015409","0.024387","0.012553"
0.044302,"0.014014","0.026948","0.012658"
0.045300,"0.012798","0.029429","0.012724"
0.045907,"0.011708","0.031885","0.012806"
0.046391,"0.010632","0.034331","0.012888"
0.046295,"0.009611","0.036774","0.013000"
0.045451,"0.008726","0.039246","0.013048"
0.043876,"0.008075","0.041587","0.012956"
0.041690,"0.007578","0.043752","0.012631"
0.039254,"0.007338","0.045545","0.012175"
0.036246,"0.007225","0.046980","0.011844"
0.033118,"0.007177","0.048090","0.011555"
0.030349,"0.007366","0.048629","0.011268"
0.027624,"0.007588","0.049004","0.010962"
0.025869,"0.007759","0.048880","0.010647"
0.024197,"0.007914","0.048605","0.010348"
0.022567,"0.008079","0.048144","0.010082"
0.020901,"0.008250","0.047548","0.009854"
0.019154,"0.008428","0.046845","0.009712"
0.017553,"0.008605","0.046056","0.009562"
0.016039,"0.008756","0.045229","0.009463"
0.014520,"0.008867","0.044467","0.009412"
0.013089,"0.008935","0.043739","0.009389"
0.011722,"0.008964","0.043010","0.009374"
0.010488,"0.009009","0.042189","0.009389"
0.009391,"0.009060","0.041209","0.009441"
0.008449,"0.009149","0.040069","0.009566"
0.007591,"0.009244","0.038863","0.009802"
0.006800,"0.009343","0.037647","0.010094"
0.006052,"0.009469","0.036485","0.010397"
0.005277,"0.009618","0.035370","0.010708"
0.004575,"0.009783","0.034204","0.011023"
0.003979,"0.010039","0.033082","0.011283"
0.003413,"0.010344","0.032005","0.011479"
0.002875,"0.010712","0.030957","0.011630"
0.002394,"0.011102","0.029894","0.011754"
0.002112,"0.011489","0.028784","0.011833"
0.002111,"0.011871","0.027587","0.011877"
0.002164,"0.012246","0.026405","0.011915"
0.002271,"0.012641","0.025283","0.011920"
0.002518,"0.013072","0.024140","0.011872"
0.002833,"0.013557","0.022901","0.011793"
0.003197,"0.014087","0.021523","0.011705"
0.003583,"0.014606","0.020167","0.011605"
0.003956,"0.015122","0.018944","0.011476"
0.004269,"0.015623","0.017889","0.011322"
0.004549,"0.016106","0.016922","0.011158"
0.004801,"0.016568","0.016012","0.010990"
0.005011,"0.017003","0.015128","0.010828"
0.005215,"0.017436","0.014281","0.010645"
0.005404,"0.017907","0.013451","0.010454"
0.005585,"0.018262","0.012603","0.010304"
0.005758,"0.018607","0.011751","0.010201"
0.005929,"0.018960","0.010915","0.010111"
0.006080,"0.019316","0.010104","0.010032"
0.006197,"0.019697","0.009379","0.009963"
0.006279,"0.020080","0.008764","0.009883"
0.006353,"0.020476","0.008199","0.009796"
0.006427,"0.020837","0.007643","0.009728"
0.006494,"0.021159","0.007111","0.009678"
0.006526,"0.021450","0.006685","0.009656"
0.006509,"0.021768","0.006415","0.009647"
0.006466,"0.022131","0.006231","0.009626"
0.006430,"0.022514","0.006075","0.009602"
0.006397,"0.023077","0.005916","0.009558"
0.006362,"0.023682","0.005756","0.009500"
0.006330,"0.024373","0.005594","0.009430"
0.006334,"0.025133","0.005428","0.009341"
0.006341,"0.025879","0.005258","0.009268"
0.006365,"0.026591","0.005095","0.009188"
0.006410,"0.027323","0.004956","0.009092"
0.006468,"0.028086","0.004833","0.008987"
0.006533,"0.028807","0.004706","0.008889"
0.006603,"0.029510","0.004577","0.008796"
0.006661,"0.030179","0.004463","0.008694"
0.006711,"0.030829","0.004383","0.008584"
0.006740,"0.031457","0.004348","0.008468"
0.006765,"0.031998","0.004317","0.008361"
0.006794,"0.032552","0.004294","0.008260"
0.006826,"0.033064","0.004265","0.008168"
0.006854,"0.033518","0.004233","0.008081"
0.006888,"0.033935","0.004197","0.008001"
0.006907,"0.034368","0.004169","0.007921"
0.006927,"0.034661","0.004142","0.007857"
0.006952,"0.034946","0.004117","0.007801"
0.006989,"0.035125","0.004090","0.007762"
0.007020,"0.035198","0.004053","0.007737"
0.007061,"0.035271","0.004012","0.007717"
0.007098,"0.035326","0.003972","0.007704"
0.007129,"0.035362","0.003933","0.007695"
0.007157,"0.035340","0.003894","0.007692"
0.007177,"0.035305","0.003862","0.007689"
0.007204,"0.035240","0.003832","0.007682"
0.007227,"0.035156","0.003804","0.007671"
0.007249,"0.035043","0.003781","0.007664"
0.007273,"0.034889","0.003752","0.007664"
0.007311,"0.034774","0.003713","0.007646"
0.007335,"0.034656","0.003671","0.007616"
0.007366,"0.034605","0.003629","0.007577"
0.007387,"0.034639","0.003582","0.007527"
0.007421,"0.034553","0.003532","0.007501"
0.007454,"0.034602","0.003486","0.007463"
0.007495,"0.034653","0.003444","0.007423"
0.007540,"0.034726","0.003405","0.007373"
0.007582,"0.034841","0.003370","0.007326"
0.007628,"0.034994","0.003339","0.007296"
0.007676,"0.035082","0.003316","0.007266"
0.007722,"0.035365","0.003292","0.007218"
0.007783,"0.035683","0.003263","0.007170"
0.007844,"0.036018","0.003230","0.007125"
0.007899,"0.036333","0.003193","0.007098"
0.007957,"0.036594","0.003157","0.007073"
0.008006,"0.036780","0.003128","0.007062"
0.008046,"0.036842","0.003095","0.007071"
0.008073,"0.036653","0.003062","0.007114"
0.008079,"0.036369","0.003043","0.007168"
0.008098,"0.035979","0.003033","0.007222"
0.008093,"0.035441","0.003030","0.007304"
0.008094,"0.034752","0.003029","0.007404"
0.008079,"0.034136","0.003029","0.007489"
0.008054,"0.033275","0.003027","0.007606"
0.008026,"0.032189","0.003033","0.007746"
0.007982,"0.031000","0.003034","0.007914"
0.007944,"0.029803","0.003046","0.008072"
0.007889,"0.028612","0.003059","0.008212"
0.007816,"0.027495","0.003068","0.008368"
0.007752,"0.026118","0.003074","0.008562"
0.007695,"0.024639","0.003084","0.008755"
0.007638,"0.023149","0.003096","0.008950"
0.007588,"0.021663","0.003105","0.009149"
0.007548,"0.020250","0.003107","0.009374"
0.007525,"0.018916","0.003091","0.009611"
0.007519,"0.017659","0.003082","0.009820"
0.007520,"0.016673","0.003081","0.010001"
0.007522,"0.015819","0.003076","0.010181"
0.007511,"0.015078","0.003057","0.010368"
0.007522,"0.014443","0.003032","0.010540"
0.007542,"0.013896","0.003007","0.010695"
0.007574,"0.013378","0.002984","0.010854"
0.007644,"0.012937","0.002961","0.010985"
0.007708,"0.012679","0.002931","0.011095"
0.007785,"0.012487","0.002909","0.011179"
0.007844,"0.012280","0.002878","0.011277"
0.007897,"0.012055","0.002853","0.011369"
0.007959,"0.011821","0.002832","0.011426"
0.008003,"0.011668","0.002812","0.011458"
0.008038,"0.011562","0.002799","0.011516"
0.008069,"0.011483","0.002785","0.011562"
0.008107,"0.011466","0.002780","0.011576"
0.008155,"0.011453","0.002772","0.011589"
0.008200,"0.011479","0.002775","0.011586"
0.008402,"0.011510","0.002773","0.011561"
0.008674,"0.011534","0.002761","0.011531"
0.008972,"0.011550","0.002751","0.011527"
0.009456,"0.011508","0.002734","0.011529"
0.009926,"0.011458","0.002723","0.011542"
0.010510,"0.011377","0.002714","0.011561"
0.011386,"0.011278","0.002674","0.011564"
0.012387,"0.011145","0.002633","0.011581"
0.013722,"0.011001","0.002580","0.011564"
0.015258,"0.010809","0.002514","0.011580"
0.016931,"0.010596","0.002445","0.011638"
0.018715,"0.010333","0.002372","0.011748"
0.020734,"0.010019","0.002290","0.011845"
0.022826,"0.009681","0.002210","0.011965"
0.024742,"0.009337","0.002180","0.012161"
0.026588,"0.008967","0.002217","0.012364"
0.028505,"0.008516","0.002276","0.012645"
0.030694,"0.008057","0.002373","0.012902"
0.033059,"0.007566","0.002458","0.013166"
0.035107,"0.007125","0.002599","0.013480"
0.036969,"0.006722","0.002806","0.013826"
0.038832,"0.006344","0.003048","0.014171"
0.040276,"0.005996","0.003391","0.014560"
0.041729,"0.005649","0.003755","0.014947"
0.043020,"0.005321","0.004166","0.015400"
0.044168,"0.005002","0.004650","0.015839"
0.045076,"0.004696","0.005220","0.016284"
0.045637,"0.004406","0.005808","0.016729"
0.046084,"0.004164","0.006328","0.017093"
0.046462,"0.003958","0.006790","0.017374"
0.046523,"0.003855","0.007252","0.017569"
0.045953,"0.003808","0.007719","0.017866"
0.045411,"0.003774","0.008175","0.018106"
0.045090,"0.003775","0.008550","0.018235"
0.045053,"0.003761","0.008832","0.018285"
0.044878,"0.003788","0.009071","0.018222"
0.044271,"0.003861","0.009193","0.018139"
0.043404,"0.003962","0.009345","0.017980"
0.042596,"0.004093","0.009397","0.017692"
0.041873,"0.004219","0.009386","0.017354"
0.041087,"0.004348","0.009327","0.017017"
0.040549,"0.004464","0.009189","0.016693"
0.039911,"0.004567","0.009040","0.016411"
0.039436,"0.004643","0.008938","0.016048"
0.038869,"0.004755","0.008814","0.015622"
0.038464,"0.004860","0.008598","0.015156"
0.038260,"0.004949","0.008368","0.014688"
0.037907,"0.005015","0.008218","0.014286"
0.037403,"0.005082","0.008136","0.013920"
0.037083,"0.005100","0.008064","0.013592"
0.037000,"0.005117","0.008015","0.013204"
0.036628,"0.005162","0.007966","0.012898"
0.036067,"0.005209","0.007936","0.012641"
0.035223,"0.005282","0.007942","0.012518"
0.034427,"0.005333","0.007997","0.012435"
0.033760,"0.005342","0.008145","0.012401"
0.033174,"0.005326","0.008282","0.012443"
0.032676,"0.005296","0.008464","0.012586"
0.032186,"0.005273","0.008635","0.012740"
0.031666,"0.005273","0.008835","0.012866"
0.031121,"0.005288","0.009048","0.012955"
0.030679,"0.005326","0.009238","0.012989"
0.030026,"0.005403","0.009320","0.013038"
0.029173,"0.005466","0.009347","0.013183"
0.028159,"0.005558","0.009356","0.013362"
0.026941,"0.005644","0.009363","0.013588"
0.025775,"0.005741","0.009359","0.013804"
0.024697,"0.005830","0.009350","0.013972"
0.023643,"0.005926","0.009346","0.014141"
0.022756,"0.006031","0.009321","0.014264"
0.022013,"0.006130","0.009274","0.014360"
0.021276,"0.006246","0.009179","0.014429"
0.020543,"0.006379","0.009065","0.014440"
0.019806,"0.006515","0.008912","0.014451"
0.018978,"0.006670","0.008764","0.014455"
0.017986,"0.006836","0.008622","0.014477"
0.016932,"0.006999","0.008491","0.014537"
0.015913,"0.007140","0.008371","0.014621"
0.014968,"0.007249","0.008229","0.014706"
0.014042,"0.007344","0.008045","0.014860"
0.013118,"0.007425","0.007865","0.015065"
0.012272,"0.007494","0.007697","0.015282"
0.011567,"0.007566","0.007550","0.015467"
0.010949,"0.007633","0.007389","0.015646"
0.010355,"0.007704","0.007229","0.015799"
0.009774,"0.007769","0.007074","0.015953"
0.009201,"0.007821","0.006914","0.016165"
0.008636,"0.007849","0.006734","0.016390"
0.008070,"0.007846","0.006529","0.016652"
0.007576,"0.007829","0.006346","0.016878"
0.007203,"0.007793","0.006219","0.017073"
0.006893,"0.007740","0.006115","0.017269"
0.006601,"0.007712","0.006019","0.017479"
0.006403,"0.007670","0.005925","0.017674"
0.006371,"0.007623","0.005848","0.017811"
0.006392,"0.007573","0.005770","0.017899"
0.006403,"0.007541","0.005683","0.017962"
0.006406,"0.007520","0.005587","0.018012"
0.006409,"0.007510","0.005501","0.017964"
0.006404,"0.007504","0.005417","0.017867"
0.006405,"0.007488","0.005336","0.017762"
0.006404,"0.007457","0.005249","0.017690"
0.006409,"0.007428","0.005185","0.017627"
0.006409,"0.007415","0.005127","0.017584"
0.006399,"0.007392","0.005068","0.017544"
0.006391,"0.007391","0.005008","0.017467"
0.006381,"0.007471","0.004948","0.017348"
0.006367,"0.007585","0.004916","0.017221"
0.006332,"0.007725","0.004900","0.017032"
0.006305,"0.007865","0.004888","0.016801"
0.006292,"0.008005","0.004868","0.016551"
0.006273,"0.008188","0.004853","0.016266"
0.006270,"0.008450","0.004823","0.015957"
0.006274,"0.008786","0.004771","0.015658"
0.006279,"0.009185","0.004722","0.015356"
0.006278,"0.009617","0.004709","0.015045"
0.006275,"0.010052","0.004720","0.014744"
0.006267,"0.010494","0.004742","0.014446"
0.006270,"0.010999","0.004769","0.014137"
0.006276,"0.011569","0.004789","0.013823"
0.006286,"0.012156","0.004818","0.013484"
0.006289,"0.012782","0.004858","0.013123"
0.006296,"0.013443","0.004890","0.012754"
0.006307,"0.014148","0.004903","0.012392"
0.006326,"0.014926","0.004917","0.012047"
0.006349,"0.015750","0.004937","0.011723"
0.006358,"0.016686","0.004961","0.011393"
0.006380,"0.017644","0.004983","0.011141"
0.006395,"0.018677","0.005008","0.010931"
0.006400,"0.019716","0.005051","0.010732"
0.006398,"0.020777","0.005099","0.010549"
0.006392,"0.021796","0.005153","0.010365"
0.006389,"0.022793","0.005202","0.010182"
0.006402,"0.023823","0.005245","0.010000"
0.006424,"0.024878","0.005253","0.009826"
0.006446,"0.025972","0.005255","0.009649"
0.006473,"0.027130","0.005254","0.009457"
0.006507,"0.028383","0.005247","0.009242"
0.006542,"0.029709","0.005242","0.009013"
0.006568,"0.031196","0.005243","0.008781"
0.006607,"0.032671","0.005236","0.008561"
0.006640,"0.034195","0.005242","0.008335"
0.006678,"0.035740","0.005269","0.008096"
0.006711,"0.037260","0.005293","0.007860"
0.006753,"0.038664","0.005290","0.007629"
0.006816,"0.039868","0.005271","0.007412"
0.006862,"0.041007","0.005252","0.007197"
0.006909,"0.041954","0.005227","0.007008"
0.006977,"0.043487","0.005143","0.006791"
0.007060,"0.045142","0.005029","0.006618"
0.007114,"0.046886","0.004913","0.006471"
0.007144,"0.048220","0.004804","0.006384"
0.007148,"0.049150","0.004682","0.006368"
0.007141,"0.050095","0.004566","0.006365"
0.007162,"0.051096","0.004445","0.006372"
0.007198,"0.052357","0.004320","0.006354"
0.007226,"0.052963","0.004186","0.006417"
0.007245,"0.052921","0.004064","0.006548"
0.007273,"0.052432","0.003950","0.006681"
0.007312,"0.051906","0.003844","0.006815"
0.007365,"0.051318","0.003739","0.006939"
0.007425,"0.050756","0.003624","0.007033"
0.007486,"0.050123","0.003517","0.007124"
0.007531,"0.049170","0.003428","0.007268"
0.007565,"0.048189","0.003357","0.007401"
0.007595,"0.047738","0.003302","0.007457"
0.007644,"0.047489","0.003235","0.007511"
0.007668,"0.046555","0.003215","0.007619"
0.007664,"0.045701","0.003211","0.007676"
0.007679,"0.045080","0.003203","0.007695"
0.007707,"0.044776","0.003190","0.007683"
0.007740,"0.044870","0.003190","0.007622"
0.007780,"0.044925","0.003188","0.007558"
0.007818,"0.045088","0.003169","0.007477"
0.007826,"0.045076","0.003166","0.007395"
0.007843,"0.045861","0.003178","0.007234"
0.007891,"0.046902","0.003176","0.007051"
0.007908,"0.047976","0.003170","0.006911"
0.007907,"0.049494","0.003184","0.006738"
0.007901,"0.050917","0.003195","0.006582"
0.007887,"0.052336","0.003220","0.006458"
0.007851,"0.053253","0.003255","0.006403"
0.007812,"0.054255","0.003291","0.006323"
0.007776,"0.055231","0.003307","0.006285"
0.007739,"0.055860","0.003308","0.006307"
0.007723,"0.056297","0.003330","0.006310"
0.007741,"0.056550","0.003329","0.006299"
0.007760,"0.056558","0.003336","0.006309"
0.007803,"0.056610","0.003336","0.006298"
0.007855,"0.056734","0.003329","0.006251"
0.007929,"0.056854","0.003321","0.006195"
0.008022,"0.057005","0.003324","0.006084"
0.008091,"0.056656","0.003353","0.006014"
0.008133,"0.056093","0.003368","0.006022"
0.008154,"0.055250","0.003381","0.006069"
0.008153,"0.054577","0.003401","0.006118"
0.008156,"0.053570","0.003416","0.006204"
0.008160,"0.052414","0.003424","0.006289"
0.008167,"0.051165","0.003435","0.006390"
0.008170,"0.049724","0.003440","0.006510"
0.008193,"0.049012","0.003416","0.006568"
0.008229,"0.048736","0.003406","0.006571"
0.008258,"0.048496","0.003404","0.006536"
0.008326,"0.048089","0.003394","0.006519"
0.008361,"0.047904","0.003381","0.006493"
0.008421,"0.048125","0.003383","0.006445"
0.008484,"0.048269","0.003374","0.006407"
0.008524,"0.047828","0.003367","0.006458"
0.008578,"0.047567","0.003387","0.006475"
0.008618,"0.047049","0.003407","0.006524"
0.008658,"0.046579","0.003416","0.006644"
0.008714,"0.046861","0.003420","0.006659"
0.008822,"0.047086","0.003425","0.006653"
0.008930,"0.047192","0.003430","0.006654"
0.009064,"0.047709","0.003446","0.006636"
0.009227,"0.049001","0.003476","0.006518"
0.009382,"0.049561","0.003487","0.006495"
0.009551,"0.050385","0.003489","0.006430"
0.009724,"0.051151","0.003495","0.006373"
0.009886,"0.051486","0.003516","0.006382"
0.010125,"0.052009","0.003551","0.006386"
0.010348,"0.052399","0.003598","0.006429"
0.010521,"0.052546","0.003647","0.006455"
0.010692,"0.052496","0.003682","0.006572"
0.010961,"0.053118","0.003729","0.006636"
0.011250,"0.053862","0.003783","0.006804"
0.011517,"0.054684","0.003844","0.007036"
0.011781,"0.055441","0.003890","0.007349"
0.011959,"0.055857","0.003960","0.007754"
0.012147,"0.056115","0.004026","0.008182"
0.012396,"0.055697","0.004082","0.008767"
0.013039,"0.055306","0.004127","0.009281"
0.013576,"0.054266","0.004151","0.009903"
0.014187,"0.052683","0.004155","0.010439"
0.015526,"0.050854","0.004106","0.010829"
0.016875,"0.049101","0.004066","0.011239"
0.019061,"0.047063","0.003946","0.011634"
0.021266,"0.045114","0.003812","0.012083"
0.023808,"0.043289","0.003675","0.012493"
0.026398,"0.041077","0.003691","0.012889"
0.029358,"0.039049","0.003785","0.013276"
0.032347,"0.037202","0.004067","0.013769"
0.035379,"0.035377","0.004545","0.014162"
0.038271,"0.032769","0.005163","0.014506"
0.040933,"0.030187","0.005802","0.014662"
0.043822,"0.027801","0.006427","0.014645"
0.046723,"0.025351","0.007046","0.014535"
0.049498,"0.023560","0.007658","0.014282"
0.052138,"0.021820","0.008311","0.013913"
0.054443,"0.020268","0.009001","0.013460"
0.056144,"0.018700","0.009736","0.013100"
0.058045,"0.017811","0.010425","0.012619"
0.059870,"0.017104","0.011204","0.012101"
0.061148,"0.016432","0.011992","0.011690"
0.062436,"0.016163","0.012716","0.011165"
0.062720,"0.016105","0.013488","0.010677"
0.062571,"0.016221","0.014176","0.010162"
0.061775,"0.016489","0.014916","0.009665"
0.060831,"0.016733","0.015450","0.009222"
0.059618,"0.017009","0.015797","0.008750"
0.058416,"0.017330","0.015959","0.008194"
0.056955,"0.017666","0.016021","0.007673"
0.055155,"0.017983","0.016070","0.007289"
0.053597,"0.018111","0.016188","0.006960"
0.051820,"0.017977","0.016328","0.006741"
0.050019,"0.017734","0.016458","0.006613"
0.048687,"0.017316","0.016525","0.006474"
0.047510,"0.016906","0.016382","0.006425"
0.046282,"0.016579","0.016227","0.006407"
0.044986,"0.016483","0.015963","0.006412"
0.043422,"0.016525","0.015722","0.006478"
0.041887,"0.016542","0.015492","0.006628"
0.040475,"0.016614","0.015287","0.006770"
0.039190,"0.016740","0.015076","0.006949"
0.037998,"0.016760","0.014876","0.007156"
0.037216,"0.016685","0.014780","0.007321"
0.036826,"0.016537","0.014671","0.007429"
0.036499,"0.016404","0.014595","0.007552"
0.036007,"0.016272","0.014592","0.007731"
0.035385,"0.016136","0.014477","0.007929"
0.034793,"0.016057","0.014173","0.008179"
0.034525,"0.015999","0.013721","0.008400"
0.034230,"0.016030","0.013179","0.008614"
0.033710,"0.016259","0.012661","0.008832"
0.033105,"0.016529","0.012170","0.009036"
0.032215,"0.016809","0.011782","0.009270"
0.031254,"0.016943","0.011577","0.009516"
0.030588,"0.016952","0.011360","0.009735"
0.030064,"0.016859","0.011099","0.009903"
0.029450,"0.016656","0.010873","0.010087"
0.028540,"0.016380","0.010626","0.010321"
0.027305,"0.016016","0.010418","0.010638"
0.025932,"0.015521","0.010271","0.010982"
0.024530,"0.015074","0.010179","0.011330"
0.022907,"0.014641","0.010078","0.011701"
0.021204,"0.014227","0.009952","0.012074"
0.019439,"0.013806","0.009847","0.012431"
0.017788,"0.013413","0.009730","0.012737"
0.016250,"0.013044","0.009731","0.013034"
0.014887,"0.012657","0.009825","0.013302"
0.013539,"0.012248","0.009904","0.013610"
0.012203,"0.011824","0.009968","0.013941"
0.011123,"0.011374","0.009945","0.014228"
0.010143,"0.010907","0.009880","0.014506"
0.009183,"0.010452","0.009754","0.014800"
0.008261,"0.010136","0.009614","0.015051"
0.007354,"0.009890","0.009459","0.015284"
0.006578,"0.009621","0.009388","0.015508"
0.006104,"0.009393","0.009266","0.015663"
0.005871,"0.009295","0.009058","0.015770"
0.005675,"0.009264","0.008776","0.015854"
0.005497,"0.009279","0.008469","0.015900"
0.005414,"0.009322","0.008125","0.015895"
0.005557,"0.009366","0.007752","0.015844"
0.005703,"0.009394","0.007367","0.015793"
0.005850,"0.009425","0.006958","0.015725"
0.005984,"0.009433","0.006582","0.015640"
0.006115,"0.009453","0.006202","0.015519"
0.006238,"0.009560","0.005834","0.015357"
0.006353,"0.009694","0.005502","0.015175"
0.006454,"0.009866","0.005192","0.014985"
0.006541,"0.010104","0.004934","0.014772"
0.006616,"0.010408","0.004711","0.014535"
0.006691,"0.010765","0.004513","0.014262"
0.006755,"0.011143","0.004328","0.014001"
0.006813,"0.011554","0.004148","0.013756"
0.006860,"0.012013","0.004006","0.013505"
0.006872,"0.012537","0.003920","0.013244"
0.006890,"0.013263","0.003849","0.012964"
0.006948,"0.014080","0.003821","0.012795"
0.007009,"0.015069","0.003828","0.012626"
0.007045,"0.016184","0.003857","0.012454"
0.007079,"0.017445","0.003925","0.012277"
0.007119,"0.018885","0.003997","0.012082"
0.007189,"0.020547","0.004076","0.011864"
0.007261,"0.022352","0.004148","0.011636"
0.007354,"0.024258","0.004218","0.011396"
0.007460,"0.026448","0.004274","0.011113"
0.007585,"0.029226","0.004323","0.010756"
0.007726,"0.032189","0.004364","0.010371"
0.007876,"0.035050","0.004386","0.010027"
0.008033,"0.037865","0.004394","0.009709"
0.008190,"0.040721","0.004401","0.009406"
0.008354,"0.043526","0.004413","0.009096"
0.008510,"0.046385","0.004438","0.008773"
0.008595,"0.049569","0.004477","0.008326"
0.008702,"0.052565","0.004496","0.007950"
0.008806,"0.055059","0.004503","0.007720"
0.008833,"0.057689","0.004507","0.007464"
0.008827,"0.059588","0.004500","0.007351"
0.008830,"0.061338","0.004458","0.007310"
0.008870,"0.062602","0.004379","0.007364"
0.008944,"0.063921","0.004285","0.007403"
0.008978,"0.065165","0.004199","0.007436"
0.008989,"0.066105","0.004133","0.007408"
0.009000,"0.066568","0.004082","0.007378"
0.009009,"0.066658","0.004023","0.007356"
0.008986,"0.066467","0.003954","0.007357"
0.008947,"0.066784","0.003897","0.007262"
0.008863,"0.066373","0.003866","0.007221"
0.008781,"0.065944","0.003828","0.007182"
0.008694,"0.065547","0.003780","0.007168"
0.008585,"0.064843","0.003710","0.007178"
0.008475,"0.063831","0.003644","0.007231"
0.008423,"0.062097","0.003574","0.007454"
0.008347,"0.059926","0.003512","0.007684"
0.008254,"0.058068","0.003470","0.007831"
0.008198,"0.056645","0.003432","0.007827"
0.008162,"0.055679","0.003398","0.007701"
0.008130,"0.054905","0.003382","0.007509"
0.008066,"0.054605","0.003390","0.007217"
0.007979,"0.054318","0.003420","0.006925"
0.007900,"0.053875","0.003446","0.006686"
0.007823,"0.053280","0.003453","0.006552"
0.007750,"0.053255","0.003452","0.006432"
0.007711,"0.053289","0.003456","0.006349"
0.007689,"0.052973","0.003470","0.006309"
0.007676,"0.051733","0.003463","0.006423"
0.007726,"0.051409","0.003449","0.006451"
0.007778,"0.051260","0.003451","0.006473"
0.007847,"0.051074","0.003447","0.006464"
0.007904,"0.050316","0.003464","0.006520"
0.007966,"0.049883","0.003466","0.006541"
0.008076,"0.050195","0.003450","0.006483"
0.008184,"0.050902","0.003439","0.006351"
0.008288,"0.051493","0.003439","0.006182"
0.008388,"0.051463","0.003434","0.006066"
0.008506,"0.051537","0.003433","0.005937"
0.008629,"0.051673","0.003435","0.005819"
0.008751,"0.051486","0.003433","0.005761"
0.008828,"0.050864","0.003438","0.005757"
0.008904,"0.050171","0.003440","0.005761"
0.008987,"0.049898","0.003430","0.005735"
0.009032,"0.049569","0.003422","0.005700"
0.008991,"0.048862","0.003431","0.005734"
0.008954,"0.048213","0.003433","0.005762"
0.008903,"0.047791","0.003434","0.005766"
0.008813,"0.047286","0.003446","0.005787"
0.008704,"0.046528","0.003456","0.005838"
0.008609,"0.045657","0.003461","0.005883"
0.008523,"0.045395","0.003459","0.005886"
0.008474,"0.045283","0.003445","0.005858"
0.008381,"0.044508","0.003451","0.005914"
0.008309,"0.043974","0.003467","0.005970"
0.008257,"0.043195","0.003467","0.006119"
0.008194,"0.042221","0.003475","0.006321"
0.008113,"0.041286","0.003486","0.006508"
0.008023,"0.040427","0.003493","0.006691"
0.007923,"0.039536","0.003501","0.006885"
0.007876,"0.039206","0.003500","0.007002"
0.007838,"0.039274","0.003498","0.007062"
0.007802,"0.039302","0.003503","0.007088"
0.007788,"0.039699","0.003511","0.007104"
0.007819,"0.040237","0.003507","0.007121"
0.007863,"0.040533","0.003504","0.007156"
0.007943,"0.041518","0.003502","0.007098"
0.008040,"0.042098","0.003482","0.007062"
0.008129,"0.042731","0.003474","0.007018"
0.008189,"0.043027","0.003473","0.007056"
0.008271,"0.043126","0.003447","0.007148"
0.008340,"0.043422","0.003427","0.007240"
0.008404,"0.043751","0.003396","0.007330"
0.008469,"0.043652","0.003362","0.007466"
0.008524,"0.043920","0.003321","0.007528"
0.008602,"0.044206","0.003263","0.007582"
0.008668,"0.044549","0.003216","0.007605"
0.008708,"0.044868","0.003195","0.007551"
0.008737,"0.044768","0.003191","0.007506"
0.008779,"0.044185","0.003184","0.007520"
0.008959,"0.043130","0.003170","0.007613"
0.009184,"0.041982","0.003170","0.007740"
0.009568,"0.040235","0.003156","0.007886"
0.010611,"0.038526","0.003109","0.007931"
0.011724,"0.036770","0.003058","0.008014"
0.013539,"0.034183","0.002982","0.008253"
0.015777,"0.031866","0.002968","0.008499"
0.018310,"0.029380","0.003019","0.008840"
0.021487,"0.027038","0.003373","0.009247"
0.025254,"0.025020","0.003857","0.009606"
0.029156,"0.022678","0.004606","0.009917"
0.032791,"0.020603","0.005500","0.010236"
0.035767,"0.018968","0.006627","0.010397"
0.038786,"0.017334","0.007798","0.010525"
0.041644,"0.015854","0.008812","0.010501"
0.043666,"0.014395","0.009727","0.010422"
0.045608,"0.012708","0.010669","0.010411"
0.047543,"0.011678","0.011662","0.010342"
0.049277,"0.010742","0.012642","0.010339"
0.050724,"0.009921","0.013501","0.010370"
0.052009,"0.009129","0.014303","0.010422"
0.053262,"0.008424","0.015027","0.010462"
0.054108,"0.007831","0.015752","0.010492"
0.054833,"0.007469","0.016509","0.010450"
0.054809,"0.007248","0.017344","0.010330"
0.054336,"0.007080","0.018193","0.010180"
0.053462,"0.007101","0.018917","0.009962"
0.051726,"0.007360","0.019244","0.009659"
0.049140,"0.007794","0.019427","0.009289"
0.046320,"0.008108","0.019343","0.008987"
0.043803,"0.008383","0.019121","0.008646"
0.042101,"0.008563","0.018673","0.008388"
0.040186,"0.008762","0.018184","0.008201"
0.038388,"0.008923","0.017811","0.008162"
0.037426,"0.008952","0.017515","0.008222"
0.036573,"0.008927","0.017129","0.008317"
0.035613,"0.008829","0.016560","0.008460"
0.034496,"0.008730","0.015973","0.008583"
0.033471,"0.008669","0.015535","0.008612"
0.032448,"0.008607","0.015149","0.008635"
0.031259,"0.008526","0.014884","0.008683"
0.029775,"0.008474","0.014655","0.008786"
0.028050,"0.008437","0.014402","0.008967"
0.026330,"0.008390","0.014056","0.009192"
0.024652,"0.008351","0.013564","0.009433"
0.023127,"0.008319","0.013077","0.009693"
0.021955,"0.008329","0.012550","0.009995"
0.021054,"0.008338","0.012090","0.010396"
0.020222,"0.008371","0.011668","0.010862"
0.019414,"0.008427","0.011251","0.011343"
0.018461,"0.008514","0.010810","0.011872"
0.017452,"0.008586","0.010367","0.012455"
0.016386,"0.008645","0.010057","0.013048"
0.015314,"0.008735","0.009780","0.013648"
0.014255,"0.008805","0.009542","0.014285"
0.013324,"0.008919","0.009424","0.014890"
0.012720,"0.009066","0.009362","0.015460"
0.012180,"0.009232","0.009264","0.016102"
0.011791,"0.009422","0.009134","0.016737"
0.011443,"0.009612","0.008976","0.017413"
0.011162,"0.009824","0.008791","0.018117"
0.011183,"0.010046","0.008580","0.018785"
0.011237,"0.010266","0.008416","0.019447"
0.011273,"0.010487","0.008333","0.020100"
0.011270,"0.010720","0.008302","0.020722"
0.011120,"0.010923","0.008400","0.021248"
0.010881,"0.011107","0.008460","0.021647"
0.010660,"0.011217","0.008459","0.021928"
0.010373,"0.011301","0.008429","0.022164"
0.010037,"0.011342","0.008402","0.022364"
0.009909,"0.011341","0.008398","0.022450"
0.009858,"0.011350","0.008314","0.022482"
0.009810,"0.011324","0.008147","0.022467"
0.009743,"0.011302","0.007946","0.022427"
0.009647,"0.011280","0.007732","0.022406"
0.009542,"0.011238","0.007492","0.022398"
0.009451,"0.011201","0.007244","0.022361"
0.009340,"0.011134","0.007020","0.022282"
0.009204,"0.011043","0.006794","0.022171"
0.009049,"0.010939","0.006592","0.021999"
0.008846,"0.010817","0.006412","0.021783"
0.008628,"0.010696","0.006227","0.021534"
0.008403,"0.010574","0.006048","0.021254"
0.008176,"0.010454","0.005860","0.020922"
0.007970,"0.010306","0.005661","0.020567"
0.007860,"0.010203","0.005461","0.020212"
0.007760,"0.010141","0.005293","0.019906"
0.007699,"0.010171","0.005131","0.019574"
0.007674,"0.010295","0.004986","0.019205"
0.007666,"0.010467","0.004828","0.018823"
0.007654,"0.010658","0.004665","0.018462"
0.007642,"0.010893","0.004546","0.018126"
0.007616,"0.011191","0.004481","0.017773"
0.007616,"0.011589","0.004427","0.017350"
0.007640,"0.012028","0.004369","0.016852"
0.007649,"0.012550","0.004334","0.016277"
0.007645,"0.013095","0.004311","0.015705"
0.007657,"0.013699","0.004283","0.015117"
0.007680,"0.014376","0.004259","0.014543"
0.007725,"0.015277","0.004227","0.013966"
0.007788,"0.016308","0.004194","0.013364"
0.007844,"0.017367","0.004159","0.012774"
0.007901,"0.018489","0.004119","0.012196"
0.007951,"0.019690","0.004085","0.011640"
0.007987,"0.020889","0.004068","0.011115"
0.007997,"0.022169","0.004050","0.010609"
0.007983,"0.023614","0.004057","0.010120"
0.007947,"0.025229","0.004068","0.009660"
0.007908,"0.026878","0.004068","0.009236"
0.007868,"0.028507","0.004076","0.008836"
0.007835,"0.030175","0.004088","0.008440"
0.007814,"0.031902","0.004082","0.008035"
0.007799,"0.033543","0.004064","0.007667"
0.007771,"0.035251","0.004040","0.007350"
0.007736,"0.037005","0.004020","0.007068"
0.007704,"0.038837","0.003998","0.006804"
0.007669,"0.040658","0.003977","0.006565"
0.007634,"0.042252","0.003950","0.006380"
0.007599,"0.043505","0.003929","0.006253"
0.007565,"0.044734","0.003910","0.006160"
0.007544,"0.045903","0.003864","0.006091"
0.007528,"0.046504","0.003823","0.006077"
0.007527,"0.047035","0.003784","0.006073"
0.007548,"0.048035","0.003728","0.006038"
0.007581,"0.048863","0.003674","0.006012"
0.007613,"0.049247","0.003605","0.006048"
0.007688,"0.049470","0.003532","0.006060"
0.007756,"0.049580","0.003464","0.006092"
0.007826,"0.049710","0.003401","0.006100"
0.007892,"0.049728","0.003349","0.006126"
0.007962,"0.049616","0.003313","0.006148"
0.008017,"0.049440","0.003278","0.006207"
0.008067,"0.049121","0.003256","0.006263"
0.008093,"0.048061","0.003239","0.006417"
0.008132,"0.046888","0.003225","0.006579"
0.008158,"0.045691","0.003213","0.006744"
0.008152,"0.044531","0.003209","0.006899"
0.008143,"0.043750","0.003209","0.006979"
0.008113,"0.042919","0.003210","0.007041"
0.008077,"0.042402","0.003237","0.007050"
0.008060,"0.042279","0.003266","0.007033"
0.008040,"0.042143","0.003300","0.007017"
0.008002,"0.041409","0.003338","0.007065"
0.007966,"0.040936","0.003375","0.007073"
0.007944,"0.040978","0.003404","0.007013"
0.007905,"0.041086","0.003445","0.006978"
0.007878,"0.041505","0.003481","0.006874"
0.007854,"0.041596","0.003507","0.006828"
0.007827,"0.041727","0.003530","0.006814"
0.007810,"0.041634","0.003525","0.006840"
0.007809,"0.041615","0.003524","0.006874"
0.007833,"0.041995","0.003509","0.006884"
0.007886,"0.043168","0.003495","0.006807"
0.007936,"0.044453","0.003475","0.006765"
0.007987,"0.045510","0.003453","0.006751"
0.008062,"0.046601","0.003418","0.006743"
0.008138,"0.047297","0.003391","0.006829"
0.008249,"0.048466","0.003372","0.006920"
0.008356,"0.049781","0.003361","0.006973"
0.008462,"0.051351","0.003354","0.006979"
0.008558,"0.053020","0.003345","0.006947"
0.008626,"0.054397","0.003346","0.006981"
0.008694,"0.055671","0.003343","0.007021"
0.008757,"0.056333","0.003355","0.007117"
0.008800,"0.057097","0.003352","0.007230"
0.008854,"0.057824","0.003359","0.007408"
0.008902,"0.058721","0.003361","0.007526"
0.008927,"0.059070","0.003372","0.007670"
0.008946,"0.059215","0.003386","0.007865"
0.008934,"0.059385","0.003420","0.008029"
0.008909,"0.059534","0.003469","0.008194"
0.008890,"0.059785","0.003502","0.008324"
0.008843,"0.059584","0.003534","0.008494"
0.008833,"0.059851","0.003557","0.008636"
0.008847,"0.060178","0.003591","0.008729"
0.008872,"0.060533","0.003619","0.008753"
0.008886,"0.060740","0.003645","0.008728"
0.008901,"0.060533","0.003679","0.008827"
0.008889,"0.060147","0.003712","0.008964"
0.008895,"0.059389","0.003736","0.009164"
0.008919,"0.058717","0.003745","0.009313"
0.008951,"0.057736","0.003757","0.009501"
0.008981,"0.057028","0.003768","0.009715"
0.009013,"0.055828","0.003804","0.009983"
0.009011,"0.054313","0.003837","0.010237"
0.008992,"0.052829","0.003872","0.010534"
0.009022,"0.051673","0.003891","0.010799"
0.009041,"0.050944","0.003909","0.010969"
0.009091,"0.050036","0.003917","0.011148"
0.009126,"0.048984","0.003917","0.011338"
0.009136,"0.047751","0.003927","0.011570"
0.009351,"0.046911","0.003924","0.011707"
0.009710,"0.045842","0.003928","0.011726"
0.010061,"0.044813","0.003923","0.011736"
0.010405,"0.044167","0.003909","0.011726"
0.010719,"0.043033","0.003897","0.011810"
0.011049,"0.042160","0.003865","0.011809"
0.011397,"0.041469","0.003812","0.011760"
0.011735,"0.040995","0.003765","0.011695"
0.012066,"0.040568","0.003731","0.011658"
0.012554,"0.040250","0.003692","0.011569"
0.013293,"0.039696","0.003635","0.011485"
0.014450,"0.039253","0.003524","0.011372"
0.015756,"0.038579","0.003389","0.011380"
0.017828,"0.037668","0.003220","0.011292"
0.020456,"0.036895","0.003170","0.011343"
0.023474,"0.035538","0.003197","0.011532"
0.027084,"0.034183","0.003267","0.011659"
0.031231,"0.032652","0.003547","0.011728"
0.035622,"0.030990","0.003965","0.011755"
0.040216,"0.029282","0.004405","0.011814"
0.044369,"0.027626","0.005011","0.011999"
0.048133,"0.025956","0.005742","0.012224"
0.051607,"0.024038","0.006762","0.012427"
0.054782,"0.022202","0.007775","0.012552"
0.057496,"0.020096","0.008733","0.012520"
0.060149,"0.017857","0.009769","0.012430"
0.062441,"0.015701","0.010872","0.012351"
0.064634,"0.013806","0.011956","0.012224"
0.066520,"0.012090","0.012930","0.012120"
0.067912,"0.010683","0.013832","0.012025"
0.068932,"0.009435","0.014618","0.011923"
0.069866,"0.008504","0.015552","0.011620"
0.069764,"0.007933","0.016614","0.011340"
0.068684,"0.007402","0.017618","0.010954"
0.067090,"0.007453","0.018482","0.010436"
0.064796,"0.007607","0.019380","0.009979"
0.062014,"0.007738","0.020091","0.009574"
0.059345,"0.007914","0.020415","0.009171"
0.056390,"0.008101","0.020603","0.008762"
0.053660,"0.008233","0.020628","0.008322"
0.051019,"0.008350","0.020615","0.007910"
0.048485,"0.008456","0.020351","0.007580"
0.046298,"0.008578","0.020098","0.007272"
0.044665,"0.008702","0.019800","0.007145"
0.043031,"0.008810","0.019360","0.007129"
0.041683,"0.008888","0.018823","0.007123"
0.040182,"0.008957","0.018306","0.007168"
0.038768,"0.008865","0.017913","0.007243"
0.037489,"0.008693","0.017606","0.007267"
0.035931,"0.008510","0.017343","0.007343"
0.034249,"0.008370","0.016875","0.007530"
0.032877,"0.008226","0.016280","0.007757"
0.031932,"0.008110","0.015639","0.007908"
0.031152,"0.008020","0.014990","0.008053"
0.030434,"0.007961","0.014263","0.008165"
0.029412,"0.007930","0.013513","0.008350"
0.027954,"0.007891","0.013011","0.008588"
0.026343,"0.007841","0.012672","0.008878"
0.024767,"0.007810","0.012367","0.009179"
0.023472,"0.007789","0.011962","0.009474"
0.022330,"0.007749","0.011525","0.009790"
0.020959,"0.007721","0.011038","0.010195"
0.019433,"0.007686","0.010643","0.010632"
0.018004,"0.007647","0.010333","0.011044"
0.016729,"0.007628","0.010058","0.011415"
0.015745,"0.007636","0.009788","0.011737"
0.014844,"0.007790","0.009517","0.012041"
0.014378,"0.008002","0.009266","0.012299"
0.014412,"0.008202","0.009119","0.012487"
0.014556,"0.008375","0.009085","0.012641"
0.014668,"0.008546","0.009040","0.012854"
0.014734,"0.008726","0.008986","0.013128"
0.014765,"0.008901","0.009021","0.013431"
0.014824,"0.009085","0.009060","0.013748"
0.015132,"0.009254","0.009106","0.014034"
0.015555,"0.009402","0.009114","0.014293"
0.016054,"0.009552","0.009033","0.014547"
0.016563,"0.009674","0.008920","0.014816"
0.017075,"0.009780","0.008850","0.015025"
0.017607,"0.009891","0.008786","0.015195"
0.018336,"0.010020","0.008770","0.015294"
0.019102,"0.010159","0.008760","0.015345"
0.019707,"0.010297","0.008735","0.015412"
0.020207,"0.010397","0.008692","0.015491"
0.020683,"0.010447","0.008626","0.015571"
0.020884,"0.010417","0.008528","0.015767"
0.020419,"0.010347","0.008408","0.016035"
0.019636,"0.010286","0.008262","0.016298"
0.018831,"0.010227","0.008078","0.016541"
0.018053,"0.010174","0.007940","0.016701"
0.017294,"0.010117","0.007789","0.016794"
0.016541,"0.010060","0.007622","0.016859"
0.015809,"0.009984","0.007455","0.016904"
0.015079,"0.009917","0.007280","0.016927"
0.014327,"0.009862","0.007140","0.016912"
0.013572,"0.009822","0.007035","0.016799"
0.012808,"0.009790","0.006949","0.016717"
0.012044,"0.009768","0.006839","0.016686"
0.011274,"0.009720","0.006718","0.016662"
0.010480,"0.009660","0.006594","0.016642"
0.009707,"0.009584","0.006468","0.016640"
0.009057,"0.009498","0.006357","0.016609"
0.008421,"0.009548","0.006265","0.016542"
0.007803,"0.009717","0.006185","0.016376"
0.007434,"0.009946","0.006131","0.016055"
0.007383,"0.010257","0.006087","0.015688"
0.007391,"0.010588","0.006049","0.015301"
0.007387,"0.010978","0.006010","0.014903"
0.007359,"0.011489","0.005973","0.014516"
0.007329,"0.012118","0.005952","0.014128"
0.007275,"0.012755","0.005936","0.013756"
0.007212,"0.013459","0.005914","0.013406"
0.007164,"0.014197","0.005897","0.013057"
0.007120,"0.015049","0.005864","0.012759"
0.007060,"0.015953","0.005792","0.012483"
0.007018,"0.017027","0.005677","0.012101"
0.006979,"0.018276","0.005559","0.011653"
0.006972,"0.019711","0.005447","0.011176"
0.006991,"0.021220","0.005332","0.010703"
0.007001,"0.022939","0.005223","0.010216"
0.007008,"0.024855","0.005109","0.009737"
0.007019,"0.026649","0.004983","0.009310"
