Muscle Calculation Order
GM  Ip  BF  VL  St  TA  Gs  Gr

0.00124271	0.00358382	0.00117149	0.00106967	0.000711555	0.00127788	0.00766177	0.00358159
0.00152604	0.00360345	0.00116029	0.00120073	0.000715982	0.00146498	0.00747654	0.00359681
0.00163986	0.00358918	0.00111856	0.00121735	0.000709842	0.00155439	0.00741155	0.00396398
0.0016254	0.00357352	0.00106744	0.00120448	0.000708427	0.0016123	0.00695347	0.00397424
0.00163456	0.00354906	0.00108005	0.00120737	0.000697757	0.00182618	0.00680558	0.00398066
0.00162198	0.00327171	0.00111527	0.00120382	0.000680448	0.00207868	0.00659073	0.00400353
0.00162133	0.00311126	0.00106163	0.00124591	0.000679412	0.00232424	0.00672783	0.00401444
0.00163686	0.00289665	0.00108779	0.00131086	0.00072678	0.00267988	0.00786873	0.0042857
0.00167733	0.00283243	0.00113669	0.00134832	0.000720021	0.00287787	0.00793414	0.00441605
0.00170818	0.00327217	0.00109281	0.00134484	0.000742691	0.00299728	0.00777833	0.00441269
0.0017157	0.00394518	0.00106472	0.00135424	0.000729455	0.00316116	0.00753988	0.00436346
0.00176969	0.00395787	0.00104989	0.00135326	0.000713747	0.00337102	0.0075144	0.00433507
0.00176689	0.0039504	0.000965099	0.00133023	0.000687459	0.00367309	0.00718613	0.00435975
0.00174401	0.00387991	0.000847255	0.00132987	0.000675273	0.00371092	0.00661448	0.004366
0.00177971	0.0034517	0.00084655	0.00134674	0.00067097	0.00361054	0.00590385	0.00416429
0.00176925	0.00326226	0.00083093	0.00129682	0.000633594	0.00359823	0.00496202	0.00313533
0.00177213	0.00316805	0.000844776	0.001216	0.000622401	0.00369377	0.00483236	0.00288785
0.00170721	0.00320761	0.000832779	0.00120325	0.000627411	0.00376774	0.00455867	0.00311542
0.00162213	0.00380103	0.000825378	0.00120489	0.000639274	0.0042035	0.0040744	0.00321715
0.00160209	0.00379345	0.000840163	0.00118416	0.000624987	0.00430396	0.00383902	0.00322146
0.00132497	0.00396512	0.000836755	0.00105744	0.00063095	0.00415486	0.00358068	0.00319179
0.00116515	0.00420855	0.000843118	0.0010269	0.000630106	0.00421544	0.00346949	0.00313388
0.00116364	0.00432054	0.000850841	0.00102909	0.000617425	0.00425812	0.00346506	0.0031129
0.00118511	0.00437697	0.000844449	0.0010142	0.000629818	0.00447334	0.00333224	0.00316359
0.00125049	0.00444574	0.000823919	0.00101734	0.000626448	0.00464627	0.00344735	0.00315407
0.00127483	0.00447442	0.000812626	0.000951232	0.000620362	0.00435633	0.0035546	0.00305406
0.00128588	0.00462631	0.000786475	0.000929608	0.000560874	0.00409949	0.00233914	0.00287726
0.00119014	0.0049406	0.000747541	0.000855507	0.000539465	0.00409108	0.00190305	0.00254668
0.00111605	0.00512114	0.000753456	0.000786963	0.000564349	0.00423725	0.00198092	0.00249552
0.00113031	0.00421435	0.000781217	0.000783604	0.000580156	0.00407743	0.00171767	0.00249497
0.00109891	0.00408531	0.000784015	0.000780739	0.000559852	0.00391768	0.00155749	0.00233202
0.00107553	0.00411779	0.000768855	0.000832343	0.000555194	0.00380705	0.00153758	0.00228042
0.0011174	0.00444599	0.000766807	0.000872198	0.000554949	0.00371036	0.00153623	0.00220062
0.00118329	0.00494872	0.000766043	0.000879309	0.000539037	0.0038245	0.00145641	0.00198432
0.00118363	0.00508353	0.000754907	0.000878183	0.000556042	0.00374587	0.0013339	0.0018494
0.00119804	0.00578297	0.000746318	0.000881191	0.000562365	0.00374007	0.00130988	0.00178818
0.00116711	0.00632725	0.000750064	0.000886175	0.000574189	0.00376298	0.00127712	0.00168449
0.00112122	0.0059921	0.000768591	0.000866512	0.000571806	0.00355124	0.00125561	0.00140986
0.0011165	0.00579958	0.000744698	0.000842072	0.000556174	0.00321656	0.00125713	0.00134448
0.00111709	0.00577633	0.000761935	0.000799	0.00057196	0.00321217	0.00124705	0.00132716
0.00117748	0.00645888	0.000767548	0.000834597	0.000569175	0.00312484	0.00125356	0.00118371
0.00126429	0.00673273	0.000761948	0.000811846	0.000568886	0.00310174	0.00125691	0.000940166
0.0013132	0.00736325	0.000760793	0.000822579	0.000570542	0.00295156	0.00124427	0.000884496
0.00125101	0.00782132	0.000761774	0.000844628	0.0005633	0.00279594	0.0011806	0.000711634
0.00123922	0.00836613	0.000773484	0.000910109	0.000548772	0.00294072	0.000894139	0.000697581
0.00124216	0.00866404	0.000766258	0.000912408	0.000565555	0.00299672	0.000881739	0.000704004
0.00125128	0.00876787	0.000737759	0.000907489	0.000568987	0.00293031	0.000846174	0.00068936
0.00135051	0.00880902	0.000721844	0.000969706	0.000540567	0.00270102	0.000583964	0.000696244
0.00142663	0.00926254	0.000708494	0.000991858	0.000525712	0.00296603	0.000558743	0.000670206
0.001551	0.0102879	0.000693632	0.00104245	0.000533371	0.00301093	0.000554438	0.000660759
0.0016125	0.0106279	0.000694619	0.00112014	0.000538939	0.00290299	0.000546462	0.000668267
0.00163477	0.0113048	0.000707316	0.00106862	0.000572241	0.00282946	0.00056337	0.000682928
0.00156722	0.0119707	0.000710898	0.00105552	0.000584233	0.00287579	0.000561706	0.000700402
0.00155744	0.0132204	0.000706939	0.0010606	0.000593069	0.00289337	0.000568905	0.000687033
0.00162606	0.0140361	0.000715134	0.00112406	0.000582353	0.00278463	0.00057988	0.000658249
0.00164174	0.0134338	0.000704298	0.00116055	0.000576914	0.00272315	0.000571863	0.000646815
0.00163618	0.0132211	0.000692899	0.00118044	0.000584861	0.00267366	0.000577967	0.000650076
0.00164276	0.0131873	0.000703105	0.0011931	0.000597373	0.00258478	0.000571889	0.000671758
0.00163085	0.0143777	0.000700302	0.00121146	0.000594714	0.00253509	0.000575221	0.000680889
0.00160393	0.014325	0.000689281	0.00123433	0.00058587	0.00250621	0.000553276	0.000675267
0.00154805	0.0139213	0.000685933	0.00135719	0.000577557	0.00246835	0.000547148	0.000690463
0.00147088	0.013772	0.000684411	0.00140686	0.000580662	0.00229993	0.000569189	0.000668371
0.00143522	0.0138446	0.000696283	0.00138556	0.000578235	0.0021378	0.000579772	0.000663168
0.00142454	0.0134108	0.000691123	0.00135896	0.000577621	0.001819	0.000581351	0.00066021
0.00149829	0.0131651	0.000682449	0.00135867	0.000580213	0.00168113	0.000582627	0.000649942
0.00159781	0.0138432	0.000686873	0.00149971	0.000585978	0.00163068	0.000578766	0.000642615
0.00162784	0.0155663	0.000675839	0.0015602	0.000579006	0.00164674	0.000575591	0.000647177
0.00171817	0.0157905	0.000654817	0.0016942	0.000571635	0.00145431	0.000575561	0.00064698
0.00156673	0.015049	0.000632535	0.00177621	0.000574611	0.00125381	0.000583899	0.000657713
0.00138899	0.0148082	0.000625309	0.00175579	0.000580319	0.00123211	0.000593018	0.000657793
0.00134786	0.0150831	0.000636262	0.00175863	0.000571398	0.00119459	0.000605056	0.000651223
0.0013606	0.014468	0.000621854	0.00191692	0.000578227	0.00103655	0.000625397	0.000651932
0.00132913	0.0130484	0.000626182	0.00204214	0.000560599	0.000978886	0.000634769	0.000657433
0.00131655	0.0125644	0.000661809	0.00211061	0.000572225	0.000978943	0.000630422	0.000692444
0.0012909	0.01199	0.000661435	0.00211981	0.000618348	0.00099768	0.000643355	0.000730127
0.00128716	0.0125438	0.000675986	0.00224693	0.000619445	0.00096825	0.000664395	0.000725885
0.00129676	0.0132256	0.000679965	0.00227498	0.000617702	0.000986415	0.000673139	0.000725901
0.00127306	0.011827	0.000683692	0.00225896	0.000615773	0.00105517	0.00068123	0.000719454
0.00126414	0.0112472	0.00069507	0.00223666	0.000637468	0.00110356	0.00069751	0.000731902
0.00124019	0.0108584	0.000694927	0.00214999	0.00069127	0.00111133	0.000688778	0.000743372
0.00124397	0.0105797	0.000702972	0.00228239	0.000747337	0.00115625	0.000691896	0.000790325
0.00126589	0.010174	0.000677716	0.00227504	0.000835795	0.00119312	0.00070045	0.000818569
0.00127563	0.00995625	0.000693298	0.00236453	0.000865072	0.00122916	0.000697509	0.000871728
0.00124543	0.00983123	0.000728709	0.00241142	0.000869792	0.00120433	0.00071432	0.00093467
0.0010545	0.00924063	0.000728091	0.00232566	0.000885498	0.00119214	0.000716569	0.00104485
0.00104341	0.00759814	0.000755998	0.00220138	0.000933869	0.00118984	0.00071172	0.00104525
0.00081013	0.00640283	0.000801283	0.00216977	0.000939623	0.00112084	0.000718707	0.00107293
0.000780825	0.00563537	0.000858065	0.0021073	0.00100656	0.00114655	0.000723962	0.00116251
0.000774057	0.00552591	0.00107966	0.00198113	0.00116032	0.0012549	0.000716797	0.00133903
0.000748228	0.00494117	0.00118536	0.00195769	0.00122851	0.00128604	0.000703668	0.00136213
0.000738815	0.00435781	0.00121987	0.00185919	0.00123863	0.00140539	0.000710832	0.00139216
0.000703569	0.00414056	0.00123393	0.00165597	0.00121844	0.00162751	0.000730547	0.00143005
0.000685436	0.00429859	0.00123096	0.00155677	0.001203	0.00165694	0.000755931	0.00142478
0.000642039	0.00418429	0.00119434	0.00151386	0.00119216	0.00178736	0.000836932	0.00143046
0.000639921	0.003806	0.00122973	0.00146452	0.00119909	0.00182514	0.000924914	0.00154745
0.000635494	0.00289636	0.00122059	0.00140601	0.00124253	0.00180251	0.000932942	0.00169305
0.00062145	0.00274813	0.00126566	0.00149714	0.00125211	0.00172271	0.000946141	0.0017972
0.000601146	0.00276716	0.00125385	0.00149041	0.00126246	0.00166521	0.000973791	0.00182009
0.000589599	0.0027171	0.0012505	0.00154025	0.00125099	0.00165362	0.000971213	0.00183571
0.00057487	0.00267898	0.00129135	0.001452	0.00119329	0.0016084	0.000983757	0.00182326
0.000561692	0.00243233	0.00129983	0.00137562	0.00114046	0.00160431	0.000978935	0.00201212
0.000506882	0.00225363	0.00128236	0.00119051	0.00103263	0.00161622	0.000971381	0.00210163
0.000505274	0.00199489	0.0011757	0.0011427	0.000859378	0.001493	0.00101518	0.00218268
0.000522067	0.00196081	0.000881032	0.00114556	0.000727881	0.00104683	0.000975788	0.00246637
0.000504069	0.00114638	0.000963527	0.001046	0.000747251	0.00071571	0.000769022	0.00256404
0.000507517	0.00100506	0.000926956	0.000862364	0.000662763	0.000718643	0.00072516	0.00243424
0.000498816	0.000984369	0.000911228	0.000747141	0.000693831	0.000700205	0.000703032	0.00282384
0.000525563	0.00098495	0.000925628	0.000672786	0.00071812	0.000662322	0.000721835	0.00282566
0.000526874	0.000984381	0.000860821	0.000670581	0.000767778	0.000735702	0.000670743	0.00255957
0.000500026	0.00096225	0.000837314	0.000639937	0.000691065	0.000941524	0.000664061	0.00207525
0.000498166	0.000846471	0.000737003	0.000658809	0.000682274	0.000929637	0.000673898	0.00280396
0.000506805	0.000843064	0.000766964	0.000654384	0.000769155	0.00089783	0.000674185	0.00286538
0.000546	0.000906452	0.000790775	0.000658072	0.000768582	0.000899844	0.00065637	0.00297168
0.000516336	0.00089448	0.000829168	0.000654762	0.000749578	0.000849696	0.000643165	0.00301576
0.00053263	0.00086065	0.000915822	0.000640307	0.000751898	0.000755117	0.000642778	0.00323532
0.000536268	0.000920774	0.00100304	0.000675012	0.000798768	0.000609447	0.000667656	0.00380079
0.000515523	0.000905698	0.000985765	0.000745485	0.00083621	0.000649026	0.000625633	0.0028738
0.000509838	0.00106595	0.000925874	0.000845019	0.000719429	0.000694182	0.000628109	0.0024901
0.000472837	0.000918397	0.000941207	0.000836781	0.000725005	0.000711357	0.00063839	0.00240764
0.000479701	0.000896265	0.000931523	0.000820055	0.000726019	0.000733102	0.000623368	0.00224822
0.000487734	0.000901075	0.000916186	0.000800539	0.000729795	0.00073669	0.000630183	0.00237139
0.00050448	0.000882959	0.000918755	0.00080627	0.000752732	0.000734136	0.000622438	0.0020421
0.000550011	0.00100486	0.000898592	0.000773849	0.000732956	0.00069469	0.000645845	0.0025693
0.000560443	0.000978827	0.000979392	0.000705039	0.000808607	0.000632789	0.000671642	0.00291791
0.000576864	0.000971368	0.000997388	0.000705346	0.000754573	0.000606607	0.000676568	0.00277875
0.000591553	0.000937553	0.000950994	0.000711566	0.000742537	0.000579175	0.000678091	0.0028743
0.000592706	0.000953928	0.000913863	0.000757237	0.000759958	0.000640642	0.000695246	0.00281516
0.000586752	0.00094052	0.000941565	0.000768717	0.000774104	0.000631612	0.000672962	0.00328592
0.000568173	0.000868667	0.000966455	0.000731515	0.000763394	0.000656669	0.000637408	0.00271659
0.000556893	0.000700194	0.000956048	0.000716524	0.000762561	0.000656171	0.000637691	0.00287008
0.000542008	0.000738333	0.000918952	0.000694807	0.000813762	0.000640986	0.00061497	0.00290576
0.000535586	0.000740602	0.000946015	0.000744862	0.000804952	0.000622755	0.00064901	0.00318933
0.00051972	0.000719121	0.00093879	0.000700229	0.000764686	0.000607212	0.000627674	0.00337339
0.000503235	0.000736865	0.000929905	0.000683158	0.000785755	0.000630244	0.000635961	0.00378209
0.00050302	0.000709223	0.000908806	0.000705463	0.000833846	0.000612555	0.000673304	0.00468973
0.000522569	0.000713981	0.000836957	0.000767573	0.000822582	0.000623716	0.000657986	0.00412372
0.000543456	0.000694177	0.000811494	0.000785372	0.00079274	0.00063066	0.000663792	0.00394832
0.000548115	0.000730529	0.000833791	0.000771626	0.000801001	0.000618095	0.000637437	0.0037127
0.000536173	0.000751012	0.000849695	0.000780136	0.000823136	0.000559113	0.000619339	0.00331273
0.000544298	0.000689188	0.000777597	0.000720843	0.000737689	0.00059396	0.000613738	0.00271708
0.000536363	0.000689625	0.000798815	0.000753061	0.000648633	0.00057859	0.00059551	0.00240881
0.000510028	0.000688935	0.000859243	0.00067702	0.000668225	0.000577219	0.000629937	0.00259097
0.000512061	0.000708918	0.000951359	0.00068944	0.000662943	0.000596249	0.000619244	0.0025985
0.00050224	0.000636723	0.000923115	0.000707087	0.000650862	0.000607948	0.000612647	0.0024123
0.0005258	0.000639392	0.000940295	0.000710128	0.000635887	0.000671189	0.000627559	0.00277529
0.000558905	0.000664796	0.00106143	0.000726507	0.000650056	0.000719297	0.000644402	0.0025329
0.000567299	0.000670155	0.00107875	0.000694883	0.000750839	0.000745331	0.00063059	0.00231858
0.000595344	0.000650389	0.00106132	0.000719889	0.000704825	0.000761887	0.000602693	0.00259966
0.000564821	0.000647171	0.00101482	0.000708401	0.000733669	0.000756511	0.000638823	0.00248644
0.00059606	0.000652938	0.0011044	0.000629793	0.000747462	0.000757608	0.00068516	0.00298777
0.000597249	0.000651859	0.00107065	0.000658212	0.00076171	0.000746582	0.00077514	0.00259766
0.00057861	0.000622658	0.00106584	0.000668075	0.00076607	0.000714035	0.000830849	0.00304866
0.000571378	0.000581599	0.00107175	0.00066312	0.000740292	0.000705856	0.000828989	0.00286481
0.000559647	0.000585187	0.00105069	0.000662021	0.000799785	0.000704354	0.000821777	0.00248599
0.000579805	0.000570744	0.00103998	0.000653509	0.000784891	0.000713054	0.00108168	0.00260941
0.000561233	0.000554784	0.00104712	0.000660838	0.000815009	0.000746656	0.00103864	0.00195021
0.000570569	0.000532153	0.000999128	0.000693741	0.000812776	0.000671771	0.000975217	0.00144588
0.000597973	0.000547533	0.000894537	0.00068037	0.000781605	0.000646592	0.000974058	0.00118573
0.000688984	0.000596341	0.000842253	0.000696438	0.000745364	0.000656753	0.00100936	0.00127072
0.00070605	0.000595043	0.000824051	0.000721709	0.000702424	0.000660682	0.00110213	0.00159356
0.000701569	0.000598141	0.000816415	0.000817037	0.000696966	0.000638067	0.000844939	0.00138129
0.000721778	0.000592735	0.00073965	0.000840323	0.000699621	0.000609459	0.000833687	0.00150665
0.000700078	0.000635819	0.000896167	0.000819078	0.000697718	0.000609805	0.00082435	0.00155757
0.000854453	0.000662849	0.00090515	0.000925573	0.000685934	0.000629482	0.000780631	0.00148802
0.000795764	0.000660717	0.000967452	0.000929493	0.000654337	0.00066907	0.000758126	0.00156657
0.000776798	0.000687104	0.000972982	0.00113853	0.0006777	0.00065421	0.000703503	0.00123713
0.000782359	0.000719963	0.000974042	0.00115349	0.000709669	0.00068067	0.000734466	0.00131094
0.000752247	0.000775738	0.00102355	0.00137225	0.000648956	0.000679879	0.00072077	0.0011858
0.000994432	0.000758407	0.000956541	0.00135418	0.000710406	0.000702649	0.000787583	0.00179746
0.00084138	0.000763306	0.000975322	0.00131008	0.000715939	0.000686952	0.00077793	0.00181094
0.000832128	0.000764635	0.000911075	0.0016903	0.00074768	0.000641977	0.00105743	0.0023914
0.000843618	0.000730557	0.000945343	0.00150849	0.000699355	0.000637762	0.00116776	0.00238751
0.000972555	0.000740774	0.000938963	0.00149166	0.000667125	0.000634887	0.00138765	0.00257009
0.00108863	0.00069969	0.000984737	0.00136596	0.000643682	0.000640627	0.00140918	0.00262325
0.00082065	0.000661524	0.000965328	0.00141886	0.000557917	0.000608118	0.00135897	0.00197873
0.00076631	0.000641553	0.000980986	0.00155601	0.000628363	0.000598972	0.00136137	0.00236405
0.000754188	0.000635256	0.000986526	0.00115694	0.000687132	0.000599864	0.0010432	0.0017185
0.000768937	0.000627042	0.000974815	0.00132368	0.000732607	0.000624677	0.000815982	0.00184649
0.000597574	0.000612958	0.000960006	0.00129248	0.000766228	0.000624344	0.000625401	0.0016099
0.000513774	0.000607738	0.000936806	0.00135252	0.000781805	0.000604155	0.000667934	0.00167215
0.000521374	0.000603037	0.000985633	0.00168882	0.000820408	0.00058247	0.000644954	0.00169036
0.000575798	0.000637852	0.000926653	0.00167118	0.000747696	0.000621144	0.000673014	0.0013313
0.000705784	0.000666155	0.000928169	0.00179237	0.000691443	0.000638175	0.000680619	0.00129274
0.00067713	0.000651076	0.00092098	0.00197284	0.000720156	0.000632969	0.000698041	0.00133052
0.000697913	0.000640421	0.000872703	0.00195988	0.000685704	0.000609149	0.000951855	0.00144063
0.000706405	0.000642958	0.000821661	0.00169699	0.000635261	0.00062162	0.00116723	0.00195367
0.000717465	0.000673831	0.000780602	0.0014291	0.000617209	0.000642633	0.00151074	0.00216368
0.000609664	0.000656617	0.000771964	0.00122738	0.000610187	0.000606983	0.00172187	0.00213046
0.000705999	0.000687487	0.00072856	0.00113451	0.00059413	0.000563826	0.00188031	0.00222461
0.000711359	0.000752829	0.000697246	0.0010572	0.000532547	0.000549493	0.00188455	0.00202304
0.00081019	0.000788056	0.000721266	0.000998603	0.000533354	0.000552207	0.00190814	0.00185868
0.000804736	0.000872306	0.000737393	0.000984142	0.000622101	0.000530169	0.00207245	0.0012531
0.000818936	0.000848328	0.000721591	0.000930742	0.00060608	0.000523798	0.00170899	0.00093575
0.000905089	0.00085246	0.000712693	0.000956464	0.000594758	0.000549725	0.00155263	0.00110735
0.000906647	0.000864319	0.000721833	0.00084065	0.000627618	0.000597373	0.00139345	0.00102219
0.000892174	0.00084193	0.000707002	0.000599835	0.000678399	0.000620572	0.00163524	0.00098657
0.000808083	0.000823783	0.000761575	0.00058878	0.000673583	0.000633316	0.00163068	0.00115305
0.000812234	0.00111308	0.00101313	0.000603307	0.000645251	0.00074753	0.00234749	0.00132701
0.000959578	0.00164327	0.00109248	0.000635706	0.000724791	0.000852361	0.00467161	0.00154629
0.00111473	0.00173818	0.00129623	0.000649021	0.000826663	0.00112781	0.00541889	0.0015189
0.00147461	0.00201104	0.00130411	0.00097839	0.000845273	0.00136307	0.00681936	0.0016174
0.0014928	0.00201817	0.00131714	0.000973179	0.000821782	0.00135736	0.00685659	0.00164344
0.00150776	0.00207291	0.00133882	0.000973216	0.000838408	0.00139435	0.00679977	0.00164682
0.00152039	0.00208882	0.00133859	0.000985061	0.000847563	0.00147789	0.00679112	0.00169982
0.0015096	0.00209136	0.00132712	0.00100756	0.000831632	0.00167223	0.00705456	0.001811
0.00162635	0.0021176	0.00129478	0.00110123	0.000832252	0.00188108	0.00736321	0.00187948
0.00181014	0.00213609	0.00123905	0.00115254	0.000843488	0.00198835	0.00782571	0.00227388
0.00189883	0.00220587	0.00111287	0.00117572	0.000865689	0.00214996	0.00785396	0.00229921
0.00202301	0.00222614	0.00109402	0.00120497	0.000874184	0.00227464	0.0081646	0.00237349
0.00195354	0.00187312	0.00111245	0.00124979	0.000893281	0.00233286	0.00766025	0.00240352
0.00190218	0.00174664	0.00109686	0.00124625	0.000832716	0.00246757	0.00713028	0.00257664
0.00190433	0.00167985	0.00106338	0.00122831	0.000821259	0.00252347	0.00652769	0.00269088
0.00185695	0.00177353	0.00103342	0.00121014	0.00081104	0.00285112	0.00534899	0.0025206
0.00177634	0.00180286	0.000940092	0.00119451	0.000753768	0.00336412	0.00553511	0.00264413
0.00171109	0.0018713	0.000863071	0.00118572	0.000755595	0.00353947	0.00545842	0.00299311
0.00172599	0.00246243	0.000855158	0.0011856	0.000741241	0.00353774	0.00517926	0.00318369
0.00151198	0.00243102	0.000875438	0.00106327	0.000727047	0.00390976	0.00434267	0.00312148
0.00135352	0.00254647	0.00086515	0.000972377	0.000717014	0.0041121	0.00444743	0.00319792
0.00134217	0.00255633	0.000821789	0.000972757	0.000733234	0.00440055	0.00483137	0.00324325
0.00132211	0.0025387	0.000786427	0.000977479	0.000722063	0.00448382	0.00502757	0.00333867
0.00133449	0.00250056	0.000793709	0.000938532	0.000717548	0.00448598	0.0050923	0.00335913
0.0013597	0.00252521	0.000833938	0.000949434	0.000733624	0.00460871	0.00464651	0.00311092
0.00135437	0.0027196	0.000841402	0.000897417	0.000728873	0.0046072	0.00421777	0.00298784
0.00113721	0.00324339	0.000839773	0.000877604	0.000709488	0.00461851	0.00350504	0.00260338
0.00117534	0.00366896	0.000830119	0.000888103	0.000673165	0.00481698	0.00287126	0.00244055
0.00123144	0.00376558	0.000794158	0.000865624	0.000660469	0.00499889	0.00253588	0.00235059
0.00122198	0.00384077	0.000738862	0.000866271	0.000687769	0.00526818	0.00271407	0.00249595
0.00122507	0.00393646	0.000774978	0.000863424	0.000687588	0.0053024	0.00293971	0.00248763
0.00132105	0.00431678	0.000789145	0.000933573	0.000696109	0.00541426	0.00293916	0.00217383
0.00158176	0.00463748	0.000781615	0.00102485	0.000681741	0.00531842	0.0029333	0.00219633
0.00170731	0.00486527	0.000775884	0.00108211	0.000662379	0.00468164	0.00269626	0.00208851
0.00170912	0.00494023	0.000766344	0.00115078	0.000655223	0.00453885	0.0026319	0.00172832
0.00175101	0.00486162	0.000765891	0.00112152	0.000658444	0.00459632	0.00262993	0.00142484
0.0017199	0.00481702	0.000769793	0.00105448	0.000657018	0.00475222	0.00252735	0.00148535
0.00167762	0.00472108	0.000775224	0.00103108	0.000633677	0.00445562	0.00238489	0.00145498
0.0016691	0.00468133	0.00077309	0.00107099	0.000610636	0.00433131	0.00197327	0.00148538
0.00166685	0.00475577	0.000771783	0.00108179	0.000604808	0.00426212	0.0015942	0.0014113
0.0016486	0.00505046	0.000755565	0.00109051	0.000594388	0.00422242	0.00150648	0.00139042
0.00171261	0.00584055	0.000719042	0.00109833	0.00058241	0.00410102	0.0013804	0.00136338
0.00169631	0.00630397	0.000712747	0.00109184	0.000584455	0.0041821	0.00131229	0.00136187
0.00166336	0.00736331	0.000722441	0.0011158	0.000579576	0.0041796	0.00132387	0.00137503
0.00165939	0.00738839	0.000735257	0.00107382	0.000580572	0.00403735	0.00133541	0.00135407
0.00157998	0.00710668	0.0007451	0.00106707	0.000570021	0.00383128	0.00132534	0.0013683
0.00154716	0.00689271	0.000735367	0.00102295	0.000551012	0.00354365	0.00113432	0.00108127
0.0015482	0.00676102	0.000704752	0.000995836	0.0005257	0.00346167	0.000750544	0.00103306
0.00148272	0.00664651	0.000672576	0.000973293	0.000536933	0.0032403	0.000707305	0.0010384
0.001356	0.00671483	0.000681128	0.00092299	0.00055057	0.0031028	0.000679246	0.000983594
0.00111089	0.00719364	0.000697833	0.000882416	0.000555799	0.00310153	0.000598641	0.000964725
0.0011586	0.00779638	0.000705512	0.000823791	0.000564703	0.0032127	0.000603611	0.000970899
0.00128963	0.00788234	0.000704386	0.000792948	0.000551035	0.00315431	0.000624388	0.000969788
0.00145274	0.00790617	0.000697898	0.000796176	0.000536314	0.00266945	0.000621359	0.000894807
0.00152002	0.00853549	0.000687046	0.000798704	0.000543137	0.00255357	0.000599959	0.00082182
0.00153782	0.00916065	0.000692885	0.000792862	0.000546443	0.00274364	0.000573027	0.000700389
0.00155527	0.00985823	0.000695327	0.000754945	0.000547884	0.00269223	0.000573663	0.000673209
0.00180369	0.0105454	0.000692003	0.000797847	0.000562633	0.00269632	0.000575316	0.0006692
0.00186413	0.0105048	0.000702259	0.000820179	0.000571544	0.00265997	0.00058062	0.000654365
0.00188631	0.0112385	0.00070992	0.000839149	0.000573883	0.00251379	0.000569127	0.000660706
0.00196223	0.0111179	0.000684244	0.000841474	0.000569586	0.00233458	0.000577817	0.000661156
0.00204296	0.0106763	0.00064518	0.000863441	0.000570558	0.00214553	0.000572267	0.000651956
0.00197102	0.0117812	0.00063539	0.000922724	0.000562839	0.00199636	0.000565972	0.000661728
0.00200884	0.0126328	0.000634911	0.00104412	0.00057536	0.00189268	0.000567218	0.000653034
0.00214413	0.0136981	0.000648809	0.00108484	0.000577423	0.00176943	0.000575354	0.000638949
0.0022207	0.0148565	0.00066381	0.00115405	0.000573619	0.00173417	0.000582989	0.000632726
0.00219812	0.0146897	0.000645542	0.00112371	0.000555565	0.00176249	0.000578015	0.000626909
0.00234359	0.0139405	0.000636721	0.00117197	0.00056199	0.00172931	0.000567179	0.000634966
0.00247209	0.0137139	0.000624287	0.00122917	0.000570245	0.001487	0.000582523	0.000620607
0.00238358	0.0134482	0.000622214	0.00130594	0.00057834	0.0014036	0.000569371	0.000625167
0.0021451	0.0151924	0.000621107	0.00145864	0.000592642	0.00126113	0.000572099	0.000665027
0.00204628	0.0151649	0.000619696	0.00150192	0.000596885	0.00123151	0.000579991	0.000677568
0.00210647	0.0150466	0.000621273	0.00153962	0.00059625	0.001042	0.000582802	0.000701972
0.00211898	0.014441	0.000622719	0.00158424	0.000679669	0.00100206	0.000589202	0.000710929
0.00208829	0.0138213	0.000622684	0.00158636	0.000713096	0.00104647	0.000583391	0.000700673
0.00196995	0.0136551	0.000628359	0.00157177	0.00070906	0.00108622	0.000608866	0.000716409
0.00188277	0.0131629	0.000620703	0.00160191	0.00071775	0.00103879	0.000614331	0.00071878
0.00178687	0.0121711	0.000641405	0.0018518	0.000723704	0.000967188	0.000618683	0.00071449
0.00173219	0.01141	0.000665305	0.00193809	0.000725285	0.000971582	0.000617996	0.000746951
0.00169032	0.0115834	0.000705377	0.00193387	0.000771201	0.000991568	0.000625764	0.000739326
0.0016436	0.0108111	0.0007002	0.00194838	0.000810655	0.000991154	0.000632768	0.00072379
0.00152635	0.0101835	0.000735564	0.00211755	0.000810791	0.00091728	0.000640927	0.000752915
0.0013636	0.00937107	0.000763255	0.00226186	0.000854127	0.000924458	0.000659257	0.000759405
0.00135096	0.00907809	0.000803294	0.00233467	0.00088653	0.000882068	0.000688746	0.000794309
0.00124372	0.0101353	0.000825857	0.00235041	0.0008963	0.000886357	0.000691882	0.00084627
0.00102852	0.0104405	0.000844491	0.00242779	0.000938505	0.000912282	0.000682866	0.000858366
0.000996569	0.011326	0.000871023	0.00247394	0.000931532	0.00107882	0.000665869	0.000884935
0.000967161	0.0104775	0.000882991	0.00244526	0.000930162	0.0014386	0.000664709	0.000886489
0.000938989	0.00946891	0.000880058	0.0024383	0.000922559	0.00156246	0.000662795	0.000882565
0.000881945	0.00885247	0.000947212	0.00239077	0.000968064	0.00152905	0.00068174	0.00090794
0.000833685	0.00868672	0.0010605	0.00237314	0.000988974	0.00150427	0.000703059	0.000966309
0.000737772	0.00867078	0.00109282	0.00236184	0.000954551	0.00147728	0.000719574	0.000961611
0.000661896	0.00819778	0.0011086	0.00235883	0.000982464	0.00138105	0.000702417	0.000962153
0.000645257	0.00754513	0.00114405	0.00235841	0.00102637	0.00138545	0.000704905	0.000979533
0.000672916	0.00737595	0.00113518	0.00213533	0.00104167	0.00147106	0.000697177	0.000968231
0.000666173	0.00727515	0.00116507	0.00194086	0.00105605	0.00149789	0.000707456	0.00101156
0.00063664	0.00694894	0.00118678	0.00190111	0.00101669	0.00148255	0.000885625	0.00120792
0.000619448	0.00602226	0.00127055	0.0018391	0.000978685	0.00149301	0.000918769	0.00124028
0.000639801	0.00580869	0.00129073	0.00163525	0.000991865	0.00147047	0.000921451	0.00131934
0.000638875	0.00577906	0.00123453	0.00134183	0.000959936	0.00146883	0.000916777	0.00132576
0.000639064	0.00521008	0.00125821	0.00125398	0.000969658	0.00150842	0.0009024	0.00143486
0.000626192	0.0044619	0.00122962	0.00120883	0.000955915	0.00153682	0.000895705	0.00147003
0.000613251	0.00340631	0.00121718	0.0011793	0.000954467	0.00151846	0.000908597	0.0018551
0.000612507	0.00235119	0.00119933	0.00105705	0.000933031	0.00145058	0.00091561	0.00193689
0.000590755	0.00140846	0.00117905	0.000873198	0.000929625	0.000888058	0.000911907	0.00218372
0.000607996	0.00119569	0.00101048	0.000810675	0.000789205	0.000847524	0.000902549	0.00228464
0.000594264	0.00119676	0.0010566	0.000793279	0.000705609	0.000739011	0.00092416	0.00326135
0.000561509	0.0012324	0.000927613	0.000757703	0.000753806	0.000690558	0.000740393	0.00317281
0.00055284	0.000981299	0.000932575	0.000701093	0.000739763	0.00066376	0.000758427	0.00304029
0.000548225	0.00092157	0.00100315	0.000604611	0.000747879	0.000593538	0.000712745	0.00281721
0.000557996	0.00104045	0.00104677	0.00059005	0.000736858	0.000675366	0.000728946	0.00300827
0.00058735	0.00102392	0.00102764	0.000565764	0.00072946	0.000659526	0.000704856	0.00323502
0.000570225	0.000919901	0.000957144	0.000574279	0.000721357	0.000645927	0.000897133	0.0030854
0.000569072	0.000877528	0.000993579	0.000562877	0.000746289	0.000652787	0.000862109	0.00326142
0.000566954	0.000873027	0.000965672	0.000541316	0.000682905	0.00066229	0.000805104	0.00338875
0.000580174	0.000880012	0.000863774	0.00054526	0.000657883	0.000707492	0.000853135	0.00356279
0.000575383	0.000647991	0.000863107	0.000541326	0.000656516	0.000773074	0.000874444	0.00338513
0.000535446	0.000686664	0.000974792	0.000567873	0.000689566	0.00069107	0.000912801	0.00328221
0.000522185	0.000712335	0.000966392	0.000546327	0.00071398	0.000713624	0.000701381	0.00334848
0.000530223	0.000751378	0.000898817	0.000549422	0.000655477	0.000733069	0.000716591	0.00317646
0.000533411	0.000756745	0.000905835	0.000614478	0.000666177	0.000735174	0.000731674	0.00325776
0.000544098	0.000766768	0.00107832	0.000637217	0.000808771	0.000717506	0.00070092	0.0033912
0.000571293	0.000847703	0.00108949	0.000669908	0.000791152	0.000650138	0.000691395	0.00300847
0.000572106	0.000846746	0.00104804	0.000719505	0.000834099	0.000662635	0.000653509	0.00273785
0.000588832	0.000875973	0.00101268	0.000770888	0.000868703	0.000648896	0.00065688	0.0026555
0.000587262	0.000901755	0.00105437	0.000819055	0.000891518	0.000663698	0.000660321	0.00234473
0.000567604	0.000876395	0.00105964	0.000832605	0.000899306	0.0006534	0.000675126	0.00315846
0.000568345	0.000898051	0.0010632	0.000994094	0.000822213	0.000653214	0.000746372	0.00291907
0.000550018	0.0008146	0.00112082	0.000968273	0.000853847	0.000654318	0.000755239	0.00302672
0.000540405	0.000880419	0.00107126	0.000980564	0.000804883	0.000668881	0.000759925	0.00317156
0.000537723	0.000867502	0.00106687	0.000954288	0.000756108	0.000693103	0.000796728	0.00380949
0.000533355	0.000869821	0.00102071	0.000875803	0.000753378	0.000652421	0.000805093	0.00346216
0.000533051	0.000832931	0.00112543	0.000844875	0.000794574	0.000678136	0.000755312	0.00334692
0.000532005	0.00084396	0.00100971	0.000704711	0.000766372	0.000668836	0.000722912	0.0028556
0.000524669	0.000892609	0.000919398	0.000722688	0.000717449	0.00063941	0.000726467	0.00269362
0.000511954	0.000844274	0.000911285	0.000704753	0.000704084	0.0006437	0.000729145	0.00343086
0.00049733	0.000771561	0.000909283	0.000682749	0.000683718	0.000642021	0.000687722	0.00385039
0.000498145	0.000772219	0.00103155	0.00068887	0.000681392	0.000681257	0.00068169	0.00428736
0.000503505	0.0007736	0.000916016	0.000732614	0.000601699	0.000653683	0.000697062	0.00384081
0.000508959	0.000796471	0.000898944	0.000715512	0.000570434	0.000632606	0.000685752	0.0045236
0.000509436	0.000774595	0.000937433	0.000704173	0.000554547	0.000645719	0.00068267	0.00540441
0.00052609	0.000810561	0.000981593	0.000702868	0.000656798	0.000628813	0.000698549	0.00483295
0.000535207	0.000862921	0.000983844	0.000679542	0.000647615	0.000669935	0.000701566	0.00449793
0.000553616	0.000870538	0.000882241	0.000701248	0.000657854	0.000626461	0.000652637	0.00336834
0.000533559	0.00085318	0.000914826	0.000681361	0.000716405	0.000632779	0.000699229	0.00340084
0.0005271	0.000831242	0.00102314	0.000687045	0.000770429	0.000633217	0.0007426	0.00335973
0.000541375	0.000746083	0.0010489	0.000688367	0.000779448	0.000623764	0.000735811	0.00228523
0.000518725	0.000717592	0.000962727	0.000685319	0.000707781	0.000679748	0.000693352	0.00314921
0.000526405	0.000614982	0.000974744	0.00072189	0.000755567	0.000725466	0.000684729	0.00313397
0.000491974	0.000600755	0.000998631	0.000718357	0.000788289	0.00068343	0.000709614	0.00308452
0.000526859	0.000634967	0.00103822	0.000787724	0.000794486	0.000664187	0.000687465	0.00292786
0.000534528	0.00061364	0.000963187	0.000794865	0.000729287	0.000664891	0.000735405	0.00288027
0.000538439	0.000659867	0.000943253	0.000789077	0.000746141	0.000688451	0.000829949	0.00312025
0.000549913	0.000642923	0.000984231	0.000763068	0.000774201	0.000667906	0.000881155	0.00226673
0.000549792	0.000679936	0.00108037	0.00079465	0.00232963	0.000548327	0.000931223	0.00227636
0.00070449	0.000661577	0.00111646	0.000787493	0.00272354	0.00058138	0.000976833	0.00295784
0.000723615	0.000599174	0.0010547	0.000801534	0.00271293	0.000604336	0.000992053	0.00313695
0.000763733	0.000605292	0.00108876	0.000806344	0.00278785	0.000610786	0.00102204	0.0029572
0.000812436	0.000614803	0.00112438	0.000813224	0.00284804	0.0005986	0.00076924	0.00247764
0.000783178	0.000621373	0.00110889	0.000866537	0.00325575	0.000631819	0.000795432	0.00275176
0.000910295	0.000585219	0.00113545	0.000893001	0.00261979	0.000650999	0.000779432	0.00222634
0.000796451	0.000635161	0.00104116	0.0013123	0.00131755	0.000627626	0.000771045	0.00134201
0.000794486	0.000652788	0.000999913	0.00128536	0.00170803	0.00063967	0.000742861	0.00169812
0.00100581	0.00065125	0.00100759	0.0014395	0.00169107	0.000648207	0.000761758	0.00194418
0.000989131	0.00063557	0.00103857	0.00149191	0.00177828	0.0006567	0.000740479	0.00197905
0.0010206	0.000622293	0.000955493	0.0014807	0.00128406	0.000656509	0.000727602	0.00201185
0.00099223	0.000677321	0.00103775	0.00166406	0.00190472	0.000644849	0.000739331	0.00203251
0.000994044	0.000656244	0.00103273	0.00128131	0.00201608	0.000638817	0.000961325	0.0020891
0.00113118	0.000663956	0.00104776	0.00120945	0.00158004	0.000608376	0.00103069	0.00162022
0.00114299	0.000669415	0.00104948	0.00110326	0.0016114	0.00057475	0.00174765	0.00179854
0.00102236	0.000656394	0.00109495	0.000962842	0.00191877	0.000582437	0.00229479	0.00220215
0.00110987	0.000676951	0.00115813	0.00114324	0.00198153	0.00057738	0.00274441	0.00232507
0.00111023	0.000647926	0.00118789	0.000942121	0.0029298	0.000594496	0.00272833	0.00247472
0.00113642	0.000656782	0.00114786	0.00137259	0.00300474	0.000591261	0.00252698	0.00248052
0.00110552	0.000656614	0.00120031	0.00141299	0.00293156	0.000622318	0.0025389	0.00255948
0.00107328	0.000651425	0.00126309	0.00148028	0.00289638	0.000668693	0.00219272	0.00232776
0.00106723	0.000662512	0.00129833	0.0014889	0.00393105	0.000640396	0.0022578	0.00219115
0.000946154	0.000630267	0.00126092	0.00137312	0.00356875	0.000665881	0.0014542	0.00197746
0.000940158	0.000672476	0.00126447	0.00163906	0.00306313	0.000637773	0.0015276	0.00217339
0.000862258	0.000679963	0.00121315	0.0012586	0.00246999	0.000647116	0.00156498	0.00205589
0.000725464	0.000657326	0.00114222	0.00109452	0.00241538	0.00067535	0.00160199	0.0022454
0.000582318	0.000707335	0.00109962	0.0011293	0.00247298	0.000604688	0.00181465	0.00235934
0.000587142	0.000698873	0.00102977	0.00104187	0.00160039	0.00063304	0.00148665	0.00267584
0.000539245	0.000739753	0.000905821	0.00104364	0.00163202	0.000616945	0.00146855	0.00263646
0.000526293	0.000706483	0.000831306	0.00103442	0.00137053	0.000625926	0.00141685	0.00242433
0.000599978	0.00069811	0.000828553	0.000990097	0.00138168	0.000642199	0.00168861	0.00240242
0.000809983	0.00068873	0.000840958	0.00101142	0.00140009	0.000594258	0.00189592	0.00237974
0.000806159	0.000638244	0.000795384	0.000946415	0.00136989	0.00060287	0.00158187	0.00230744
0.000793258	0.000662216	0.00077686	0.00101249	0.00130685	0.000584187	0.00128803	0.00197581
0.000794764	0.00064729	0.000783763	0.000990239	0.0013386	0.000568604	0.00130422	0.00191202
0.000775525	0.000620654	0.000811732	0.000713865	0.000716589	0.000541234	0.00161894	0.001811
0.000772952	0.00067083	0.000772184	0.000697266	0.000666705	0.00053506	0.00131531	0.00182135
0.000608168	0.000665372	0.000794436	0.000670295	0.000684128	0.000555925	0.00140005	0.00165978
0.000606948	0.000733595	0.000827112	0.000802992	0.000660368	0.000556967	0.00124155	0.00145079
0.000705897	0.000820659	0.000831118	0.00101426	0.000708813	0.000578486	0.00123102	0.00129139
0.000713491	0.000803318	0.000837811	0.00101342	0.000683409	0.000567199	0.0012402	0.00125347
0.0007195	0.000812017	0.000861591	0.00107506	0.000638115	0.00058397	0.0013013	0.00125436
0.000720686	0.00103718	0.000843633	0.00108415	0.000605309	0.000611876	0.00154915	0.00118164
0.000887852	0.00147616	0.000967887	0.0011163	0.000620904	0.000625568	0.00221589	0.00159328
0.000977605	0.00164479	0.00102735	0.000978688	0.000689676	0.000646867	0.00425452	0.00188746
0.000967235	0.00157476	0.001248	0.000729332	0.00072681	0.000683892	0.00472752	0.00219678
0.000918483	0.0016078	0.00142286	0.000706658	0.000788188	0.000787233	0.00661677	0.00261582
0.000939945	0.00168107	0.00143665	0.000673077	0.00082849	0.000837222	0.00730804	0.00285745
0.0010642	0.00172387	0.00149049	0.000743959	0.000861121	0.00106622	0.00824085	0.00366126
0.00110617	0.00157175	0.00150061	0.000711853	0.000852328	0.00117019	0.00847061	0.00424317
0.00103166	0.00155116	0.00143325	0.000707872	0.000891468	0.00121067	0.00876749	0.0049055
0.000999312	0.00179264	0.00139217	0.000698865	0.000884466	0.00132537	0.0088045	0.00521378
0.000969014	0.00167356	0.00141747	0.000722384	0.000912891	0.00152463	0.00827972	0.00543758
0.00110272	0.00187602	0.00150741	0.000778096	0.000990131	0.00173139	0.0073812	0.00519447
0.0014396	0.00195848	0.00152881	0.000796697	0.000987478	0.00202052	0.00754881	0.00496823
0.00155644	0.00203624	0.00134758	0.000812353	0.000932567	0.00233873	0.00742913	0.00505873
0.00156988	0.00222775	0.00125053	0.000906031	0.000967909	0.00252797	0.00795745	0.00527798
0.00165203	0.00226621	0.00116958	0.00091134	0.000945541	0.00287418	0.00709886	0.00500396
0.00169759	0.00234481	0.00114549	0.000932479	0.000911519	0.00305681	0.00665451	0.00546056
0.0017474	0.00235614	0.00113795	0.0009674	0.000913255	0.00317521	0.0069388	0.00596394
0.00167859	0.00234502	0.00112753	0.000928819	0.000919055	0.00350005	0.00653322	0.00575858
0.00164518	0.00294453	0.00107446	0.000899406	0.000918031	0.00390292	0.00629693	0.00568721
0.00164216	0.00334363	0.00105526	0.000926089	0.000892679	0.00406089	0.00558292	0.00490056
0.00162395	0.00323164	0.00106053	0.000953151	0.000870664	0.00411634	0.00521856	0.00465166
0.00161792	0.00316396	0.00103707	0.000967224	0.000824554	0.00416036	0.00467486	0.00376831
0.00160654	0.00333514	0.00100399	0.000957593	0.000780084	0.00442726	0.00450016	0.00362887
0.00153299	0.00347705	0.000960625	0.000939621	0.000712446	0.00438866	0.00450175	0.00318594
0.00132882	0.00325406	0.00079279	0.000863746	0.000628293	0.00423561	0.00386177	0.00308117
0.00103552	0.00349127	0.000806812	0.000837426	0.000651768	0.00456005	0.00375572	0.00312943
0.00108602	0.0035326	0.000799414	0.000862014	0.000656341	0.00451602	0.00365685	0.00306728
0.00111718	0.00343488	0.00078276	0.000797222	0.00061272	0.00480906	0.00316339	0.00282967
0.00110991	0.00362479	0.00081171	0.00082436	0.000613875	0.00478343	0.00295004	0.00291633
0.00118952	0.00431179	0.000790585	0.000852054	0.000592944	0.00475871	0.00233518	0.00228759
0.00119009	0.00448746	0.000796244	0.000882043	0.000582727	0.00460059	0.00214078	0.00203414
0.00123868	0.00461607	0.000800543	0.000894624	0.000568749	0.00427112	0.00181665	0.00191607
0.00128152	0.00386097	0.000806553	0.000876795	0.00056178	0.00401938	0.00179399	0.00188413
0.00130828	0.00362964	0.000804624	0.000827395	0.000564373	0.00429216	0.00182762	0.00167096
0.00139567	0.00356304	0.000796744	0.000823274	0.000571143	0.00425367	0.0016346	0.00166594
0.00135922	0.00370304	0.000781997	0.000829104	0.00055536	0.00407181	0.00142907	0.0016822
0.00132939	0.00429341	0.000775335	0.000837347	0.000557977	0.00385698	0.00138199	0.00152098
0.00133974	0.0044574	0.000755244	0.000849175	0.000575979	0.00396765	0.00143167	0.0014714
0.00138182	0.00450028	0.000756211	0.000886108	0.000590238	0.00383633	0.00144917	0.00145045
0.00137418	0.00501355	0.00078047	0.000862239	0.000583048	0.00359947	0.00142041	0.00134441
0.00137178	0.00570754	0.000772912	0.000923213	0.000585088	0.00353099	0.00129442	0.0013405
0.0013412	0.00653675	0.00075792	0.000924013	0.000556988	0.00296677	0.00106319	0.00160637
0.00130019	0.00681194	0.000743094	0.000906122	0.000565378	0.002933	0.00106427	0.00140221
0.00121527	0.006661	0.000747949	0.000869374	0.000551672	0.0030732	0.00101469	0.00126942
0.00122388	0.0065423	0.000719419	0.000838701	0.000540896	0.00306584	0.00103225	0.00127145
0.00127125	0.00665726	0.000712915	0.000896426	0.000554526	0.00301599	0.00102842	0.0012913
0.00137508	0.00754422	0.000694859	0.000892958	0.000586031	0.00268002	0.000926986	0.00126442
0.00137608	0.00860529	0.00071193	0.000908313	0.000581595	0.00244692	0.000924498	0.00116819
0.00135586	0.010109	0.000708795	0.000919828	0.000588037	0.00254865	0.000935199	0.00104363
0.00135368	0.0100617	0.000720323	0.000903015	0.000576204	0.00276789	0.000960487	0.00103079
0.00138731	0.00941806	0.000717542	0.000898687	0.000593427	0.00292287	0.0009406	0.0010408
0.0014636	0.00993265	0.000715752	0.000921669	0.000579393	0.00287415	0.000724513	0.00104865
0.00160535	0.0106989	0.00070833	0.000925877	0.000545437	0.00255333	0.000718912	0.00104163
0.00170879	0.0106792	0.000705283	0.0010191	0.000541377	0.00242433	0.000720568	0.00104412
0.00168178	0.0110089	0.000700127	0.00092654	0.000541255	0.0024147	0.000726868	0.000789922
0.00164695	0.0108983	0.000674982	0.00097276	0.000530331	0.00246811	0.000692877	0.00062381
0.0016704	0.0105691	0.000644104	0.000978631	0.000525336	0.00245809	0.000611644	0.000630747
0.00168755	0.0103456	0.000672161	0.000990877	0.000536237	0.00226128	0.0005986	0.000633267
0.00167533	0.0104151	0.000687988	0.000976252	0.000542635	0.00226648	0.000596583	0.000645561
0.00163289	0.0110189	0.000694112	0.000978156	0.000545739	0.00225346	0.00059397	0.000618845
0.00151984	0.0121993	0.000694002	0.000994377	0.000522736	0.00230359	0.000604854	0.000626179
0.00154213	0.0133007	0.000674728	0.00112032	0.000529249	0.00240639	0.000593939	0.000601599
0.00150929	0.0121415	0.000677952	0.00117398	0.000536492	0.00227056	0.000579668	0.000596136
0.0015942	0.0128678	0.000684588	0.00117359	0.000539325	0.00199052	0.000560655	0.000616257
0.00171939	0.0134261	0.000694499	0.00119858	0.000513061	0.00174752	0.000573476	0.000635252
0.00157763	0.0149721	0.000679699	0.00124204	0.000522687	0.00166816	0.000575463	0.000627588
0.00143625	0.0144286	0.000676451	0.00123348	0.000524864	0.00163726	0.000559359	0.000640969
0.00143645	0.0142431	0.000664421	0.0012253	0.000521744	0.00164653	0.000554093	0.000638469
0.00149042	0.0135428	0.000663302	0.00119699	0.000511765	0.00166961	0.000543109	0.000652315
0.00162478	0.0132499	0.000689083	0.00126538	0.000537089	0.00158405	0.000552255	0.000640763
0.00165959	0.0138558	0.00068936	0.00132137	0.000533695	0.00155439	0.000558481	0.000626096
0.00165074	0.0151393	0.000668062	0.00137519	0.000539979	0.00152986	0.000547267	0.000620505
0.00164709	0.017107	0.000672774	0.0014005	0.000541568	0.00158613	0.000549178	0.000626186
0.00169341	0.0167944	0.000663249	0.00140005	0.000539424	0.00155981	0.000537045	0.00063354
0.00169827	0.0149792	0.00065979	0.0013811	0.000544663	0.00139417	0.000540208	0.000656438
0.00166808	0.0140148	0.000643076	0.00134218	0.000518125	0.00132523	0.000539027	0.000665747
0.00172594	0.0141037	0.000627829	0.00135236	0.000509199	0.00130572	0.000548322	0.000659214
0.00167721	0.0128441	0.000627958	0.0013649	0.000532695	0.00130177	0.00054323	0.000680576
0.00163217	0.0139839	0.000618094	0.00145976	0.000650164	0.00127491	0.000540262	0.000671712
0.00175676	0.0125448	0.000642059	0.00143015	0.000685203	0.00132834	0.000540403	0.000679263
0.00179711	0.0117503	0.000645945	0.00141064	0.000699315	0.00135458	0.000544682	0.000727
0.00174223	0.0112418	0.000653337	0.00146301	0.000704773	0.00128401	0.000571583	0.000727466
0.00167426	0.0112102	0.000646634	0.0016595	0.000710937	0.00111111	0.000588285	0.000770067
0.00155316	0.0111377	0.000634835	0.00163297	0.000694189	0.00100485	0.000588972	0.000785292
0.00165145	0.0117707	0.000634482	0.00161137	0.000681989	0.000958277	0.000589521	0.000786012
0.00161355	0.0105264	0.000643701	0.00167486	0.000690009	0.00097422	0.000590664	0.0007921
0.00157717	0.0084102	0.000638532	0.00167844	0.000702511	0.000877273	0.000581414	0.000848708
0.00153281	0.00756659	0.00064966	0.00176383	0.00070256	0.000860345	0.000604674	0.000879422
0.00149164	0.00943974	0.000643943	0.00176611	0.000707837	0.000808101	0.000621906	0.000859689
0.00147403	0.0101186	0.000669752	0.00173361	0.000699062	0.000860612	0.000622473	0.000871934
0.00137829	0.00992745	0.00070693	0.00192282	0.000705337	0.000920476	0.000627945	0.000877423
0.00123689	0.00904431	0.000736594	0.00211039	0.000680998	0.000930017	0.000628337	0.000858932
0.00116072	0.00738103	0.000755912	0.00195314	0.000588053	0.000924769	0.000653852	0.000842567
0.00104214	0.00713758	0.000807582	0.00197339	0.000588691	0.000967595	0.000661952	0.000882006
0.000977064	0.00720004	0.000878493	0.00196251	0.000615433	0.00112027	0.000674188	0.000861576
0.000961633	0.00726812	0.000961422	0.00177668	0.000645814	0.00116689	0.000668394	0.000809764
0.00095388	0.00726135	0.00104591	0.00170107	0.000734407	0.00121188	0.000669202	0.000830939
0.00084686	0.00611571	0.00132208	0.00163615	0.000792914	0.00123846	0.00067248	0.000815596
0.000719235	0.00490486	0.00137984	0.00161156	0.000786557	0.00126415	0.000786877	0.00102037
0.00070545	0.00486314	0.00138595	0.0015596	0.000806825	0.00126277	0.000916814	0.00113241
0.000662786	0.00488372	0.00138981	0.00146879	0.000800632	0.0013948	0.000931757	0.00118359
0.000647304	0.00457707	0.00140561	0.00141123	0.000844761	0.00141907	0.00115393	0.00117803
0.000640202	0.00203707	0.00145816	0.00145843	0.000907143	0.0013997	0.00116937	0.0013688
0.000617085	0.00178316	0.00148849	0.0014289	0.00098135	0.00132202	0.00120376	0.00172334
0.000613691	0.00196574	0.00155647	0.00117283	0.00107069	0.00125199	0.0012367	0.00183701
0.00061982	0.00203775	0.00157327	0.000974891	0.00108118	0.00125226	0.00123105	0.00202654
0.000563943	0.00198411	0.00158808	0.000883759	0.00106163	0.000995429	0.00123165	0.00246692
0.000559674	0.00180564	0.00150795	0.000857917	0.000991355	0.000823348	0.00127264	0.00312441
0.000552521	0.00184305	0.00117623	0.000793718	0.000900038	0.000774821	0.00109916	0.00316913
0.000551312	0.00167662	0.0012877	0.000807788	0.000963303	0.000600606	0.000827584	0.00345449
0.000561789	0.00148116	0.00143179	0.000639995	0.000851553	0.000629738	0.000760744	0.00347829
0.000550986	0.000990486	0.00129262	0.000658516	0.000759366	0.000659856	0.000720493	0.00320777
0.000562205	0.000960134	0.00124022	0.000640864	0.000785765	0.000665567	0.000727252	0.00305868
0.000555692	0.000964113	0.00108967	0.000646126	0.000744202	0.000681932	0.000851204	0.00327113
0.000564342	0.000862654	0.00116933	0.000579493	0.000937836	0.000674189	0.000862685	0.0035207
0.000584528	0.00078119	0.00113876	0.00053313	0.000883625	0.000649181	0.00090619	0.00331743
0.000582136	0.000801664	0.000956979	0.00054065	0.000869378	0.000663107	0.000908154	0.00308384
0.000568582	0.000853921	0.00100827	0.000555886	0.000872861	0.000639775	0.00111804	0.00400258
0.000562149	0.000825737	0.00100843	0.000596526	0.000842655	0.000670608	0.00112765	0.00386513
0.000545094	0.00078941	0.00107455	0.000606441	0.000858997	0.000686738	0.000928173	0.00308566
0.000528482	0.000744411	0.000989562	0.000614492	0.000703121	0.000689199	0.000960107	0.00329282
0.000480737	0.000713313	0.000912479	0.000678081	0.000662438	0.0006961	0.000906738	0.00321406
0.00046665	0.000698851	0.000925273	0.000685013	0.0006744	0.000653358	0.00085367	0.00304974
0.000480189	0.000731232	0.000919655	0.000658066	0.000674508	0.000686305	0.000621912	0.00250282
0.000497178	0.000699645	0.000927557	0.000632453	0.000712878	0.00064897	0.000615764	0.00256174
0.000519077	0.000742889	0.00101394	0.000616402	0.000714118	0.00062806	0.000608404	0.00355285
0.000516001	0.000728956	0.00102207	0.000627522	0.000675789	0.000624147	0.000594347	0.003902
0.000566692	0.000750923	0.00104991	0.000605634	0.000728489	0.000637232	0.000654481	0.00376778
0.000580677	0.000746883	0.00110614	0.000610177	0.000762314	0.000676682	0.000687413	0.00413923
0.00058254	0.000686957	0.00113488	0.00060073	0.000716048	0.000698006	0.000726549	0.00428928
0.000563461	0.000696156	0.00108778	0.000611757	0.000694502	0.000683468	0.000695072	0.00426474
0.000582188	0.000651317	0.00104301	0.000626974	0.000677074	0.000673323	0.000724246	0.00365712
0.000596562	0.000695342	0.0010563	0.000643543	0.000661158	0.000655539	0.000721146	0.00286201
0.000574214	0.000709419	0.00105481	0.000651428	0.000635624	0.000650245	0.000692537	0.00318249
0.000573013	0.000758387	0.000976222	0.000635006	0.000598153	0.000631011	0.000659223	0.00339787
0.000573784	0.000737183	0.000947121	0.00064797	0.000634212	0.000588107	0.000658746	0.00336149
0.000587684	0.000736607	0.000951226	0.000735947	0.000614232	0.0006321	0.000687981	0.00408642
0.000549665	0.000763968	0.000886498	0.000765932	0.000636885	0.000630419	0.000655894	0.00401759
0.000567046	0.000723506	0.000851885	0.000748124	0.000739133	0.000622272	0.000699955	0.00417857
0.000549527	0.000704044	0.000837191	0.000736655	0.000729354	0.000611184	0.000704809	0.00375465
0.000534345	0.000680478	0.000839655	0.000735043	0.000726764	0.000582574	0.000751335	0.00389778
0.000513724	0.000705501	0.000878147	0.000750096	0.00113169	0.000604534	0.000783494	0.00484448
0.000508807	0.000669887	0.000870474	0.000646798	0.00119199	0.00058385	0.000880806	0.00428462
0.000511464	0.000652466	0.000877314	0.000606397	0.00124274	0.000616779	0.00132163	0.00446181
0.000470513	0.00064822	0.000882003	0.000591754	0.00118104	0.000628812	0.00129268	0.00460242
0.000454691	0.00064628	0.000898194	0.000561875	0.00117372	0.000623666	0.00177324	0.00532795
0.000467043	0.000640052	0.000977479	0.000646175	0.00120425	0.000645188	0.00181182	0.00467133
0.000477357	0.000642026	0.00101341	0.000647621	0.000832371	0.000611796	0.00180882	0.00347342
0.000468824	0.000643957	0.00105522	0.000643297	0.000796165	0.000611947	0.00170625	0.0042906
0.000473696	0.000654046	0.00107675	0.00065214	0.00125793	0.000585852	0.00131123	0.00431692
0.000545739	0.000671476	0.00112111	0.000665353	0.0012832	0.000654861	0.00130877	0.0040671
0.000574883	0.000650075	0.00109506	0.00067724	0.0013286	0.00067992	0.000833863	0.00363242
0.000623395	0.000674351	0.00105312	0.000666837	0.00130964	0.000674757	0.000761094	0.00375665
0.000632218	0.000651141	0.00095334	0.000664419	0.00133503	0.000652934	0.000739059	0.00332451
0.000643178	0.000673266	0.00101003	0.000678826	0.00184776	0.000622179	0.00107511	0.00253303
0.000658655	0.000654957	0.00113656	0.000668322	0.00145147	0.000612515	0.0013548	0.00282051
0.000612799	0.000673975	0.00110935	0.000729449	0.00144084	0.000551158	0.00142949	0.0028029
0.000582474	0.00069702	0.00113831	0.000725123	0.00182425	0.000535535	0.00149476	0.00289682
0.000560307	0.000675859	0.00118122	0.000673535	0.00247533	0.000520267	0.00156922	0.00279707
0.000536559	0.000722043	0.00128504	0.000794409	0.00259616	0.00053417	0.00157798	0.00302205
0.000543335	0.000685171	0.00123231	0.000793837	0.00238516	0.000553458	0.00155011	0.00326896
0.000710972	0.00073416	0.00120236	0.000801873	0.00244082	0.000576362	0.00168443	0.00286355
0.000697468	0.00069755	0.00127602	0.000762833	0.0024784	0.00055933	0.00160943	0.00259817
0.000800561	0.000679379	0.00134604	0.000812872	0.00250086	0.000568477	0.00155027	0.00244361
0.000892489	0.000667424	0.00130063	0.000924827	0.00184165	0.000583281	0.00152675	0.0023449
0.000957452	0.000689948	0.00120833	0.000815014	0.00184073	0.000588414	0.00151897	0.0025617
0.000967257	0.000705936	0.00128461	0.000816218	0.00276487	0.00059351	0.00122915	0.00209706
0.00105577	0.000725002	0.00116363	0.000906791	0.0025737	0.000581034	0.000853124	0.00184983
0.00117411	0.000768594	0.00118184	0.00109648	0.00256249	0.00057684	0.00085081	0.00205869
0.00127618	0.000811073	0.00113728	0.00104315	0.00249894	0.000575888	0.00155344	0.00228452
0.00146026	0.000789499	0.00114231	0.000999791	0.00318138	0.000589196	0.00158279	0.00261149
0.00142775	0.000706112	0.00117787	0.000962585	0.00329792	0.000625906	0.00174686	0.00250306
0.00141823	0.000722138	0.00121904	0.00128515	0.00239663	0.000633516	0.00211156	0.00302616
0.00120468	0.00065138	0.00128294	0.00121546	0.00313631	0.000640567	0.00215536	0.00306754
0.00115176	0.000611725	0.00131766	0.001134	0.00328254	0.000648343	0.0023472	0.00323646
0.00129719	0.000587576	0.00131463	0.00120037	0.0033568	0.000649074	0.00165034	0.00287119
0.00101411	0.000594697	0.00135474	0.0011502	0.00265842	0.000686172	0.0015812	0.00277078
0.000992143	0.000618264	0.00134548	0.00114909	0.00234153	0.000656697	0.00184709	0.00291305
0.000989919	0.000611175	0.00115802	0.000795928	0.00199121	0.000660142	0.00195834	0.00277603
0.000919359	0.000621389	0.00108725	0.000761341	0.0012824	0.000718316	0.00218188	0.00292106
0.000851975	0.000614886	0.000983555	0.000647589	0.00114713	0.000733103	0.00209604	0.00280121
0.000520108	0.000733268	0.000935809	0.000619953	0.000693712	0.000749731	0.00237857	0.00277817
0.00057809	0.000748289	0.000889614	0.000595283	0.00140271	0.000713476	0.00239371	0.00257469
0.000746751	0.000741162	0.000877705	0.000754596	0.00148963	0.000695949	0.00197075	0.00214193
0.000742266	0.000727178	0.000886713	0.000768829	0.00145917	0.000681583	0.00202581	0.00179394
0.000816512	0.000718888	0.000910166	0.000806081	0.00147269	0.000618317	0.00177811	0.00143582
0.000827762	0.00074781	0.000880712	0.000818767	0.00142426	0.00058686	0.00162646	0.00118715
0.000828253	0.000659964	0.000866468	0.000784438	0.00148119	0.000553601	0.00161246	0.00184961
0.00074583	0.000670817	0.000819526	0.000818379	0.000789333	0.000538019	0.00159013	0.00205544
0.000603833	0.000691366	0.000790346	0.000983484	0.000764546	0.000554787	0.00154289	0.0020728
0.000584075	0.000713506	0.000801065	0.00102253	0.000830098	0.000570751	0.000957677	0.00187753
0.000518783	0.000788016	0.000780474	0.00104374	0.000754253	0.000558753	0.000873861	0.00187604
0.000521463	0.0010295	0.000773473	0.00100142	0.000754206	0.000559184	0.00152875	0.00191313
0.00059731	0.00105606	0.000754759	0.00101924	0.000681758	0.000551312	0.00228808	0.00162172
0.000632057	0.00103915	0.000721598	0.000966262	0.000650912	0.00058676	0.00244859	0.00148484
0.000638529	0.00102737	0.000676953	0.000708037	0.000585712	0.000579514	0.00249502	0.0014832
0.000771165	0.000997729	0.000684794	0.000659251	0.000530322	0.000538244	0.00272188	0.00154568
0.000780178	0.000902243	0.000675408	0.000611683	0.000551486	0.00055091	0.00308173	0.00154435
0.000771764	0.000696953	0.0008718	0.000628643	0.000581817	0.000587685	0.00281639	0.00177453
0.000698226	0.000807848	0.000980166	0.000618171	0.000624999	0.000608169	0.00234727	0.00156093
0.000843097	0.00103458	0.00116128	0.000671732	0.000676659	0.000594259	0.0047918	0.00233163
0.000922561	0.00124821	0.0011852	0.000609288	0.000662278	0.000706808	0.00527746	0.00260282
0.000855326	0.00141785	0.00116153	0.000645805	0.00068228	0.000977541	0.00655307	0.00259846
0.00096465	0.00166259	0.00122113	0.000731873	0.000739778	0.00109022	0.00700877	0.00350336
0.00101656	0.00185951	0.00107783	0.000777727	0.000717551	0.00123774	0.0090819	0.00393513
0.00156799	0.0018329	0.00113067	0.00084819	0.00077424	0.00161928	0.00945712	0.00442812
0.00164744	0.00169068	0.00111623	0.000811458	0.000735973	0.00183767	0.00833037	0.00384758
0.00159631	0.00165453	0.00100373	0.000801408	0.000717664	0.00203116	0.00755148	0.00373239
0.00160194	0.00167036	0.000982831	0.000812876	0.00074317	0.00221155	0.00759185	0.00405407
0.00152867	0.00168575	0.000982382	0.000824986	0.000753436	0.00254101	0.00782327	0.00424022
0.00152328	0.00159545	0.000986568	0.000968081	0.000771758	0.0026964	0.00810508	0.00410559
0.00166249	0.00166056	0.000974393	0.0010079	0.000765399	0.0027339	0.00734462	0.00441011
0.00179156	0.00185608	0.000977377	0.00109013	0.000771689	0.00285124	0.00768363	0.00457864
0.00214393	0.00192474	0.000983779	0.00115023	0.00073489	0.00312993	0.00710325	0.00463206
0.0022648	0.00186062	0.000925727	0.00116371	0.000735422	0.00359899	0.00659956	0.00397774
0.00225762	0.0017809	0.000921049	0.00113411	0.000698247	0.00373681	0.00694927	0.00389022
0.0022435	0.00181044	0.000966216	0.00112212	0.000715584	0.004098	0.00793372	0.00440359
0.00225764	0.00176095	0.00097607	0.00109339	0.000725463	0.00437575	0.00768297	0.00440745
0.00223279	0.00211418	0.000993237	0.00109209	0.000702481	0.00439591	0.00639193	0.00412344
0.00217564	0.00238495	0.000946696	0.0010936	0.000678674	0.00445183	0.00610256	0.00415347
0.00189497	0.00243134	0.000906779	0.00106921	0.00066861	0.0043742	0.00580801	0.00368315
0.00174252	0.00251138	0.000826381	0.00106796	0.000611565	0.00412291	0.00576886	0.00364513
0.00179319	0.00266768	0.000832195	0.00106713	0.000623631	0.00422281	0.00574103	0.00359743
0.00178808	0.002818	0.000845708	0.00106853	0.000616035	0.00441234	0.00530194	0.00327527
0.00179993	0.00273579	0.000848709	0.00105016	0.000608675	0.00442464	0.00503493	0.00300297
0.00180438	0.00266604	0.000850564	0.000965917	0.000593193	0.00445151	0.00446075	0.00305457
0.00179543	0.00262997	0.00089454	0.000895358	0.000596419	0.00489574	0.00453527	0.00309473
0.00172907	0.00233979	0.000884764	0.000848045	0.000585357	0.00480492	0.00436638	0.00285215
0.00144655	0.00244364	0.000869665	0.000766173	0.000589448	0.00479816	0.00427523	0.00279155
0.00133881	0.00279551	0.000858388	0.000799413	0.000614814	0.00434931	0.00494567	0.00285838
0.00136202	0.00326214	0.000870787	0.000797938	0.000625035	0.00422413	0.00458796	0.00279439
0.00140263	0.0038056	0.000868909	0.000804541	0.000612065	0.00416129	0.00393094	0.00241001
0.0014087	0.00423951	0.00084387	0.000837335	0.00060755	0.00399379	0.00312367	0.00226051
0.0014292	0.00415334	0.000806057	0.00084154	0.000602091	0.00408343	0.00258216	0.00215548
0.00153624	0.0038553	0.000759639	0.000821447	0.000602987	0.00412689	0.00248493	0.00204157
0.00158886	0.00375754	0.000758381	0.00078059	0.00060608	0.00412177	0.0023712	0.0019322
0.00179542	0.00395254	0.000738553	0.000784995	0.000615021	0.00433964	0.00230228	0.00189717
0.00178492	0.00408537	0.000735589	0.000804985	0.000627065	0.00431936	0.00225607	0.00191321
0.00176342	0.00401749	0.000715724	0.000827943	0.000648903	0.0040848	0.00224228	0.00191224
0.00178449	0.00435121	0.000720908	0.000870827	0.000640412	0.00379556	0.0021794	0.00188703
0.00182561	0.00513929	0.000707091	0.000874202	0.000627209	0.00364638	0.00204045	0.00187183
0.0018122	0.00546361	0.000676468	0.000876976	0.000621938	0.00319131	0.00212549	0.00151539
0.0017779	0.00567906	0.000671135	0.000895206	0.000634713	0.0031592	0.00193638	0.00140549
0.00178559	0.00683988	0.000732959	0.000953864	0.000642133	0.00319873	0.00184707	0.00130811
0.00180149	0.00736817	0.000786164	0.000940929	0.000619046	0.00296156	0.00140991	0.00122527
0.00189458	0.00722557	0.000782222	0.000933149	0.000589941	0.00292799	0.0010762	0.00119793
0.00194372	0.00670911	0.000790261	0.000953721	0.000594786	0.00279279	0.00106778	0.00114667
0.00194279	0.00644796	0.000776218	0.000908422	0.000571902	0.00246677	0.00108089	0.00106373
0.00196729	0.00613436	0.000759638	0.000940651	0.000580645	0.00229202	0.00109343	0.000969441
0.0019434	0.0067549	0.000746899	0.00096048	0.000578282	0.00226908	0.00108822	0.000960136
0.00183268	0.00735116	0.000758424	0.000994871	0.000561583	0.00221331	0.00102616	0.000945868
0.00166702	0.00762854	0.000751381	0.00103224	0.000545233	0.0020551	0.00100415	0.000947518
0.00180433	0.00820828	0.000768169	0.00113357	0.000547926	0.00187735	0.00100383	0.000920284
0.0019009	0.00900299	0.000764585	0.00113935	0.000536339	0.00196192	0.00100562	0.000931159
0.00198535	0.0101508	0.000752812	0.00112458	0.000523505	0.00189759	0.000998864	0.000939736
0.0021792	0.00989526	0.000771764	0.00117982	0.000523877	0.00183116	0.000995443	0.000935506
0.0022297	0.00951723	0.000752479	0.00124814	0.000536421	0.00169113	0.000916881	0.000934593
0.00232446	0.0102182	0.000750795	0.00123626	0.00051841	0.00167994	0.000618513	0.000937702
0.0023274	0.0100663	0.000717742	0.00122427	0.000503323	0.00144815	0.000609889	0.000918258
0.00250812	0.00958127	0.000684275	0.00118329	0.000500263	0.00140817	0.000612755	0.000921023
0.00236405	0.0102787	0.000660057	0.00116363	0.000512259	0.00142396	0.000625711	0.000913598
0.00224255	0.0113122	0.000683224	0.00115	0.000514962	0.00154551	0.000619789	0.000846038
0.00225707	0.0118829	0.000675268	0.00116809	0.000514415	0.00163446	0.000608331	0.000737382
0.00236841	0.0136962	0.000678314	0.00134958	0.000516843	0.00170972	0.000609721	0.00065113
0.00270603	0.0141679	0.000687869	0.00136312	0.000515995	0.0016953	0.00061551	0.000656013
0.00283144	0.0134297	0.000694968	0.00134493	0.000513051	0.00154119	0.00062383	0.000672722
0.00287924	0.0134795	0.000708935	0.00143422	0.00051848	0.00152077	0.000595639	0.000667628
0.00275434	0.0140114	0.000718301	0.00139876	0.00052309	0.0015168	0.000594235	0.000657446
0.00261407	0.015078	0.000715813	0.00139208	0.000515804	0.00146064	0.000582844	0.000666094
0.00282733	0.0147741	0.000729414	0.00142853	0.000532725	0.00141135	0.000579639	0.000647469
0.0027548	0.0143206	0.00072848	0.00140027	0.000533746	0.00152106	0.00058025	0.000658014
0.00260944	0.0152295	0.000727032	0.00130199	0.000557436	0.00152744	0.000581513	0.000647306
0.00261399	0.0156355	0.000727874	0.00130106	0.00056163	0.00145942	0.000590365	0.000639959
0.00272518	0.0153522	0.000738286	0.00139902	0.000563145	0.00138852	0.000571881	0.000655658
0.00251178	0.0163073	0.000729776	0.00141292	0.00058305	0.00141099	0.000556557	0.000656175
0.0024161	0.0162239	0.000748026	0.00139657	0.000586806	0.00142565	0.000538839	0.000675119
0.00232502	0.0162349	0.000723195	0.00136963	0.000576124	0.0013599	0.000553567	0.000724649
0.00234996	0.0163071	0.000734586	0.00144981	0.000585498	0.00124338	0.000555169	0.000727071
0.00247806	0.0143633	0.000732978	0.00138355	0.000585264	0.00117931	0.0005353	0.000707587
0.00215754	0.0141783	0.000711834	0.00129158	0.000585524	0.00111693	0.000525849	0.00069466
0.0020547	0.0147716	0.000721827	0.00129396	0.000591736	0.00109525	0.000507499	0.000689388
0.00200595	0.0153795	0.000698288	0.00126593	0.000568525	0.00109073	0.00051387	0.000687617
0.00230217	0.0169636	0.000697618	0.00129111	0.00061972	0.00106251	0.000524796	0.000725281
0.00258241	0.0169148	0.000698563	0.00140226	0.000705242	0.00114057	0.00052217	0.000754846
0.00253657	0.0165579	0.000677584	0.00151819	0.000730417	0.00124033	0.000543819	0.000734525
0.00230098	0.0161721	0.00068292	0.00165713	0.000749668	0.00116243	0.000535634	0.000732757
0.00240445	0.0148746	0.000672582	0.00173147	0.000755665	0.00112504	0.000540631	0.000744747
0.00239099	0.0150605	0.000684167	0.00179515	0.000754599	0.00112873	0.000533713	0.000766573
0.00219018	0.0151375	0.000693476	0.0018417	0.000764075	0.00106698	0.000552335	0.000764462
0.00218195	0.0153147	0.000693236	0.00185856	0.000770874	0.00106206	0.000549579	0.000762781
0.00221919	0.0141845	0.000695198	0.00187392	0.00076141	0.00102351	0.000569472	0.000751903
0.00220375	0.0130754	0.000701023	0.00188872	0.000765166	0.00100391	0.000586752	0.000738475
0.00217061	0.012217	0.000690751	0.00183319	0.000771931	0.000997365	0.000590016	0.000739364
0.00206294	0.0119385	0.000706834	0.00179356	0.00080831	0.000961735	0.000604403	0.000729462
0.00194532	0.0114074	0.000751688	0.00179984	0.000902308	0.000922823	0.000617276	0.000790964
0.00188068	0.0105687	0.000782947	0.00183327	0.000945232	0.00091333	0.000629525	0.000832164
0.00184015	0.00992677	0.000833295	0.00187547	0.000975955	0.000888854	0.000638347	0.000835824
0.00159192	0.00801802	0.000873636	0.00191785	0.00101024	0.000968966	0.000639717	0.0008428
0.00110202	0.00680034	0.000874125	0.00178914	0.000953959	0.000920238	0.000661278	0.000807445
0.000926922	0.00529912	0.000890404	0.00164251	0.00093637	0.000823204	0.000650413	0.000809723
0.000923656	0.00472649	0.000885678	0.00148448	0.00100604	0.000892365	0.000673572	0.000916374
0.000742703	0.00460002	0.000890881	0.00136706	0.00098246	0.00106498	0.000690153	0.000956248
0.000667808	0.0041915	0.00089142	0.00137136	0.000986072	0.001053	0.00069009	0.000946381
0.000677649	0.00346821	0.000918993	0.0012979	0.00104307	0.00103516	0.000714794	0.000957658
0.000691071	0.00257685	0.00096714	0.00113243	0.00115526	0.0010235	0.000704764	0.000959978
0.000692049	0.00201145	0.00101842	0.001137	0.00118246	0.0010153	0.000698926	0.000968324
0.000691982	0.00177175	0.0010209	0.00107477	0.00128363	0.00102512	0.000703905	0.00130202
0.000637905	0.00222475	0.00105584	0.000931841	0.00128066	0.00102108	0.00110303	0.00201115
0.000652772	0.00196722	0.00102784	0.0007791	0.00133726	0.000970035	0.00118876	0.00224828
0.000621166	0.00180456	0.00110933	0.000686597	0.00134419	0.000793769	0.00130843	0.00247565
0.000631239	0.00151181	0.00117752	0.000612465	0.00133128	0.000659725	0.0014258	0.00288838
0.000577055	0.00146268	0.00113049	0.00055191	0.0012889	0.000658992	0.00147134	0.00376002
0.000593325	0.00120195	0.00126454	0.000561494	0.00122071	0.000653444	0.00157776	0.00359279
0.000586046	0.000905833	0.00135789	0.000569703	0.00123471	0.000650719	0.00123552	0.0039031
0.000612086	0.000841409	0.00141291	0.000537601	0.0010993	0.000562109	0.00119242	0.00382853
0.000600715	0.000995456	0.00140037	0.000555771	0.00104685	0.000600646	0.00100789	0.00400493
0.000569078	0.00108003	0.00150399	0.000560501	0.00105331	0.000723126	0.000900448	0.00362895
0.000556411	0.00110256	0.00150406	0.000565598	0.000915923	0.00082537	0.000771305	0.0029645
0.000547455	0.00107775	0.00137125	0.000567101	0.000944872	0.000852673	0.000908993	0.00299776
0.000549001	0.00100803	0.00127678	0.000579973	0.000919579	0.00088479	0.000883472	0.00294429
0.000509506	0.00105028	0.00119138	0.000626669	0.000917403	0.000900148	0.000837079	0.00281275
0.000523947	0.00084866	0.00113356	0.000629393	0.000915584	0.000928063	0.000851437	0.00263611
0.000537872	0.00086489	0.000990595	0.000649076	0.000877072	0.000812764	0.000855531	0.00256924
0.000551066	0.000798726	0.00104761	0.000670878	0.000912679	0.000749878	0.000863121	0.00308254
0.000529285	0.000819323	0.00101529	0.00067854	0.000814941	0.000720164	0.000665084	0.003233
0.000519412	0.000783639	0.000948659	0.000668469	0.000815207	0.000695481	0.000704489	0.00292458
0.000525043	0.000743251	0.00107825	0.000671785	0.00078496	0.000705716	0.000715957	0.00330489
0.000515282	0.000698322	0.00118407	0.00065762	0.000827597	0.000627587	0.000738564	0.00329795
0.000532244	0.000651741	0.00114738	0.000670306	0.000850353	0.000625367	0.000732989	0.00329732
0.000536487	0.000647413	0.00113958	0.000631491	0.000839785	0.000651486	0.000788046	0.00342735
0.000522237	0.000623347	0.00114852	0.000659947	0.000868836	0.000657554	0.00075881	0.00296103
0.000533865	0.000634142	0.00111879	0.000648348	0.00100474	0.000663352	0.000752191	0.0028912
0.000521384	0.00062257	0.00102393	0.000613376	0.00100834	0.000645768	0.000762397	0.003095
0.000513526	0.000618185	0.000891937	0.000600594	0.000986754	0.000634606	0.000769856	0.00350723
0.000482795	0.000679791	0.000865866	0.000584411	0.0010057	0.000639705	0.000765155	0.00509412
0.000478865	0.000686312	0.000879263	0.000669964	0.000947167	0.000718602	0.000695388	0.00441168
0.000510433	0.000692931	0.000892365	0.000649939	0.00101436	0.000714928	0.000751639	0.00493426
0.000518967	0.000696679	0.00094005	0.00064233	0.000864518	0.000715078	0.00073091	0.00577674
0.000525298	0.000678605	0.000961149	0.000622603	0.000892869	0.000734425	0.00076757	0.00588666
0.00056739	0.000691445	0.00109527	0.000628743	0.000891046	0.000764841	0.000839939	0.00581088
0.00061309	0.000660698	0.00118024	0.000798088	0.000908424	0.000676252	0.000865206	0.00504762
0.000629778	0.000643061	0.00110288	0.000724176	0.000861242	0.000713847	0.000858327	0.00543749
0.000623113	0.00064934	0.00106599	0.000775249	0.000856226	0.000767079	0.000864791	0.00455101
0.000607003	0.000635871	0.00104724	0.000796582	0.000829236	0.000774177	0.000849339	0.00438644
0.000605529	0.000679102	0.000972726	0.000815987	0.000795205	0.000766783	0.000778771	0.00392202
0.000573226	0.000645497	0.000831639	0.000751323	0.000778921	0.000734056	0.000703303	0.00351696
0.000554059	0.000631386	0.000811398	0.000703285	0.000751808	0.000723341	0.000714368	0.00353321
0.000550038	0.000637185	0.000841448	0.000719741	0.000787685	0.000592064	0.000760886	0.00337895
0.000721757	0.000626933	0.000874346	0.00065411	0.00131935	0.000585466	0.000987799	0.00362898
0.000768153	0.000585755	0.000918049	0.000675406	0.00134419	0.000573492	0.00102637	0.00316604
0.000760697	0.000570462	0.0010389	0.000679257	0.0013555	0.000581062	0.00103628	0.00327598
0.000750533	0.000575562	0.00100333	0.000646822	0.0013551	0.000622649	0.00102206	0.00335141
0.000738991	0.000590718	0.00107324	0.000640865	0.00194052	0.000633294	0.00106712	0.00320985
0.000734201	0.000587396	0.00116022	0.000671229	0.00236937	0.000660433	0.00106987	0.00317462
0.000541485	0.000595564	0.00114437	0.000670983	0.00185905	0.000634531	0.000776679	0.00327181
0.000543004	0.00059617	0.00100823	0.000659817	0.00181082	0.000683753	0.00112001	0.00397745
0.000628631	0.000608778	0.000986215	0.000690588	0.00182214	0.000669079	0.00120944	0.00373739
0.000833737	0.000604027	0.00110059	0.0007514	0.00186785	0.000631975	0.00157196	0.0032832
0.000832651	0.000647772	0.000991202	0.000827944	0.00126786	0.00065511	0.00152693	0.00280381
0.00079645	0.000643778	0.000841462	0.000789897	0.000842078	0.000674592	0.00166923	0.0024799
0.000791846	0.000638998	0.000881855	0.000753967	0.00141827	0.000646059	0.00187018	0.00202159
0.000779684	0.000663932	0.00101503	0.000871208	0.00140269	0.000594376	0.00156902	0.00141736
0.000819479	0.00065283	0.000967118	0.000847362	0.00136657	0.000609441	0.00146264	0.00175626
0.000720114	0.000643549	0.000861844	0.000727826	0.00129249	0.000602241	0.00114162	0.00168991
0.00082796	0.000596254	0.000890005	0.000702017	0.0019451	0.000599782	0.00117385	0.00193187
0.000840357	0.000600904	0.000968919	0.0011315	0.00193259	0.000577908	0.000963729	0.00201146
0.00086228	0.000611383	0.00107703	0.00118127	0.00188623	0.000574976	0.000793856	0.00178515
0.000859067	0.000619847	0.00105414	0.00110434	0.00192195	0.000640313	0.00102612	0.00197244
0.00101864	0.000618037	0.00114891	0.00111033	0.00198618	0.000640029	0.00123196	0.00219366
0.000957241	0.000619382	0.00115831	0.00113809	0.0019927	0.000638525	0.00130358	0.00235964
0.00101851	0.000618803	0.00120386	0.0012581	0.00195254	0.000623644	0.00127283	0.00239088
0.00105386	0.00067209	0.00115815	0.000847559	0.0018797	0.000628363	0.00126971	0.0024547
0.00124214	0.000724759	0.00100695	0.000907663	0.00131216	0.000642949	0.00132028	0.00237357
0.00119324	0.000705616	0.0011706	0.00107066	0.0018928	0.000626016	0.00137036	0.00239781
0.000858364	0.000712536	0.0011158	0.00107153	0.00186619	0.000636167	0.00157309	0.00225304
0.000810366	0.000714537	0.00109872	0.00111638	0.00188859	0.000600844	0.00165276	0.00267885
0.000758471	0.000765409	0.00110256	0.000996055	0.00132852	0.00062993	0.00167058	0.00261854
0.00066789	0.000761186	0.00119649	0.00132612	0.00191598	0.000631451	0.00172038	0.00284639
0.000500441	0.000714623	0.00111378	0.00113564	0.00179226	0.000586543	0.00196604	0.00274501
0.000503113	0.000706797	0.000980954	0.00105697	0.00131017	0.000571028	0.00194525	0.00260664
0.000475428	0.000677786	0.00105488	0.00100907	0.00128613	0.000599169	0.00157933	0.00209928
0.000481328	0.000667638	0.00101499	0.00097244	0.00126001	0.000619197	0.00185131	0.00210468
0.000489078	0.000592211	0.000924664	0.00086122	0.00121127	0.000632554	0.001814	0.00172511
0.000693199	0.000566909	0.000855384	0.000795863	0.000651376	0.000649502	0.00194121	0.0015393
0.000788573	0.000562228	0.000943916	0.000890075	0.000741669	0.00066697	0.00143255	0.00153756
0.000790696	0.000574787	0.000901934	0.00107202	0.00155337	0.000690488	0.00135278	0.00184384
0.00081053	0.000592987	0.000805725	0.00115872	0.00157312	0.000676879	0.00110466	0.00154448
0.00080274	0.000667829	0.000831617	0.00114863	0.00155879	0.000665021	0.00112918	0.00148858
0.000805486	0.000694805	0.000848109	0.00117072	0.0015472	0.000673263	0.00165587	0.00158204
0.000541685	0.000689383	0.000796892	0.0010191	0.00160592	0.000650005	0.00170427	0.00175241
0.00055083	0.000751236	0.000708818	0.00108148	0.0011821	0.000625919	0.00194257	0.00169801
0.00055258	0.000739806	0.000670824	0.000985958	0.000585843	0.000601033	0.00218363	0.00156059
0.000602714	0.000770082	0.000668512	0.000904851	0.000574177	0.000582445	0.00238439	0.00166962
0.000706662	0.000725937	0.000632011	0.000877642	0.000556345	0.000581004	0.0022192	0.00166228
0.000704312	0.00072818	0.000592327	0.000837707	0.000570874	0.000557712	0.00196675	0.00152852
0.000712669	0.000759173	0.000642231	0.000869713	0.000535034	0.000557777	0.00177084	0.00131154
0.000693231	0.000766791	0.000666982	0.000633817	0.000561976	0.000559321	0.00182916	0.00117697
0.000698036	0.000793085	0.000673361	0.000657206	0.000559945	0.000583137	0.00176431	0.00122063
0.000616502	0.000728259	0.000685388	0.00066517	0.000561938	0.000580665	0.00208868	0.00112235
0.000583785	0.000773465	0.000691131	0.000636	0.000564192	0.000555238	0.00242737	0.00108428
0.000615034	0.000954268	0.000737555	0.000654938	0.000611844	0.000561076	0.00286022	0.00134955
0.000714773	0.00112489	0.000834737	0.000635564	0.000624684	0.000605312	0.00556119	0.00250017
0.00085266	0.00118708	0.000932156	0.000669635	0.000710958	0.000654312	0.00683819	0.00273552
0.00103697	0.00148302	0.00114667	0.000653516	0.000742639	0.000810599	0.00844598	0.00325858
0.00122721	0.00170026	0.00113703	0.000646943	0.000744117	0.000968433	0.00841703	0.00362635
0.00130057	0.00183117	0.00116855	0.000666819	0.000798375	0.00163355	0.00969162	0.00426439
0.00129054	0.00186056	0.00125418	0.000651852	0.000795024	0.0016627	0.0103203	0.0046516
0.00132993	0.001738	0.00127115	0.000642553	0.00077541	0.00171392	0.0104359	0.00498007
0.00135035	0.00148517	0.00124663	0.000636474	0.000767137	0.00176473	0.0101886	0.00517849
0.00132147	0.00145327	0.0011971	0.000616594	0.000717622	0.00176798	0.00848738	0.00451159
0.00134525	0.00156188	0.00114855	0.000605167	0.000721323	0.00195479	0.00862054	0.00436568
0.00138479	0.00152859	0.00106736	0.000565045	0.000724168	0.00201399	0.00833372	0.0043729
0.00139999	0.00150927	0.00104537	0.000549978	0.000705314	0.00241161	0.00775592	0.00426451
0.00139133	0.00151905	0.00106963	0.000568002	0.000671539	0.00263893	0.00719162	0.0042369
0.00144347	0.00149008	0.00094202	0.000566355	0.000691721	0.00287748	0.00645667	0.00423454
0.001456	0.00145693	0.000883051	0.000582343	0.000687875	0.00296567	0.00601276	0.0038324
0.00140984	0.00140191	0.000882893	0.000558455	0.000687037	0.00310366	0.00570753	0.00349709
0.00128482	0.00149263	0.000886848	0.000583457	0.00070016	0.00319841	0.00576055	0.00362063
0.00131541	0.00165353	0.000874492	0.000593012	0.000699781	0.00331584	0.00564312	0.00426801
0.00135049	0.00151184	0.0008878	0.000593772	0.000681722	0.0034574	0.00566685	0.00424724
0.00136422	0.00151279	0.000867473	0.000596542	0.000687604	0.00367576	0.00519708	0.00392989
0.00134861	0.00146827	0.000877136	0.00060707	0.000639099	0.00393679	0.00436409	0.00374159
0.0014238	0.00160197	0.000794045	0.00061133	0.000639894	0.00398807	0.00355595	0.00346726
0.00144444	0.00161111	0.000744177	0.000618242	0.000677721	0.00400148	0.00329223	0.00308012
0.00142429	0.00163051	0.000756213	0.000623874	0.0006845	0.00416277	0.00311649	0.00292814
0.00140978	0.00197334	0.000764707	0.000656926	0.000692501	0.00413923	0.00301435	0.00283143
0.00137935	0.0020284	0.00076063	0.000669275	0.000684082	0.00398655	0.00245442	0.00259579
0.00131654	0.00207331	0.000757379	0.000673385	0.000669022	0.00401935	0.00226083	0.00250345
0.00127134	0.0020719	0.000747546	0.000691637	0.000677211	0.0043272	0.00218801	0.00248922
0.00125307	0.00228415	0.000709204	0.000696679	0.00064648	0.00428893	0.00203247	0.00249882
0.00118622	0.00249039	0.000697083	0.000702772	0.000637965	0.00429843	0.00194354	0.00236968
0.00110725	0.00247882	0.00070724	0.000682526	0.000625589	0.00447012	0.00206966	0.00235531
0.00105899	0.00271842	0.000740612	0.000725599	0.000636146	0.0044941	0.00205908	0.00237756
0.00112955	0.00272853	0.000739623	0.000736396	0.000649494	0.00436643	0.00184922	0.00188941
0.0011071	0.00262549	0.000819529	0.000751493	0.000645484	0.00442665	0.00184935	0.00140917
0.00110403	0.00272701	0.000797976	0.000746674	0.000633049	0.00437055	0.00216533	0.00154814
0.00112174	0.0036501	0.000818934	0.000742938	0.000640066	0.00385067	0.00238822	0.00196539
0.00110456	0.00379825	0.000841359	0.000755766	0.000636292	0.00358103	0.00216378	0.001994
0.00112188	0.00424493	0.000842619	0.000775072	0.0006359	0.00357289	0.00202273	0.00191646
0.00109286	0.00504213	0.000835134	0.000784351	0.000603904	0.00363571	0.00200867	0.00186411
0.0010933	0.00529918	0.000827737	0.000768322	0.000612801	0.00360656	0.00202945	0.00181038
0.00112665	0.00516198	0.000820664	0.00073747	0.000625802	0.0036314	0.00195825	0.00183184
0.00108878	0.00605888	0.000834508	0.000727581	0.000609849	0.00385837	0.0019504	0.00186951
0.0010976	0.00641483	0.000843758	0.000765331	0.000609652	0.00423373	0.00182611	0.00185267
0.00111615	0.00697163	0.000856164	0.00076166	0.000595567	0.003783	0.00169251	0.00182267
0.00125831	0.00743878	0.000840319	0.000787478	0.000582399	0.00377231	0.00168785	0.00180188
0.00128923	0.00806121	0.000849957	0.000850562	0.000584604	0.0035161	0.00169174	0.00180905
0.00140829	0.0083388	0.000839387	0.000887144	0.0005917	0.00314711	0.00156558	0.00177177
0.00149075	0.00881988	0.000815563	0.000864431	0.000576143	0.00320228	0.0015141	0.00169993
0.00147747	0.0102127	0.000816058	0.000871303	0.000551074	0.00343191	0.00151277	0.0016678
0.00152828	0.0106748	0.000755682	0.000887583	0.000542879	0.00355281	0.00148391	0.00167492
0.00153103	0.0111281	0.000759244	0.000896067	0.000561483	0.00338882	0.00111646	0.00142917
0.00150071	0.0104205	0.000749335	0.000880569	0.000538145	0.00334751	0.000835059	0.00090038
0.00144907	0.0103403	0.000710565	0.000841504	0.000542478	0.0032663	0.000799452	0.000765174
0.00135437	0.0102739	0.000684426	0.000827986	0.000532372	0.00326217	0.000757043	0.00067523
0.00135505	0.00977261	0.000690703	0.000837432	0.000531605	0.00313703	0.000743717	0.000655727
0.00148434	0.00988427	0.000683949	0.000913466	0.000530392	0.00308712	0.000719412	0.000649204
0.00161375	0.0113183	0.00070775	0.000925703	0.000530346	0.00314109	0.000726419	0.000615521
0.00181655	0.0108037	0.000693336	0.000931106	0.000553345	0.00281577	0.000718282	0.000596795
0.00197809	0.0111413	0.000703103	0.00097782	0.000564068	0.0024388	0.000736295	0.000597933
0.00215601	0.0114319	0.000716228	0.000983391	0.000566592	0.00227687	0.000728696	0.00058981
0.00213335	0.0110917	0.000725077	0.000991968	0.000587688	0.0021035	0.000738634	0.000601518
0.00236826	0.0103395	0.000704619	0.000926979	0.000586193	0.00206442	0.000742789	0.000589041
0.00223951	0.0100694	0.000697661	0.000898777	0.000580896	0.00203704	0.000740855	0.000603332
0.0021462	0.00950033	0.000704011	0.0009253	0.000576889	0.00186463	0.00074382	0.000606348
0.00210783	0.00963108	0.000695111	0.000959028	0.000576438	0.00157408	0.000733498	0.000612157
0.00218131	0.00965326	0.000676197	0.00103146	0.000577687	0.00133582	0.000737383	0.000631276
0.00225036	0.00981819	0.000677786	0.00107535	0.000575512	0.00133508	0.00062054	0.000621277
0.0022617	0.0100525	0.000679054	0.00108018	0.000560754	0.00126636	0.000581976	0.000603062
0.00230477	0.0108733	0.000686313	0.00117185	0.000560376	0.00122145	0.000589875	0.000608475
0.00233938	0.0112128	0.000711452	0.00122489	0.00055836	0.00121703	0.000592705	0.000607345
0.00243571	0.0127077	0.000717624	0.00125597	0.000550244	0.00113627	0.000591487	0.000600972
0.00249692	0.0146096	0.000707848	0.00118448	0.000544577	0.00113163	0.000585492	0.00061875
0.00231296	0.0132903	0.000693099	0.0013167	0.000548288	0.00107066	0.000570486	0.000635774
0.00210619	0.0131987	0.000692824	0.00137392	0.000518699	0.00108699	0.000565679	0.000636006
0.00198676	0.0138199	0.000676996	0.00132675	0.000507218	0.00105592	0.000567339	0.000652762
0.00186241	0.0137963	0.000647721	0.00133271	0.000505112	0.00101528	0.000566883	0.000638586
0.00174489	0.0139827	0.000655123	0.00133294	0.000495472	0.000980144	0.000539259	0.000640213
0.00148943	0.015077	0.000644397	0.00136245	0.00049009	0.000980385	0.000531337	0.00066888
0.00157681	0.0167676	0.000639688	0.00139239	0.000490554	0.000958556	0.000514239	0.000657066
0.00180578	0.0174111	0.000622829	0.0013507	0.000481606	0.00102682	0.000524791	0.000667246
0.00189387	0.0171171	0.000596957	0.00128558	0.000481104	0.00115826	0.000539978	0.00063118
0.00188232	0.0169219	0.00058823	0.00130583	0.000477711	0.00114953	0.000536831	0.000632197
0.00184049	0.0162414	0.000591211	0.00134585	0.000487846	0.00111617	0.000549191	0.000626649
0.0018618	0.0160261	0.000589375	0.00138981	0.000493469	0.00110711	0.000539036	0.000669273
0.00182804	0.0161129	0.000585678	0.00134686	0.000508917	0.00111211	0.000545109	0.000684818
0.0017642	0.0169465	0.000581864	0.00151328	0.000521908	0.00112279	0.000552453	0.000727927
0.00163197	0.0158846	0.00056565	0.00161492	0.000521244	0.00110811	0.000567703	0.000791704
0.00148	0.0139638	0.000558344	0.00167875	0.000535602	0.0011	0.000579261	0.000774533
0.00148422	0.0134835	0.000557361	0.00160665	0.000521174	0.00109063	0.000572032	0.000766416
0.00147239	0.0132512	0.000572925	0.00157624	0.000551316	0.00111839	0.000571767	0.000777659
0.00142408	0.0118507	0.000591607	0.00158424	0.000566555	0.00112075	0.000571184	0.000774958
0.00154107	0.0112881	0.000617275	0.00161634	0.000576821	0.00108783	0.000593921	0.000783978
0.00163313	0.0106372	0.000627032	0.00164221	0.000597826	0.00114994	0.000606049	0.000799704
0.00167746	0.0102556	0.000663344	0.00185142	0.000658271	0.00118877	0.000621315	0.000796231
0.00161317	0.00847987	0.000683538	0.00188491	0.000704116	0.00120063	0.000634255	0.00083328
0.00135028	0.00752317	0.000733939	0.00192958	0.00073199	0.00105071	0.000614057	0.000854261
0.00123221	0.00668117	0.00076336	0.00196306	0.000753496	0.000939075	0.00059003	0.000864395
0.00110188	0.00660567	0.000801075	0.00186717	0.000767844	0.000953569	0.000588516	0.000892629
0.00103376	0.00662783	0.000877592	0.00180281	0.000919038	0.000988101	0.000614742	0.000908328
0.0010001	0.00629628	0.000999655	0.00175029	0.000989314	0.000999405	0.000603297	0.000917077
0.000999671	0.00515341	0.0010174	0.00170876	0.0010283	0.00116778	0.000617571	0.000917045
0.00101834	0.00351359	0.00105922	0.00151257	0.00105053	0.00168355	0.000631057	0.000888156
0.00100024	0.00287775	0.00113408	0.00141208	0.00109603	0.0017204	0.000630444	0.00086149
0.000985085	0.00280261	0.00116445	0.0014068	0.00115257	0.00170251	0.000651574	0.00109844
0.000961493	0.00275127	0.00119238	0.00132481	0.00116919	0.00165659	0.000808143	0.0014485
0.000896712	0.00350703	0.00133576	0.00124872	0.0013169	0.00155308	0.00103045	0.00157678
0.000566306	0.00264758	0.00131134	0.000893855	0.00127508	0.00143605	0.00105406	0.00201013
0.000549056	0.00245206	0.00130934	0.00071887	0.00128116	0.00145441	0.00107107	0.00225868
0.000559864	0.00210617	0.00143182	0.000692243	0.00138534	0.0014127	0.00128598	0.0027866
0.000578995	0.0019873	0.00140055	0.000690509	0.00140162	0.000894644	0.00128064	0.00315085
0.00057416	0.0019026	0.00147569	0.000578324	0.00143639	0.000647887	0.00129768	0.00341831
0.000568416	0.00121977	0.00136348	0.000603497	0.00135431	0.000657372	0.00100054	0.00366517
0.000569601	0.00103363	0.00149811	0.000598395	0.0012732	0.000714255	0.00131763	0.00360304
0.000560756	0.000999551	0.00155058	0.00060375	0.00120503	0.000729378	0.00136885	0.00443815
0.000557582	0.00095293	0.00141496	0.000695745	0.00098007	0.000717745	0.00137733	0.00437428
0.000535458	0.000982034	0.00145242	0.000700392	0.0010242	0.000682327	0.00114887	0.00431932
0.000556919	0.00105136	0.00139919	0.000743907	0.000853811	0.000690937	0.00110673	0.00407966
0.000534445	0.00102146	0.00125803	0.000726089	0.000816549	0.000690586	0.00108789	0.00458316
0.000517457	0.00105412	0.00119344	0.00073711	0.000820938	0.000674722	0.000839389	0.00415308
0.000516732	0.000964411	0.00110105	0.000725827	0.000903694	0.000635826	0.000708639	0.00382925
0.00052453	0.0010214	0.00115145	0.000698234	0.000973337	0.000672137	0.000667077	0.00368373
0.000511931	0.00106751	0.0010425	0.000654481	0.000898426	0.00070872	0.00067616	0.00388633
0.000485462	0.00101476	0.00104525	0.000701584	0.000821974	0.000743549	0.000677137	0.00366948
0.000504876	0.000995656	0.00105738	0.000666368	0.000824498	0.000758462	0.000844364	0.00322862
0.000526204	0.00100404	0.00112014	0.000677191	0.000851148	0.000741116	0.00087618	0.00353422
0.000561685	0.00087523	0.00106455	0.000663253	0.000846322	0.000732513	0.000905689	0.00414831
0.000571446	0.00094528	0.000924596	0.00069579	0.00080713	0.000750432	0.000945687	0.00417698
0.000562786	0.000847576	0.00095497	0.000712574	0.000848814	0.00078903	0.000917028	0.00389281
0.000571274	0.000801197	0.0010549	0.00065261	0.000882208	0.000727146	0.000970532	0.00402023
0.0005952	0.000879116	0.000979716	0.000664646	0.000852661	0.000740383	0.000954971	0.00436768
0.000575997	0.000843382	0.000987165	0.00066112	0.000916122	0.000714973	0.000761218	0.00517833
0.000569802	0.000824242	0.00102004	0.000698819	0.00094743	0.000731232	0.000726249	0.00496479
0.000541727	0.000817366	0.00113027	0.000825829	0.00102155	0.000697114	0.000716495	0.00530562
0.000540893	0.000764478	0.00112078	0.000809818	0.000945928	0.000732392	0.000705822	0.00504502
0.000544979	0.000761102	0.00100876	0.000842577	0.000856323	0.000721443	0.000672785	0.00499871
0.000533734	0.000751715	0.00107614	0.000927555	0.000907918	0.000704108	0.000683021	0.00469891
0.000510493	0.000857471	0.00102271	0.00098905	0.000875184	0.000701494	0.000680981	0.00421574
0.000520107	0.000856157	0.00110523	0.00104973	0.000850192	0.000706046	0.00074785	0.00414284
0.000526795	0.000854078	0.000996243	0.000979214	0.00090012	0.000709154	0.000776142	0.00345177
0.000513396	0.000891446	0.000980681	0.00108545	0.000900624	0.00068938	0.000834729	0.00366881
0.00053381	0.000893789	0.000998172	0.00110763	0.000910393	0.00066153	0.00088682	0.0039366
0.000530009	0.000871956	0.000963395	0.00100261	0.00089995	0.000652982	0.000895267	0.00397129
0.000531011	0.000809805	0.000954749	0.00102715	0.00091679	0.000699578	0.000872225	0.00405265
0.000550458	0.000751497	0.000981608	0.000881533	0.000839489	0.000680802	0.000954281	0.004105
0.000555983	0.000722035	0.000923228	0.00083416	0.000844712	0.000655384	0.000939368	0.00415743
0.000547491	0.000673659	0.000916127	0.000760044	0.000792425	0.000663774	0.000943638	0.00419211
0.000532433	0.000626477	0.000926074	0.000770836	0.000767501	0.00068873	0.000902121	0.00390499
0.00055075	0.000651265	0.00104633	0.000791657	0.000771671	0.000667989	0.000917959	0.00378074
0.00055482	0.000661431	0.000992939	0.000769629	0.000750391	0.000647762	0.000896908	0.00324854
0.000527312	0.000648107	0.000927722	0.000773762	0.000736909	0.000672381	0.000796188	0.00317162
0.000526518	0.00067012	0.00107144	0.000931165	0.000751698	0.000663417	0.000812259	0.00288543
0.000536929	0.0006928	0.00115473	0.00103087	0.000771015	0.000680848	0.000782466	0.00275905
0.000534152	0.000674023	0.00122194	0.000986203	0.000795182	0.000640944	0.000766155	0.002679
0.000708729	0.000656243	0.00110391	0.000979913	0.000778805	0.000621356	0.000712562	0.00254523
0.000736981	0.000625465	0.00109778	0.00110327	0.000741344	0.000627738	0.00104151	0.00264992
0.000874069	0.000622681	0.00126744	0.00114091	0.000837504	0.000620771	0.00145898	0.00285973
0.000918187	0.000615625	0.00111272	0.00120436	0.000788782	0.00059686	0.00203729	0.00303816
0.000908858	0.000613812	0.00106247	0.00123574	0.000804555	0.00057678	0.0020707	0.00306767
0.000921478	0.00063875	0.000978875	0.00117189	0.000760181	0.000593102	0.00211106	0.00251433
0.00075338	0.000640819	0.00106652	0.00126836	0.000887136	0.000593988	0.00214109	0.00292767
0.000681602	0.000642643	0.00109374	0.00130088	0.000891557	0.00060393	0.00200578	0.00310221
0.00053271	0.000644899	0.000903404	0.00130761	0.00083238	0.00060608	0.00215968	0.0034537
0.000638376	0.00064624	0.00102883	0.00126816	0.000822536	0.000624746	0.00132218	0.00282747
0.000646811	0.000593524	0.00103176	0.00105659	0.000855938	0.000644536	0.00117254	0.00232383
0.000713542	0.000604382	0.00101702	0.00133094	0.000827655	0.000622855	0.00115995	0.00256246
0.000799709	0.000596187	0.00103899	0.00130643	0.00077571	0.000604973	0.00114497	0.00219615
0.000915934	0.000595524	0.000986222	0.00118498	0.000748761	0.000655939	0.00150043	0.0024508
0.00114909	0.000647438	0.00109312	0.00143496	0.000816988	0.000653566	0.0012273	0.0018728
0.00115673	0.000655329	0.0011101	0.00152169	0.000887519	0.000660435	0.00122138	0.00178265
0.00107181	0.000664134	0.00104182	0.00142548	0.000881588	0.000599805	0.00122278	0.00202538
0.00122273	0.000682297	0.00111983	0.00158199	0.000847064	0.000611803	0.00158913	0.00198701
0.00114819	0.000701404	0.00112973	0.0016746	0.000875804	0.000617971	0.0015079	0.00165473
0.00102793	0.000760142	0.00113362	0.00175029	0.000894567	0.000577072	0.00158636	0.00147984
0.0010568	0.000714115	0.00103713	0.00137305	0.000848453	0.00059249	0.00196085	0.00139595
0.00100259	0.000675963	0.000894739	0.00121687	0.000778798	0.000616554	0.00204452	0.00193513
0.00100222	0.000659022	0.000927724	0.00122398	0.000784422	0.000654877	0.00220835	0.00218806
0.000934714	0.000631791	0.000899651	0.000999338	0.000827001	0.000654022	0.00222543	0.00232164
0.000822458	0.000582305	0.000758238	0.000709987	0.000723397	0.00065409	0.00231941	0.00242887
0.000847142	0.00067952	0.000744163	0.000617949	0.000721376	0.000658927	0.0029665	0.0026241
0.000821427	0.000849456	0.000734956	0.000607884	0.000666507	0.000664286	0.00267434	0.00275806
0.000637056	0.000872701	0.000719303	0.000600869	0.000644661	0.000603746	0.00215275	0.00211537
0.000677952	0.000888283	0.000735743	0.000602763	0.000653252	0.000591579	0.00219301	0.00213514
0.000775895	0.000912044	0.000769485	0.000623679	0.000635632	0.000575622	0.00169525	0.00186414
0.000772897	0.00093327	0.000761196	0.000623826	0.000716575	0.00060041	0.00156594	0.00183874
0.000759099	0.000926413	0.000760757	0.000649232	0.000749865	0.000612103	0.00154625	0.00194131
0.000715637	0.000682417	0.000795061	0.000741851	0.000746594	0.000600854	0.00119939	0.00173806
0.000668794	0.000659461	0.000819245	0.000692545	0.000743973	0.000654578	0.00111895	0.00176471
0.00066893	0.000663418	0.000796345	0.000697961	0.00074697	0.000679706	0.00111421	0.00155815
0.000520252	0.000748052	0.000759592	0.000712882	0.00073732	0.000679484	0.001202	0.00157446
0.000520544	0.000821266	0.000744807	0.00070406	0.000613029	0.000671288	0.00130531	0.00235612
0.000503127	0.000868995	0.000738751	0.000690874	0.000583711	0.000672112	0.00136983	0.00239282
0.00052315	0.000866035	0.000715731	0.000672326	0.000552108	0.000656176	0.0013299	0.00210639
0.000516803	0.000887453	0.000682571	0.000603896	0.000524399	0.000632238	0.00176401	0.00205377
0.000528904	0.000877124	0.000666196	0.000612309	0.000538402	0.000580112	0.00210711	0.00216172
0.000520452	0.000892164	0.000676471	0.0005996	0.000554553	0.000571665	0.00286807	0.00223653
0.000533807	0.000711619	0.00068631	0.000558996	0.000551933	0.000555898	0.00315461	0.00207781
0.000541603	0.000734659	0.000672533	0.000587431	0.000553749	0.000553002	0.00387279	0.00219285
0.000592569	0.000691336	0.000668053	0.000566364	0.000567359	0.000539728	0.00469898	0.00298451
0.000724434	0.000913638	0.000857359	0.000575032	0.000594062	0.000595208	0.00489816	0.00389392
0.000800423	0.00117774	0.000876288	0.000611829	0.000658809	0.000596283	0.0069792	0.0045828
0.000838435	0.00117769	0.000845264	0.000609441	0.000613976	0.000590151	0.00718322	0.00462734
0.000944256	0.00135505	0.000967111	0.000646745	0.000645836	0.000655431	0.00770389	0.00475198
0.00106258	0.00165475	0.00101423	0.000747288	0.0007003	0.000769383	0.00804495	0.0053624
0.00117846	0.00168984	0.0010768	0.000778971	0.000748674	0.000919783	0.00907291	0.00651578
0.00117472	0.00147993	0.00093697	0.000849994	0.000765009	0.00131787	0.00881107	0.00587869
0.00116027	0.00151631	0.000924983	0.000897352	0.000789235	0.00146114	0.00894568	0.00580238
0.00119181	0.00161776	0.000950263	0.000924723	0.000812555	0.00162789	0.00933556	0.00602344
0.00122915	0.00164769	0.000932536	0.00101751	0.000782956	0.00188421	0.00757623	0.00577156
0.00131025	0.00165949	0.00094604	0.00106191	0.000797726	0.00238006	0.00724405	0.00542099
0.00135967	0.00167662	0.000966261	0.00107111	0.000801939	0.00260485	0.00729456	0.00541514
0.0013397	0.00167112	0.000993951	0.00107624	0.000831058	0.00263596	0.00775752	0.00542771
0.00134387	0.00167862	0.00101975	0.00107878	0.000841698	0.00268625	0.00747284	0.00520942
0.00132518	0.00171167	0.000958186	0.00111103	0.000837527	0.00276343	0.00752847	0.00527482
0.00133086	0.0021485	0.000928554	0.00112188	0.000840686	0.0028306	0.0079988	0.00548321
0.00142563	0.00226592	0.000902565	0.00122409	0.000830175	0.0032326	0.00713512	0.00535303
0.00156679	0.0022033	0.000902691	0.00125541	0.000799176	0.00352346	0.00692612	0.0047823
0.00154002	0.00217723	0.000902268	0.0012166	0.000812902	0.00400962	0.00684805	0.00482887
0.0015184	0.00236665	0.00088564	0.00122353	0.000801193	0.0043052	0.00676357	0.00465341
0.00144796	0.00235462	0.00088683	0.00123696	0.00077567	0.00438044	0.00566466	0.00384021
0.00142726	0.00247912	0.000847607	0.00123292	0.000761903	0.00435141	0.00535071	0.00381232
0.00147795	0.00265092	0.000829	0.00127637	0.000742331	0.00431759	0.00499868	0.00406133
0.0015873	0.00297829	0.000817241	0.00127282	0.000740415	0.00437169	0.00490275	0.00372202
0.00154255	0.00300122	0.000840515	0.00124031	0.000744063	0.00451386	0.00497704	0.00351479
0.00157486	0.00293628	0.000845984	0.00121711	0.000723585	0.00471424	0.00513135	0.0035746
0.00153669	0.00280477	0.00084445	0.00109333	0.000727015	0.00495589	0.0054407	0.00359915
0.00146192	0.00354926	0.000875628	0.00101696	0.000712988	0.00447916	0.00555309	0.00373152
0.00140689	0.00373696	0.000845029	0.00103945	0.000691122	0.00414697	0.00539235	0.00374362
0.00144373	0.00374853	0.000818306	0.00103808	0.000680305	0.004093	0.00516616	0.0036934
0.00145686	0.00390463	0.000806267	0.00103212	0.000664431	0.0041711	0.00447	0.00366372
0.00148904	0.00392694	0.000798942	0.00102968	0.000639704	0.00413239	0.00421994	0.00349607
0.00152828	0.00388832	0.000813762	0.000976806	0.000634353	0.00436401	0.0038069	0.00322537
0.00152296	0.00341909	0.000832563	0.000924444	0.000611827	0.00433965	0.0034279	0.00287409
0.00130415	0.00360432	0.000824654	0.000898321	0.000609437	0.00422025	0.0033025	0.00271314
0.00129131	0.00399399	0.000821538	0.000864197	0.000611873	0.00399794	0.00328355	0.00275167
0.00131944	0.00393839	0.000827578	0.000857525	0.000610485	0.00357109	0.00321506	0.00272978
0.00144973	0.00423579	0.000827094	0.000879835	0.000634329	0.00341077	0.00317241	0.0027493
0.00154838	0.00468191	0.000815766	0.000873387	0.000620225	0.00344232	0.00317185	0.0027781
0.00153505	0.0051156	0.000825284	0.000851083	0.000623836	0.00372342	0.00316387	0.00214693
0.00148365	0.00520725	0.000832452	0.000909194	0.000615513	0.00390835	0.00315496	0.00197878
0.0015178	0.0054538	0.00080861	0.000972285	0.00060371	0.00370628	0.00284689	0.00192105
0.00153417	0.00557286	0.000778021	0.000970626	0.000598217	0.00363847	0.00241798	0.00175623
0.00153339	0.00604989	0.000767272	0.000978527	0.00058697	0.00338329	0.00172196	0.00143102
0.00162958	0.00657089	0.000748365	0.00102281	0.000572658	0.00346199	0.00139174	0.00115086
0.00174704	0.00668369	0.000743776	0.00105136	0.000574898	0.00351431	0.00105224	0.00104444
0.00173435	0.00671345	0.000754217	0.00104579	0.000573579	0.00352495	0.00104104	0.00101908
0.00171405	0.00677815	0.000754559	0.00103744	0.00057311	0.00356412	0.00104094	0.00102479
0.0016822	0.00686799	0.000736126	0.00105772	0.000571525	0.0035219	0.00104432	0.00102527
0.00168868	0.00740256	0.000739195	0.0010624	0.000583147	0.00342002	0.000906114	0.00100079
0.00174134	0.00829809	0.000695918	0.00110305	0.000578512	0.00324281	0.000797373	0.000891626
0.00194396	0.00851393	0.000677734	0.00104914	0.000578859	0.00291235	0.000762618	0.000881383
0.00197469	0.00818672	0.000658694	0.00101446	0.000580612	0.00274312	0.000768794	0.000822773
0.00194995	0.0088239	0.000659342	0.00105222	0.000558035	0.00262048	0.000731858	0.00069855
0.00188003	0.00924114	0.000657695	0.0010444	0.000549546	0.00265311	0.000686974	0.000649311
0.00187472	0.00961941	0.000660019	0.00107248	0.000536104	0.0026722	0.00069007	0.000631222
0.00194324	0.010228	0.000657463	0.00112485	0.000533556	0.00245295	0.000690749	0.000595701
0.00200704	0.0109994	0.000654514	0.00106676	0.000536941	0.00222843	0.000691644	0.000615868
0.00198472	0.0110529	0.000664095	0.00103377	0.000526022	0.00197947	0.000690739	0.000633665
0.00195413	0.0115779	0.000656342	0.00111999	0.000521732	0.00191015	0.000696141	0.000623533
0.00190823	0.0117425	0.000670949	0.00112813	0.00052152	0.00185098	0.000693471	0.000612103
0.00182473	0.0127816	0.000663757	0.00111633	0.000511911	0.00163487	0.000694118	0.000620642
0.00168397	0.0124908	0.000657404	0.00109584	0.000510297	0.0014693	0.00069561	0.000633369
0.0016487	0.0126911	0.000662003	0.00111414	0.000512767	0.00150802	0.000680049	0.000637213
0.00166523	0.0134656	0.00065542	0.00111729	0.000509549	0.00148794	0.000670867	0.000653757
0.00178182	0.014354	0.000658833	0.00114186	0.000525086	0.00140107	0.000673498	0.000654926
0.00201316	0.0147162	0.000654915	0.00123282	0.000528109	0.0013986	0.000675267	0.000660905
0.00202008	0.0146683	0.000636784	0.00126485	0.000520158	0.00139088	0.000676187	0.000647538
0.00186077	0.0141842	0.000652645	0.00129133	0.000535181	0.00136495	0.000677844	0.000636957
0.0017864	0.0141821	0.000654862	0.0013847	0.000530147	0.00137379	0.000678084	0.000649498
0.00175853	0.0136162	0.000635742	0.00137997	0.000532075	0.0014025	0.000657027	0.000655603
0.00173885	0.0148664	0.000620711	0.00140973	0.000523307	0.00133759	0.000577323	0.000658112
0.00169322	0.0146663	0.0006279	0.00146807	0.000525299	0.00130321	0.000568088	0.000665111
0.00162488	0.0145038	0.000617582	0.00146869	0.000525809	0.0013239	0.000570503	0.000696634
0.00155601	0.0133293	0.000603896	0.00149174	0.000532435	0.00136966	0.000574349	0.000680439
0.0015563	0.0136269	0.000613541	0.0016294	0.000533735	0.00140593	0.000575864	0.000682331
0.00176234	0.0133922	0.00061182	0.00162938	0.000541613	0.0013443	0.000580265	0.000681477
0.00183267	0.0132964	0.000608606	0.00155141	0.000537845	0.00119048	0.000573173	0.000697983
0.00183671	0.012611	0.000609784	0.00162704	0.000531857	0.00115586	0.000561208	0.00070724
0.00184004	0.0114064	0.000612725	0.00164264	0.000531154	0.00113425	0.000563151	0.000693144
0.00179826	0.0120967	0.000608628	0.00162507	0.000521948	0.00112025	0.00055838	0.00071299
0.00182486	0.0121096	0.00061374	0.00170286	0.000540063	0.0010836	0.000567791	0.000703221
0.00174217	0.0116703	0.000592773	0.00169966	0.000651702	0.00113242	0.000572255	0.000694363
0.00162806	0.0114714	0.000608899	0.00164218	0.000654311	0.00118513	0.000581416	0.000702134
0.00148057	0.010783	0.0006166	0.00159119	0.000662414	0.00114106	0.000581106	0.000710638
0.00153003	0.0106677	0.000637105	0.0015653	0.000654694	0.00113182	0.000568009	0.000727658
0.00148286	0.0107675	0.0006316	0.00153072	0.000649385	0.00114116	0.000554916	0.00072916
0.00143398	0.0107448	0.000643416	0.00151584	0.000660622	0.0011218	0.000547277	0.000763311
0.00145401	0.0101993	0.000658309	0.00151796	0.000662582	0.00106224	0.000549476	0.000798379
0.00145148	0.00894168	0.000690185	0.0014355	0.00067717	0.00107441	0.000548285	0.000806394
0.00139707	0.00800977	0.000679039	0.00132922	0.000676448	0.00105725	0.000563798	0.000780359
0.00131677	0.00781764	0.000764402	0.00136788	0.000703037	0.00113983	0.000570196	0.000785657
0.0012657	0.00765142	0.000781819	0.00134174	0.000726797	0.0012249	0.00056278	0.000802206
0.00103264	0.00736297	0.000796698	0.00122807	0.000745816	0.00116115	0.000554719	0.000870592
0.000930334	0.0070236	0.000815488	0.00122633	0.000749188	0.00114341	0.000555936	0.000927259
0.000918169	0.00670715	0.000804815	0.00120467	0.000754065	0.00115518	0.000578365	0.000943692
0.000914381	0.00624817	0.000841091	0.00114021	0.000755862	0.00115663	0.000591099	0.000941932
0.000937364	0.00576025	0.00086429	0.00111932	0.000788481	0.00117586	0.000610254	0.000965689
0.000938914	0.00483164	0.000901516	0.00110419	0.00080425	0.00117185	0.000623808	0.000984942
0.000839358	0.00415574	0.000971084	0.00101867	0.000758861	0.00117853	0.00062932	0.00105154
0.000872214	0.00355185	0.000982487	0.00101271	0.000692331	0.00120634	0.000622179	0.00107963
0.000835012	0.00311215	0.000980487	0.00101016	0.000679383	0.00122214	0.000616547	0.00109066
0.000758949	0.00259594	0.0010066	0.000994615	0.000700256	0.00128861	0.000626355	0.00117647
0.000730239	0.00244692	0.00105592	0.000960653	0.000761421	0.00139916	0.00065065	0.00116918
0.000724273	0.0023782	0.00107444	0.000901047	0.00078484	0.00143788	0.000653417	0.0011863
0.000673013	0.00232249	0.00110178	0.000912479	0.000782205	0.00143468	0.000649562	0.00116036
0.000667584	0.0027208	0.00107325	0.000931396	0.000824692	0.00140517	0.000658251	0.00115123
0.000664967	0.00329044	0.00107888	0.000844219	0.000944294	0.00111553	0.000680407	0.00130933
0.000649219	0.00257991	0.00112447	0.000769224	0.00116628	0.00103266	0.000710352	0.00148264
0.000598044	0.00238387	0.00117244	0.000773916	0.00126943	0.00107557	0.000714862	0.00167788
0.000566345	0.00238797	0.00109981	0.000852671	0.0013997	0.000921728	0.000700291	0.00174149
0.000534848	0.00231834	0.00105116	0.000810783	0.00134808	0.000683222	0.000859736	0.00229829
0.000582109	0.00178955	0.00109097	0.000746339	0.00145506	0.00065567	0.00094183	0.00288013
0.000583655	0.00109347	0.00104274	0.000749168	0.00133727	0.000668336	0.000983892	0.00340354
0.000562109	0.00101514	0.00100144	0.000707217	0.00115252	0.000690648	0.00107977	0.00333035
0.000561672	0.00103651	0.000935253	0.000685369	0.00110033	0.000642756	0.00121085	0.00318406
0.000553155	0.00105701	0.000953327	0.000571851	0.000957445	0.000690552	0.00133402	0.00314902
0.000547761	0.00122416	0.000956603	0.000581626	0.000961066	0.000768818	0.0011448	0.00253891
0.0005009	0.00117711	0.000938935	0.000589537	0.00085637	0.000805074	0.00105348	0.00242765
0.000493126	0.00099277	0.000937093	0.000580897	0.000835773	0.000850942	0.00102452	0.00222168
0.000491062	0.000953265	0.000940103	0.00058074	0.000790583	0.00082309	0.000959567	0.00300513
0.000517559	0.000919368	0.000985091	0.000599031	0.000817843	0.000796349	0.000990615	0.00339
0.000530051	0.000773724	0.00100373	0.000597192	0.000826428	0.000730996	0.000874082	0.00358758
0.000530469	0.000637721	0.000970156	0.000615258	0.000863	0.000695112	0.000908363	0.00377903
0.000529773	0.000715834	0.000927492	0.000662969	0.000861102	0.00065255	0.000923328	0.00352054
0.000514556	0.000721261	0.000938308	0.00067552	0.000844052	0.000604768	0.000855948	0.00339529
0.000521752	0.000706286	0.000954228	0.000693951	0.000870734	0.000655039	0.000791729	0.0029129
0.000518775	0.000769944	0.00108065	0.000653509	0.000951703	0.000688725	0.000664883	0.00287157
0.000512071	0.000811552	0.00110371	0.000654658	0.00100415	0.000696812	0.00064755	0.00287273
0.000519597	0.000745679	0.00113063	0.000613367	0.000964577	0.000700086	0.000658735	0.00317993
0.000525731	0.000673702	0.00113935	0.000570246	0.000945922	0.000737496	0.000829609	0.0034942
0.000542941	0.000682416	0.00112146	0.000571067	0.000939476	0.000743199	0.000866575	0.00397527
0.000534428	0.000710435	0.0011558	0.000563067	0.000961144	0.000736013	0.000875143	0.00374062
0.000507087	0.000716051	0.000992219	0.000580571	0.000802411	0.000727633	0.000846552	0.00390167
0.000514661	0.000703485	0.000916993	0.000584331	0.000764371	0.000713309	0.000887768	0.00428424
0.000526755	0.000757151	0.000887756	0.000583742	0.000756371	0.000696529	0.00084395	0.00427998
0.000535461	0.000763717	0.00088218	0.000607551	0.000738735	0.000662632	0.000739225	0.00419423
0.00055861	0.000772499	0.000900632	0.000567415	0.000739819	0.000711876	0.000994722	0.00393027
0.000580867	0.000762149	0.000863678	0.000544842	0.000776481	0.000682821	0.00102272	0.00433553
0.000587834	0.000684475	0.000907454	0.000561001	0.000817923	0.000641134	0.00103709	0.00434677
0.000575521	0.000688535	0.000967432	0.000597367	0.000804633	0.000708932	0.00102542	0.00457249
0.000553089	0.000630408	0.00101928	0.000590801	0.000791148	0.000766789	0.00104092	0.00426644
0.000535077	0.000607846	0.00104429	0.000571599	0.000816571	0.00076408	0.00096461	0.00440679
0.00063674	0.00057989	0.00108678	0.000781246	0.000891189	0.000706442	0.000721975	0.00432395
0.00066312	0.000571067	0.00108565	0.000817934	0.00091588	0.00070029	0.000715071	0.00372478
0.000654851	0.000586557	0.00107625	0.000896437	0.000871606	0.000701658	0.000703317	0.00375713
0.000775526	0.00059002	0.0010387	0.00134515	0.000852483	0.000646844	0.000688291	0.0032588
0.000798803	0.000603554	0.00105551	0.00137294	0.000860336	0.000599736	0.000730813	0.00361262
0.000798334	0.000619057	0.00109747	0.00158415	0.000904777	0.000760306	0.000887313	0.00354237
0.000675905	0.000651631	0.00107313	0.00184425	0.00093547	0.000750185	0.000854914	0.00360018
0.000640472	0.000683682	0.00104682	0.00192221	0.000999052	0.000747658	0.000947007	0.00378481
0.000655839	0.000669607	0.000977522	0.00182251	0.000985967	0.000767799	0.00113804	0.00368603
0.000556471	0.000647539	0.00098457	0.00135254	0.00101156	0.000798179	0.00139686	0.00355862
0.000545336	0.000675559	0.000977562	0.00135811	0.00103989	0.000781808	0.00141776	0.00330056
0.000584342	0.000670425	0.000923248	0.00135862	0.00116932	0.000639598	0.00133021	0.00348869
0.000557719	0.000658345	0.000992716	0.000972294	0.00192894	0.000650639	0.0014813	0.00344738
0.000574275	0.000628748	0.00100793	0.00108532	0.00172616	0.000653536	0.00169493	0.00330442
0.000654921	0.000635111	0.00100407	0.00114349	0.00177029	0.000661148	0.00211524	0.00333265
0.000623059	0.000637074	0.00101151	0.00114963	0.00181377	0.000711468	0.00199626	0.00336111
0.000630832	0.000602759	0.000963445	0.00125219	0.00206046	0.000706697	0.00191337	0.00327708
0.00069913	0.000618891	0.00106037	0.00138377	0.00256356	0.000683365	0.00190845	0.00267428
0.000758627	0.00061532	0.000983149	0.00145726	0.00184785	0.000681884	0.00179612	0.00234379
0.000825255	0.000634241	0.000987518	0.00127339	0.00188657	0.000711522	0.00178442	0.00261324
0.000806439	0.000631754	0.00105251	0.00149791	0.00203604	0.000686871	0.00182345	0.0025569
0.000858551	0.000658704	0.00105445	0.00163327	0.00307882	0.000601578	0.00178786	0.00252428
0.000844512	0.000643567	0.00105166	0.00152022	0.00337422	0.000647779	0.00186464	0.00239976
0.000796143	0.000646527	0.00100579	0.00145227	0.00271395	0.000644901	0.0026305	0.00287285
0.000918097	0.000653246	0.00098135	0.00179248	0.00312566	0.000641508	0.00271259	0.00286149
0.000837628	0.00063737	0.00102013	0.00185797	0.00332789	0.000627945	0.00241688	0.00269914
0.000909946	0.000656693	0.00101696	0.00181524	0.00441721	0.000643054	0.00176617	0.00233521
0.00102176	0.000671166	0.00112675	0.00204187	0.00355472	0.000673581	0.00174344	0.00221496
0.00107593	0.000748834	0.00117739	0.00242719	0.00356471	0.000642984	0.00166178	0.00215173
0.00103469	0.000737002	0.00114759	0.00216752	0.00351644	0.000648999	0.000870081	0.0016982
0.00133135	0.000807342	0.00121452	0.00245969	0.00312843	0.000623884	0.000938212	0.00165299
0.00159194	0.000801737	0.00117283	0.00251685	0.00348282	0.000602971	0.000933458	0.00144757
0.0014757	0.000779718	0.00122059	0.00272982	0.00224792	0.000621453	0.00121972	0.00192561
0.00137569	0.000735822	0.00114673	0.00243043	0.00201067	0.000590566	0.00152392	0.00189846
0.00133313	0.000691274	0.00118563	0.0022894	0.00172212	0.000557913	0.00182814	0.00206407
0.00132061	0.000686508	0.0011876	0.00231286	0.0022224	0.000564021	0.00185134	0.0019318
0.000845918	0.00068661	0.00107617	0.00164056	0.00201239	0.000641534	0.00211854	0.00239962
0.000617664	0.000754606	0.00104491	0.00148188	0.00144433	0.000737846	0.0025175	0.00252272
0.000596377	0.000776331	0.00094217	0.00106949	0.00140292	0.000739928	0.00230853	0.00197935
0.000547468	0.000785192	0.000873703	0.00105281	0.00137415	0.000733616	0.00228555	0.00195067
0.000605855	0.00081367	0.000803996	0.00119967	0.00108098	0.000761832	0.00227198	0.0019201
0.000953052	0.000844843	0.000750869	0.00118643	0.000582909	0.000758283	0.00223568	0.00190867
0.000941657	0.000772556	0.000770999	0.00116218	0.000567074	0.000698798	0.00209382	0.00161637
0.000905382	0.000709293	0.000744972	0.00118142	0.000595546	0.000629231	0.00263617	0.0018339
0.000892149	0.000764714	0.000731135	0.00138802	0.000695992	0.000588186	0.00266535	0.00191671
0.000902129	0.000762113	0.000739439	0.00137426	0.000680096	0.000574345	0.0024649	0.00189209
0.000858478	0.000697635	0.00072258	0.000998162	0.000662866	0.000574293	0.00235199	0.00168017
0.000516182	0.000776383	0.000713962	0.000947973	0.000676652	0.000557902	0.00271917	0.00180208
0.000537408	0.000811429	0.000689993	0.00090276	0.00068599	0.000581637	0.00272567	0.00170589
0.000654164	0.00083002	0.000705383	0.000924358	0.000647479	0.00057361	0.0020719	0.00133499
0.000689997	0.000845042	0.000696941	0.000680005	0.000542759	0.000599158	0.00254603	0.00128458
0.000700457	0.000833191	0.000722473	0.000615533	0.000536515	0.000610914	0.00239875	0.00120594
0.000741837	0.000944006	0.000709112	0.00082579	0.000582441	0.000574833	0.00223489	0.00126413
0.000761026	0.000851427	0.000712583	0.000809468	0.000555062	0.000589543	0.00249011	0.0011106
0.000856695	0.000777	0.000702311	0.000861039	0.000576137	0.000576945	0.00248816	0.0011981
0.000735984	0.000767185	0.000691741	0.00082208	0.000598938	0.000550369	0.0023069	0.00115276
0.000756869	0.000793605	0.000703089	0.000832872	0.000576772	0.000531705	0.00188109	0.000999786
0.000814927	0.000845878	0.000681192	0.000824149	0.000596943	0.0005373	0.00261919	0.0011867
0.000751185	0.000869972	0.000747342	0.000572912	0.000564709	0.000556597	0.00305194	0.0014732
0.000786171	0.000978401	0.000831575	0.000589377	0.00065293	0.000560565	0.00381629	0.00199206
0.000814488	0.00135211	0.000960223	0.000617517	0.000763566	0.00066965	0.00552574	0.00204631
0.00130657	0.00159493	0.00102305	0.000737067	0.000829783	0.000910096	0.00691784	0.00269322
0.00139545	0.00176433	0.00101546	0.000851673	0.00090627	0.00126005	0.00850648	0.00308559
0.00162871	0.0018753	0.00107521	0.00112856	0.000927892	0.00187543	0.00947967	0.004065
0.00167722	0.00191945	0.000992851	0.00114439	0.000924294	0.00206648	0.00947593	0.00396228
0.00168673	0.00207866	0.00100094	0.00115826	0.000926707	0.00213454	0.00933876	0.00384747
0.00166758	0.00225188	0.00100362	0.00113216	0.00091765	0.00213127	0.00907901	0.00386808
0.00173982	0.00228229	0.000932497	0.00117332	0.000879653	0.0021542	0.00827396	0.00381545
0.00181116	0.00218972	0.000888859	0.00126123	0.000845209	0.00244284	0.00815607	0.00373892
0.00184277	0.00224692	0.000861454	0.00130253	0.00082093	0.00256625	0.0081378	0.00403785
0.00183711	0.0020617	0.000814527	0.0012777	0.000736185	0.00250393	0.00699399	0.00402997
0.00189864	0.00191557	0.00080741	0.00120107	0.000715832	0.00261308	0.00673316	0.00396683
0.00153899	0.00179669	0.000783591	0.00115961	0.00068991	0.00277381	0.00643038	0.00367375
0.0014497	0.00179876	0.000758169	0.0011505	0.000657637	0.00296405	0.00507952	0.00355926
0.00142913	0.00169117	0.000757315	0.0010323	0.000648531	0.00319702	0.00466877	0.00341506
0.00139303	0.00196676	0.000770564	0.00102768	0.000622047	0.00346867	0.00414771	0.00356105
0.00138611	0.00278123	0.000809064	0.000940721	0.000637603	0.00351374	0.00341725	0.00341173
0.00125827	0.00296018	0.000781582	0.000798125	0.000604245	0.00344466	0.00318455	0.00273884
0.00120991	0.00291199	0.000798687	0.000783938	0.000615168	0.00356182	0.00312942	0.00283687
0.00134622	0.00278809	0.000828432	0.000873935	0.000613586	0.00358087	0.00319965	0.00291178
0.00148489	0.00261579	0.000906158	0.000926392	0.000637273	0.0040366	0.00328417	0.00289191
0.00145533	0.00274718	0.00093343	0.000923395	0.000629008	0.00430181	0.00318495	0.00275396
0.00139533	0.00279804	0.000945376	0.000865552	0.000621596	0.00423524	0.00335362	0.00269121
0.00136688	0.00269342	0.00091052	0.000797415	0.00061935	0.00409064	0.00356442	0.00264184
0.00127729	0.00309533	0.00088619	0.000766624	0.000610683	0.00420297	0.00344194	0.00227737
0.00122527	0.00331531	0.000891535	0.000784348	0.000607876	0.00420207	0.00332383	0.00234724
0.00121854	0.00352074	0.000886657	0.000804178	0.000622683	0.00393986	0.00299528	0.00224059
0.00134692	0.00427078	0.000898444	0.000858438	0.000611003	0.00380787	0.00319357	0.00212246
0.00142676	0.00451396	0.000910769	0.000878387	0.000612861	0.00366001	0.00340616	0.00222492
0.00149722	0.00474276	0.000900166	0.000888803	0.0006024	0.00332461	0.00337945	0.00224451
0.00148467	0.00439035	0.000854159	0.000874261	0.000586384	0.00309406	0.00313087	0.00213742
0.00147824	0.00444112	0.000838958	0.000940085	0.000592675	0.00297686	0.00261483	0.00206477
0.00161232	0.00468541	0.000833132	0.000952153	0.000616491	0.00278764	0.00252714	0.00197979
0.00154088	0.00487654	0.000855003	0.000882772	0.000600123	0.00283469	0.00240248	0.00174012
0.00136861	0.00568774	0.000798043	0.000836219	0.000580442	0.0026285	0.00232205	0.00172386
0.00136457	0.00613379	0.000747399	0.000822892	0.000569716	0.00251467	0.00220314	0.00166423
0.00138672	0.00620763	0.000763203	0.000876509	0.000600303	0.00280508	0.00202216	0.00150482
0.00147261	0.00643451	0.000778161	0.000873707	0.000600093	0.00293765	0.00173966	0.00142882
0.00147812	0.00672708	0.000776031	0.000888309	0.000578375	0.00293997	0.00137815	0.00136673
0.00146475	0.00647145	0.000779986	0.000886219	0.00057911	0.00298599	0.00131501	0.00126285
0.001555	0.00640872	0.000773399	0.000890193	0.000573038	0.00298687	0.00132363	0.0012718
0.00163238	0.00641199	0.000753179	0.000907292	0.000584614	0.00298135	0.00117106	0.00124509
0.0016274	0.00761834	0.000740007	0.000918352	0.000576493	0.00308396	0.000914595	0.00114998
0.00152656	0.00773206	0.00074443	0.000914941	0.000584926	0.00307325	0.000859448	0.000946064
0.00159217	0.00789661	0.00072595	0.000920252	0.000562164	0.00305847	0.000835325	0.000731339
0.00172382	0.00789928	0.000711705	0.000892606	0.000559147	0.00318176	0.000810714	0.000692768
0.00164913	0.00784917	0.000713042	0.000860373	0.000537036	0.00324017	0.000813533	0.000698427
0.00167989	0.00845712	0.000687036	0.000947367	0.000547253	0.00327518	0.000822073	0.000687772
0.00172126	0.00819559	0.00066014	0.0009755	0.000548883	0.00331189	0.000829054	0.000663498
0.00171824	0.00776088	0.000655384	0.000984341	0.000573359	0.00306351	0.000915095	0.000679808
0.00167859	0.00772791	0.000662242	0.000913374	0.000582876	0.00281016	0.000830215	0.000657748
0.00157322	0.00877487	0.000656772	0.000931753	0.000570838	0.00268979	0.000805511	0.000650159
0.0016883	0.00938089	0.000650961	0.000974944	0.000570733	0.00261802	0.000747658	0.00063887
0.00183644	0.00931307	0.000645559	0.000990242	0.000588306	0.00254836	0.000731369	0.000643066
0.00192115	0.0103285	0.000640799	0.00103739	0.000578267	0.0025754	0.000731318	0.000647041
0.0018682	0.0101718	0.000652093	0.00099002	0.000560544	0.00254398	0.000730865	0.000641104
0.00185159	0.00901111	0.00065897	0.000917035	0.000563816	0.0024675	0.000728685	0.000650751
0.00191005	0.00862702	0.000671923	0.000926633	0.000549949	0.00235014	0.000733592	0.000642333
0.00203893	0.00965828	0.000652587	0.000932027	0.000557086	0.0026073	0.000733535	0.000660153
0.00189414	0.00960074	0.00068049	0.000893262	0.000556553	0.00254554	0.000729884	0.000671242
0.00179652	0.0106403	0.000672353	0.000891691	0.000542247	0.00236585	0.000738282	0.000666947
0.00180638	0.010929	0.000660865	0.000806187	0.000544874	0.00219456	0.000735038	0.00066983
0.00194659	0.0106999	0.00067495	0.000766842	0.000539388	0.00208231	0.000737461	0.000677816
0.00196161	0.0102321	0.000687895	0.000754215	0.00052654	0.00210232	0.000717768	0.000665781
0.00216169	0.0105526	0.000665648	0.000770534	0.00052797	0.00199033	0.00063171	0.000668219
0.0023695	0.0115273	0.000676056	0.000818998	0.00051869	0.0018015	0.000594855	0.000660592
0.00235953	0.0123809	0.000681119	0.00080019	0.000527822	0.00176792	0.000566712	0.000680595
0.0022565	0.0126428	0.000690271	0.000789655	0.000524026	0.001739	0.000569545	0.000668923
0.00231516	0.012173	0.000689546	0.00077606	0.000525608	0.00165023	0.000570747	0.000652057
0.00221427	0.012079	0.000685517	0.000816402	0.000536196	0.00160998	0.000565641	0.000659047
0.00239398	0.0137175	0.000698515	0.000887212	0.000543095	0.00154287	0.000567471	0.000642165
0.00233332	0.0137148	0.000682855	0.000962128	0.000543873	0.00145283	0.000561056	0.000655543
0.00218412	0.0121261	0.000680992	0.000987816	0.000555263	0.00111239	0.000570171	0.000634663
0.00215802	0.0128002	0.000669415	0.001005	0.000541447	0.000896409	0.00057033	0.000638616
0.00225976	0.0145428	0.000656543	0.00102459	0.000552304	0.000837026	0.00057422	0.00064273
0.00230687	0.014376	0.000665061	0.0010665	0.00054	0.000962893	0.000574174	0.000657303
0.00216954	0.0152566	0.00065019	0.00108314	0.000532713	0.000986492	0.000588251	0.000684861
0.00211881	0.0153803	0.000641386	0.00112071	0.000534577	0.000946103	0.000570183	0.000721953
0.00201646	0.0152737	0.000617097	0.0011347	0.000520312	0.000909198	0.000565787	0.000752579
0.00175354	0.0153417	0.000610886	0.00116444	0.000521029	0.000930475	0.000569994	0.000743525
0.00189893	0.0149327	0.000627754	0.00126406	0.000532953	0.000951399	0.000599822	0.000758188
0.00197482	0.0150364	0.000605042	0.00129393	0.000540243	0.000917448	0.000594587	0.00077196
0.00193486	0.0150599	0.000616056	0.00132173	0.000532662	0.000899894	0.000592517	0.00079716
0.00184248	0.0157906	0.000621206	0.00131827	0.000513872	0.000930408	0.00059537	0.000794581
0.0015631	0.0145255	0.000637152	0.00128988	0.000522763	0.000862133	0.000602544	0.000786392
0.0015216	0.014565	0.000615915	0.00130915	0.000528506	0.00087145	0.000596621	0.000788074
0.00152988	0.0145898	0.000625149	0.00125505	0.000538311	0.000876567	0.000590406	0.000784626
0.00156014	0.0142645	0.000650961	0.00121705	0.000603772	0.000890132	0.000598742	0.000770627
0.00147621	0.0112975	0.000641928	0.00126208	0.000615664	0.000891553	0.000613078	0.000784484
0.00132593	0.0104463	0.000642329	0.00138981	0.00062854	0.000796457	0.000599958	0.000807413
0.00130524	0.0103849	0.00065172	0.0013834	0.000648139	0.000753963	0.000603271	0.000855597
0.00128946	0.0109524	0.000665484	0.00151833	0.000653427	0.000769124	0.0006056	0.000829741
0.00136613	0.0113841	0.000714468	0.00164587	0.000667232	0.000794947	0.000627998	0.000794303
0.00141033	0.0105484	0.000809722	0.00165563	0.000813386	0.000817157	0.000635435	0.000786546
0.00122224	0.00845115	0.000872455	0.00160171	0.00084584	0.000864065	0.000619801	0.000822865
0.00110671	0.00729878	0.000908346	0.0016047	0.000858493	0.000873261	0.000605947	0.00079735
0.000971123	0.00703593	0.000919916	0.00164416	0.000893143	0.000866679	0.000601854	0.000775572
0.000959895	0.00623337	0.000959643	0.0015865	0.0010568	0.000849857	0.000594542	0.000818726
0.000929987	0.00633276	0.000961554	0.00154767	0.00108278	0.000901068	0.000780824	0.000846588
0.00109302	0.00589058	0.00111754	0.00153125	0.00128962	0.000968813	0.00087772	0.000868015
0.00111703	0.00579802	0.00115524	0.0015622	0.00137865	0.000989952	0.00103476	0.000954967
0.00111856	0.00602148	0.00120905	0.00157029	0.00136602	0.00100401	0.00109316	0.000989898
0.00114552	0.00602006	0.00123523	0.0015491	0.00136678	0.00106847	0.00109156	0.00107354
0.0011442	0.00597598	0.00124748	0.00141516	0.0013882	0.0010801	0.00110892	0.00108596
0.00108154	0.00363319	0.00137201	0.00119273	0.00159016	0.00108297	0.00113163	0.00122573
0.000882871	0.00289837	0.0012668	0.00103761	0.00144868	0.000990443	0.00113543	0.00139716
0.00083988	0.00279057	0.00130581	0.000804249	0.00155579	0.000916462	0.00114488	0.00149027
0.000817256	0.00182412	0.00143586	0.000762196	0.00146887	0.000912083	0.00104385	0.00200677
0.000626439	0.00136654	0.00135237	0.000644139	0.00125017	0.000811437	0.000770085	0.00239824
0.000548727	0.00104008	0.00131299	0.000594762	0.00118741	0.000916176	0.000708831	0.00293675
0.000517117	0.000898677	0.0012247	0.000582353	0.0010375	0.000937971	0.000920655	0.00371219
0.000532639	0.000909909	0.00121521	0.000552535	0.000983077	0.00091717	0.000970723	0.00357299
0.000540118	0.0010566	0.00113573	0.000497694	0.000947008	0.000920291	0.000951424	0.00389484
0.000520818	0.00110028	0.00107893	0.000552474	0.000985906	0.000967236	0.000947728	0.00367678
0.000503656	0.00107958	0.00112577	0.000605483	0.00100485	0.000944238	0.000970075	0.00350722
0.000498823	0.00103469	0.00107421	0.000609359	0.00109048	0.000708477	0.000920408	0.00313744
0.000508407	0.00099283	0.00109167	0.000616553	0.00126042	0.00065965	0.00091437	0.0027748
0.000499884	0.000973092	0.00113024	0.000635533	0.00130693	0.000641942	0.000660955	0.0029547
0.000519043	0.000833958	0.00111852	0.000684029	0.00126226	0.000648433	0.000636451	0.0028119
