"1 Chan 1","2 Chan 2","3 Chan 3","4 Chan 4","5 Chan 5","6 Chan 6","7 Chan 7"
0.011859,0.009701,0.005644,0.021524,0.034939,0.0184113,0.000000
0.011931,0.008428,0.005734,0.020556,0.035068,0.0190070,0.000000
0.011984,0.007425,0.005779,0.019804,0.034980,0.0196184,0.000000
0.012074,0.006352,0.005799,0.019609,0.034990,0.0201893,0.000000
0.012143,0.005269,0.005798,0.019434,0.035801,0.0205705,0.000000
0.012079,0.004603,0.005728,0.018920,0.037096,0.0208104,0.000000
0.012091,0.004463,0.005629,0.018123,0.038292,0.0210105,0.000000
0.012153,0.004618,0.005533,0.017371,0.039442,0.0210911,0.000000
0.012141,0.004628,0.005480,0.016687,0.040802,0.0211774,0.000000
0.012121,0.004549,0.005428,0.016228,0.042058,0.0211530,0.000000
0.012132,0.004379,0.005384,0.015784,0.043918,0.0210886,0.000000
0.012096,0.004228,0.005343,0.015237,0.046268,0.0210049,0.000000
0.012140,0.003993,0.005329,0.015233,0.048519,0.0206801,0.000000
0.011890,0.003796,0.005326,0.015189,0.051108,0.0201891,0.000000
0.011542,0.003535,0.005333,0.015294,0.053390,0.0196136,0.000000
0.011351,0.003387,0.005339,0.015349,0.055300,0.0191471,0.000000
0.011339,0.003265,0.005336,0.015342,0.056697,0.0187722,0.000000
0.011215,0.003293,0.005310,0.015146,0.057509,0.0185091,0.000000
0.011105,0.003481,0.005269,0.014798,0.058178,0.0182483,0.000000
0.010891,0.003789,0.005176,0.014466,0.057990,0.0179682,0.000000
0.010958,0.004073,0.005063,0.014104,0.057361,0.0177791,0.000000
0.011236,0.004272,0.004946,0.013646,0.056537,0.0175895,0.000000
0.011200,0.004358,0.004794,0.013060,0.055774,0.0174859,0.000000
0.010945,0.004549,0.004665,0.012453,0.055335,0.0173221,0.000000
0.010780,0.004654,0.004531,0.011824,0.055012,0.0170990,0.000000
0.010427,0.004816,0.004394,0.011240,0.054040,0.0169554,0.000000
0.010107,0.004779,0.004295,0.010790,0.052713,0.0169030,0.000000
0.009769,0.004756,0.004218,0.010412,0.051321,0.0167817,0.000000
0.009713,0.004633,0.004190,0.010326,0.050224,0.0166382,0.000000
0.009708,0.004774,0.004127,0.010125,0.048966,0.0165025,0.000000
0.010007,0.004736,0.004104,0.010123,0.047768,0.0163395,0.000000
0.009964,0.004848,0.004092,0.010092,0.046263,0.0162285,0.000000
0.009866,0.005027,0.004085,0.010145,0.044921,0.0160018,0.000000
0.009763,0.005140,0.004075,0.010227,0.043813,0.0156641,0.000000
0.009797,0.005198,0.004048,0.010351,0.042321,0.0154423,0.000000
0.009905,0.005343,0.004007,0.010248,0.040688,0.0155510,0.000000
0.009858,0.005499,0.003964,0.010066,0.039101,0.0156314,0.000000
0.009782,0.005669,0.003954,0.009993,0.037792,0.0157149,0.000000
0.009696,0.005827,0.004184,0.009516,0.036591,0.0154961,0.000000
0.009828,0.005763,0.004439,0.009164,0.035026,0.0154676,0.000000
0.009770,0.005655,0.004664,0.008572,0.034130,0.0156404,0.000000
0.009570,0.005572,0.004909,0.008010,0.033491,0.0158081,0.000000
0.009426,0.005484,0.005189,0.007558,0.032933,0.0160581,0.000000
0.009655,0.005294,0.005525,0.007406,0.032428,0.0160298,0.000000
0.009763,0.004986,0.005839,0.007253,0.031850,0.0159811,0.000000
0.009621,0.004725,0.006117,0.007202,0.031280,0.0161360,0.000000
0.009790,0.004341,0.006219,0.007578,0.031144,0.0163681,0.000000
0.009974,0.004047,0.006347,0.008066,0.031036,0.0163852,0.000000
0.010100,0.003706,0.006461,0.008610,0.030980,0.0163854,0.000000
0.009972,0.003398,0.006545,0.008878,0.030760,0.0163638,0.000000
0.009851,0.003080,0.006622,0.009107,0.030797,0.0162888,0.000000
0.009357,0.002989,0.006644,0.009147,0.030893,0.0163231,0.000000
0.009140,0.002826,0.006667,0.009313,0.030550,0.0162671,0.000000
0.009037,0.002540,0.006717,0.009617,0.029760,0.0161503,0.000000
0.008976,0.002336,0.006772,0.009776,0.028780,0.0161086,0.000000
0.008828,0.002196,0.006830,0.009873,0.027785,0.0161651,0.000000
0.008683,0.002064,0.006900,0.010008,0.027009,0.0160788,0.000000
0.008562,0.001959,0.006954,0.010216,0.026149,0.0161016,0.000000
0.008302,0.001843,0.007009,0.010380,0.025235,0.0161716,0.000000
0.008115,0.001688,0.007013,0.010718,0.024523,0.0163588,0.000000
0.007394,0.001817,0.007006,0.010637,0.024292,0.0166654,0.000000
0.006859,0.001882,0.006977,0.010882,0.024032,0.0169180,0.000000
0.006319,0.001962,0.007074,0.011038,0.023739,0.0171591,0.000000
0.005674,0.002147,0.007164,0.011005,0.023559,0.0172922,0.000000
0.004953,0.002358,0.007266,0.010874,0.023377,0.0176285,0.000000
0.004592,0.002477,0.007408,0.011025,0.023197,0.0178422,0.000000
0.004352,0.002535,0.007577,0.012654,0.022997,0.0181479,0.000000
0.004002,0.002608,0.007718,0.014471,0.022629,0.0183240,0.000000
0.003711,0.002702,0.007841,0.016237,0.022336,0.0184295,0.000000
0.003419,0.002828,0.007987,0.017859,0.022110,0.0185420,0.000000
0.003076,0.002977,0.008121,0.019429,0.021608,0.0188881,0.000000
0.002736,0.003359,0.008542,0.020972,0.020870,0.0191345,0.000000
0.002431,0.003941,0.009036,0.022302,0.020029,0.0193624,0.000000
0.002139,0.004489,0.009506,0.023503,0.019157,0.0195500,0.000000
0.001846,0.005211,0.009955,0.022768,0.018017,0.0197587,0.000000
0.001557,0.005929,0.010392,0.021985,0.017048,0.0201065,0.000000
0.001239,0.006749,0.010816,0.021200,0.016072,0.0205051,0.000000
0.000925,0.007548,0.011535,0.020490,0.015137,0.0205648,0.000000
0.000620,0.008379,0.012082,0.019787,0.014561,0.0205053,0.000000
0.000314,0.008817,0.012296,0.019210,0.014230,0.0203342,0.000000
0.000000,0.009179,0.012524,0.018815,0.014111,0.0201485,0.000000
0.000000,0.009418,0.012756,0.018708,0.014210,0.0198728,0.000000
0.000000,0.009634,0.013150,0.018458,0.014363,0.0194949,0.000000
0.000000,0.009755,0.013626,0.018274,0.014573,0.0189588,0.000000
0.000000,0.009946,0.014256,0.018500,0.014658,0.0184938,0.000000
0.000178,0.010140,0.014873,0.019490,0.014615,0.0181527,0.000000
0.001032,0.010213,0.016096,0.020576,0.014365,0.0180820,0.000000
0.002126,0.010294,0.017305,0.020205,0.014095,0.0178209,0.000000
0.003698,0.010332,0.018659,0.019417,0.013791,0.0174879,0.000000
0.006676,0.010459,0.019996,0.019040,0.013188,0.0173409,0.000000
0.009380,0.010783,0.021559,0.018622,0.012164,0.0171127,0.000000
0.012418,0.011035,0.023137,0.018411,0.011444,0.0166963,0.000000
0.015419,0.011076,0.024419,0.018230,0.010841,0.0163176,0.000000
0.018554,0.010859,0.025549,0.018322,0.010368,0.0159026,0.000000
0.021557,0.010665,0.026578,0.018481,0.010012,0.0154596,0.000000
0.025089,0.010169,0.027523,0.020871,0.009851,0.0151055,0.000000
0.028625,0.009658,0.028365,0.023371,0.009700,0.0146332,0.000000
0.031954,0.009099,0.029147,0.025775,0.009601,0.0139956,0.000000
0.035430,0.008477,0.029577,0.028373,0.009323,0.0135552,0.000000
0.038838,0.007816,0.030144,0.030889,0.008785,0.0130693,0.000000
0.042009,0.007685,0.030988,0.033177,0.008058,0.0126544,0.000000
0.045568,0.007618,0.031601,0.035656,0.007278,0.0123360,0.000000
0.049689,0.007343,0.032226,0.038244,0.006550,0.0119400,0.000000
0.053946,0.007073,0.032798,0.040758,0.005743,0.0115692,0.000000
0.058270,0.006900,0.033156,0.043249,0.004872,0.0113182,0.000000
0.062674,0.006588,0.033353,0.045505,0.004013,0.0110245,0.000000
0.066093,0.006435,0.033441,0.046612,0.003311,0.0104970,0.000000
0.069432,0.006348,0.032888,0.047559,0.002717,0.0099313,0.000000
0.071854,0.006491,0.032239,0.047963,0.002114,0.0092088,0.000000
0.074688,0.006565,0.031611,0.048493,0.001424,0.0087488,0.000000
0.076220,0.006671,0.030906,0.048422,0.000919,0.0083383,0.000000
0.078097,0.006594,0.029812,0.048582,0.000892,0.0081067,0.000000
0.079424,0.006642,0.028595,0.048714,0.000820,0.0078500,0.000000
0.080604,0.006839,0.027282,0.048783,0.000747,0.0075459,0.000000
0.082209,0.007368,0.026052,0.049054,0.000624,0.0072354,0.000000
0.084458,0.008229,0.024934,0.049545,0.000472,0.0069665,0.000000
0.086296,0.009283,0.023840,0.050044,0.000284,0.0066686,0.000000
0.088228,0.010408,0.022807,0.050627,0.000130,0.0063828,0.000000
0.090208,0.011629,0.021821,0.051444,0.000034,0.0061340,0.000000
0.092377,0.012921,0.020892,0.052364,0.000013,0.0060024,0.000000
0.094653,0.014195,0.020002,0.053749,0.000013,0.0059360,0.000000
0.097067,0.015576,0.019118,0.055644,0.000013,0.0058937,0.000000
0.099245,0.017029,0.018260,0.057561,0.000013,0.0058588,0.000000
0.100247,0.018792,0.017337,0.059404,0.000000,0.0057472,0.000000
0.101614,0.020451,0.016407,0.061644,0.000000,0.0057754,0.000000
0.102607,0.022149,0.015454,0.063867,0.000000,0.0058186,0.000000
0.103556,0.023782,0.014514,0.066156,0.000205,0.0058861,0.000000
0.105395,0.025213,0.013707,0.068953,0.000566,0.0061006,0.000000
0.106785,0.026659,0.012937,0.071814,0.001140,0.0062623,0.000000
0.108992,0.027889,0.012301,0.075216,0.001781,0.0065528,0.000000
0.110635,0.029195,0.011758,0.078547,0.002595,0.0067798,0.000000
0.111529,0.030538,0.011278,0.081958,0.003487,0.0069033,0.000000
0.112912,0.031690,0.011011,0.085458,0.004567,0.0070116,0.000000
0.114474,0.032768,0.010869,0.088854,0.005721,0.0071281,0.000000
0.116188,0.033668,0.010839,0.092294,0.006975,0.0073165,0.000000
0.117251,0.034200,0.010828,0.095536,0.008336,0.0075390,0.000000
0.117695,0.034285,0.010807,0.098475,0.009756,0.0077655,0.000000
0.117429,0.034414,0.010776,0.100751,0.011377,0.0079128,0.000000
0.117289,0.034450,0.010809,0.102791,0.013166,0.0080837,0.000000
0.117312,0.034342,0.010745,0.104788,0.015089,0.0082746,0.000000
0.117060,0.034201,0.010510,0.106665,0.017243,0.0084344,0.000000
0.116524,0.034124,0.010205,0.108100,0.019453,0.0085729,0.000000
0.116286,0.033768,0.009925,0.109218,0.021828,0.0087645,0.000000
0.115941,0.033337,0.009660,0.110242,0.024444,0.0089406,0.000000
0.116200,0.032749,0.009448,0.111225,0.027163,0.0091823,0.000000
0.115908,0.032302,0.009187,0.111863,0.029928,0.0093397,0.000000
0.116012,0.031818,0.008953,0.112566,0.032705,0.0095375,0.000000
0.116021,0.031418,0.008698,0.113111,0.035249,0.0097122,0.000000
0.115820,0.031134,0.008430,0.113377,0.037650,0.0098935,0.000000
0.115454,0.030903,0.008180,0.113472,0.039890,0.0100861,0.000000
0.114804,0.030742,0.007927,0.113319,0.042049,0.0103223,0.000000
0.113660,0.030680,0.007660,0.112782,0.044092,0.0105607,0.000000
0.112872,0.030606,0.007444,0.112175,0.046077,0.0108856,0.000000
0.111464,0.030617,0.007174,0.111348,0.047873,0.0111538,0.000000
0.110125,0.030628,0.006873,0.110548,0.049632,0.0114571,0.000000
0.108508,0.030762,0.006526,0.109697,0.051269,0.0117729,0.000000
0.106640,0.031031,0.006097,0.108803,0.052842,0.0120758,0.000000
0.104630,0.031422,0.005660,0.107866,0.054363,0.0123580,0.000000
0.103442,0.031638,0.005302,0.107261,0.055746,0.0127448,0.000000
0.101818,0.031916,0.004933,0.106757,0.056980,0.0130989,0.000000
0.100007,0.032197,0.004714,0.106204,0.058164,0.0134352,0.000000
0.098041,0.032481,0.004687,0.105670,0.059187,0.0137730,0.000000
0.096282,0.032665,0.004741,0.105351,0.060142,0.0141328,0.000000
0.094293,0.032847,0.004803,0.105178,0.060864,0.0144540,0.000000
0.092220,0.032972,0.004854,0.105089,0.061401,0.0147041,0.000000
0.090022,0.033089,0.004903,0.104932,0.061885,0.0148915,0.000000
0.087615,0.033131,0.004962,0.104747,0.062350,0.0150697,0.000000
0.084887,0.032831,0.005016,0.104367,0.062805,0.0152470,0.000000
0.082038,0.032105,0.005074,0.103887,0.063287,0.0154180,0.000000
0.078999,0.031297,0.005128,0.103139,0.063777,0.0155280,0.000000
0.075547,0.030521,0.005166,0.102299,0.064184,0.0155807,0.000000
0.072070,0.029623,0.005211,0.101472,0.064676,0.0155789,0.000000
0.068692,0.028645,0.005226,0.100797,0.065204,0.0154762,0.000000
0.065522,0.027591,0.005226,0.100031,0.065776,0.0153594,0.000000
0.062317,0.026392,0.005227,0.098902,0.066382,0.0152173,0.000000
0.059080,0.025145,0.005237,0.097695,0.066945,0.0150234,0.000000
0.056160,0.023744,0.005291,0.096440,0.067499,0.0148055,0.000000
0.053619,0.022317,0.005413,0.095156,0.067984,0.0145588,0.000000
0.051295,0.020917,0.005555,0.094027,0.068359,0.0143181,0.000000
0.048766,0.019642,0.005673,0.092838,0.068484,0.0140383,0.000000
0.046445,0.018400,0.005764,0.091596,0.068460,0.0137649,0.000000
0.044167,0.017246,0.005828,0.090172,0.068195,0.0134957,0.000000
0.041654,0.016226,0.005843,0.088330,0.067896,0.0131635,0.000000
0.039082,0.015262,0.005862,0.086272,0.067513,0.0128286,0.000000
0.036466,0.014391,0.005881,0.083822,0.067103,0.0125115,0.000000
0.033854,0.013606,0.005892,0.081222,0.066543,0.0122600,0.000000
0.031394,0.012901,0.005898,0.078632,0.065903,0.0120709,0.000000
0.029273,0.012300,0.005898,0.076058,0.065189,0.0119082,0.000000
0.027475,0.012174,0.005893,0.073577,0.064411,0.0117433,0.000000
0.025928,0.012502,0.005885,0.071169,0.063624,0.0115960,0.000000
0.024701,0.012882,0.005866,0.069150,0.062733,0.0115031,0.000000
0.023936,0.013495,0.005828,0.067104,0.061563,0.0114416,0.000000
0.023645,0.014433,0.005728,0.064319,0.061364,0.0113734,0.000000
0.023248,0.015430,0.005609,0.060595,0.060913,0.0113313,0.000000
0.023133,0.016077,0.005446,0.057296,0.059827,0.0113393,0.000000
0.022423,0.016517,0.005197,0.054198,0.058551,0.0112870,0.000000
0.022609,0.017193,0.005023,0.051165,0.056870,0.0112058,0.000000
0.021691,0.018115,0.004772,0.047961,0.055103,0.0110391,0.000000
0.021200,0.018654,0.004575,0.044916,0.053219,0.0108990,0.000000
0.020846,0.018660,0.004406,0.042109,0.051404,0.0108308,0.000000
0.020418,0.018534,0.004274,0.039252,0.049665,0.0107738,0.000000
0.020229,0.018590,0.004156,0.036508,0.047916,0.0106963,0.000000
0.020127,0.019278,0.004031,0.033771,0.046564,0.0104688,0.000000
0.020553,0.020297,0.003914,0.031160,0.045200,0.0101725,0.000000
0.020786,0.021311,0.003771,0.028409,0.043920,0.0099831,0.000000
0.021029,0.022530,0.003632,0.025867,0.042718,0.0097716,0.000000
0.022121,0.023001,0.003525,0.023737,0.041268,0.0096527,0.000000
0.023398,0.023254,0.003403,0.021942,0.039860,0.0094975,0.000000
0.025316,0.023458,0.003258,0.020807,0.038612,0.0091890,0.000000
0.027357,0.023562,0.003011,0.019535,0.037621,0.0087273,0.000000
0.028836,0.023309,0.002763,0.018493,0.036647,0.0082677,0.000000
0.029552,0.022767,0.002516,0.016998,0.035694,0.0078147,0.000000
0.030133,0.022299,0.002353,0.015462,0.034839,0.0074758,0.000000
0.029439,0.021682,0.002326,0.014645,0.032857,0.0072934,0.000000
0.029221,0.021265,0.002297,0.014710,0.031037,0.0071696,0.000000
0.028622,0.021185,0.002280,0.014511,0.029765,0.0069971,0.000000
0.028775,0.021049,0.002321,0.014741,0.028596,0.0068626,0.000000
0.028016,0.020430,0.002281,0.014896,0.027888,0.0066313,0.000000
0.028578,0.019908,0.002344,0.015202,0.027614,0.0065028,0.000000
0.028532,0.019845,0.002333,0.015311,0.027488,0.0062491,0.000000
0.028051,0.020379,0.002304,0.015064,0.027411,0.0059665,0.000000
0.027638,0.020849,0.002251,0.014967,0.027135,0.0057033,0.000000
0.026627,0.020880,0.002172,0.014984,0.026982,0.0054633,0.000000
0.025892,0.020286,0.002127,0.015102,0.026585,0.0054958,0.000000
0.025064,0.019285,0.002092,0.015300,0.026155,0.0055869,0.000000
0.024758,0.018471,0.002080,0.015703,0.025808,0.0055664,0.000000
0.024506,0.017235,0.002073,0.016076,0.025352,0.0055943,0.000000
0.023601,0.016641,0.002063,0.016233,0.025342,0.0055289,0.000000
0.022194,0.015904,0.002051,0.016110,0.025237,0.0055558,0.000000
0.019931,0.015377,0.002053,0.015054,0.025097,0.0057178,0.000000
0.017487,0.014746,0.002174,0.014472,0.024637,0.0060519,0.000000
0.015552,0.014478,0.002298,0.013519,0.024276,0.0063752,0.000000
0.014163,0.014575,0.002419,0.012957,0.023955,0.0066564,0.000000
0.012792,0.013940,0.002440,0.012721,0.023653,0.0068452,0.000000
0.012493,0.013173,0.002395,0.012422,0.023536,0.0069561,0.000000
0.012285,0.012374,0.002358,0.012246,0.023276,0.0070411,0.000000
0.012086,0.011734,0.002297,0.011999,0.023064,0.0070424,0.000000
0.011939,0.011665,0.002300,0.011503,0.023026,0.0072381,0.000000
0.011599,0.012013,0.002258,0.010897,0.022949,0.0073909,0.000000
0.010655,0.011985,0.002244,0.010456,0.022961,0.0078023,0.000000
0.009797,0.011872,0.002251,0.009939,0.022984,0.0083725,0.000000
0.009312,0.011633,0.002241,0.009662,0.023105,0.0088062,0.000000
0.008884,0.011432,0.002214,0.009370,0.023327,0.0092066,0.000000
0.008853,0.011289,0.002187,0.008991,0.023469,0.0094483,0.000000
0.008840,0.010812,0.002137,0.008780,0.023676,0.0094708,0.000000
0.008774,0.010283,0.002052,0.008510,0.023694,0.0094890,0.000000
0.008333,0.009600,0.001975,0.008116,0.023861,0.0096131,0.000000
0.008453,0.009165,0.001863,0.007591,0.024067,0.0095761,0.000000
0.008090,0.009087,0.001732,0.006831,0.024425,0.0097377,0.000000
0.008157,0.009351,0.001619,0.006081,0.024968,0.0098562,0.000000
0.008216,0.009393,0.001515,0.005638,0.025284,0.0100815,0.000000
0.008033,0.009321,0.001394,0.005030,0.025605,0.0103289,0.000000
0.007931,0.009068,0.001270,0.004681,0.025892,0.0104170,0.000000
0.007852,0.008708,0.001149,0.004237,0.026154,0.0106141,0.000000
0.007891,0.008694,0.001135,0.003929,0.026791,0.0105956,0.000000
0.007895,0.008714,0.001120,0.003800,0.027110,0.0105711,0.000000
0.007312,0.008549,0.001105,0.003642,0.027316,0.0106833,0.000000
0.006779,0.008218,0.001145,0.003623,0.027671,0.0109941,0.000000
0.006132,0.007762,0.001143,0.003627,0.027865,0.0111221,0.000000
0.005692,0.007212,0.001163,0.003679,0.028371,0.0116714,0.000000
0.005636,0.006807,0.001088,0.003744,0.028226,0.0118532,0.000000
0.005636,0.006466,0.000984,0.003752,0.028223,0.0119727,0.000000
0.005594,0.006194,0.000917,0.003665,0.028503,0.0122026,0.000000
0.005476,0.006109,0.000849,0.003476,0.028624,0.0124294,0.000000
0.005326,0.006106,0.000847,0.003285,0.028967,0.0128940,0.000000
0.004932,0.006355,0.000859,0.003024,0.028839,0.0134226,0.000000
0.004486,0.006638,0.000904,0.002779,0.028800,0.0141469,0.000000
0.004184,0.006824,0.000948,0.002758,0.028803,0.0144180,0.000000
0.003328,0.006985,0.001024,0.002866,0.028708,0.0150601,0.000000
0.002799,0.006886,0.001095,0.003047,0.028669,0.0155101,0.000000
0.002138,0.006654,0.001194,0.003258,0.028805,0.0158597,0.000000
0.001620,0.006339,0.001303,0.003533,0.029193,0.0160219,0.000000
0.001311,0.006193,0.001418,0.003667,0.029977,0.0160367,0.000000
0.000903,0.006065,0.001523,0.003780,0.030686,0.0160797,0.000000
0.000686,0.006073,0.001634,0.003977,0.031523,0.0161757,0.000000
0.000436,0.006208,0.001667,0.003895,0.032426,0.0164629,0.000000
0.000120,0.006315,0.001674,0.003865,0.034529,0.0166474,0.000000
0.000000,0.006428,0.001668,0.003776,0.037942,0.0165648,0.000000
0.000000,0.006551,0.001644,0.003645,0.042353,0.0162389,0.000000
0.000000,0.006606,0.001603,0.003475,0.047301,0.0159118,0.000000
0.000000,0.006651,0.001590,0.003309,0.053899,0.0154673,0.000000
0.000000,0.006625,0.001618,0.003248,0.060806,0.0151367,0.000000
0.000000,0.006414,0.001702,0.003435,0.066769,0.0147129,0.000000
0.000000,0.006172,0.001750,0.003538,0.073648,0.0142881,0.000000
0.000000,0.005853,0.001805,0.003779,0.080384,0.0139562,0.000000
0.000000,0.005640,0.001850,0.003850,0.085827,0.0136716,0.000000
0.000000,0.005476,0.001873,0.003910,0.091488,0.0134279,0.000000
0.000000,0.005216,0.001936,0.004098,0.097449,0.0129784,0.000000
0.000000,0.004984,0.002041,0.004485,0.100345,0.0126061,0.000000
0.000000,0.004882,0.002162,0.005222,0.101972,0.0120094,0.000000
0.000000,0.004990,0.002308,0.006135,0.102373,0.0114313,0.000000
0.000000,0.005489,0.002418,0.006883,0.102586,0.0108973,0.000000
0.000000,0.006190,0.002509,0.007512,0.102351,0.0104440,0.000000
0.000000,0.006918,0.002589,0.008203,0.102750,0.0100799,0.000000
0.000000,0.007896,0.002679,0.008903,0.103206,0.0098488,0.000000
0.000000,0.008796,0.002763,0.009704,0.103622,0.0094742,0.000000
0.000000,0.009721,0.002842,0.010357,0.103771,0.0090953,0.000000
0.000000,0.010477,0.002971,0.012565,0.102666,0.0087948,0.000000
0.000000,0.011538,0.003376,0.015232,0.100445,0.0085913,0.000000
0.000000,0.012723,0.004215,0.017817,0.097087,0.0085169,0.000000
0.000000,0.013745,0.005147,0.021221,0.093286,0.0084519,0.000000
0.000880,0.014524,0.006580,0.024704,0.087575,0.0083114,0.000000
0.002008,0.015274,0.008445,0.028231,0.081533,0.0082085,0.000000
0.003147,0.016227,0.010395,0.032306,0.075063,0.0082300,0.000000
0.004328,0.017382,0.012904,0.036189,0.067201,0.0082236,0.000000
0.005877,0.018337,0.015491,0.040097,0.059814,0.0081584,0.000000
0.008849,0.019094,0.018027,0.044280,0.053577,0.0079230,0.000000
0.013272,0.019700,0.020532,0.047445,0.047549,0.0077133,0.000000
0.018086,0.020499,0.022929,0.049389,0.041387,0.0076235,0.000000
0.023194,0.020942,0.025302,0.050934,0.038163,0.0078659,0.000000
0.028369,0.021267,0.028023,0.051614,0.036301,0.0080892,0.000000
0.033781,0.021105,0.030497,0.052282,0.035262,0.0083238,0.000000
0.040295,0.020686,0.032649,0.052899,0.034189,0.0086264,0.000000
0.047478,0.019838,0.034834,0.053276,0.033492,0.0089326,0.000000
0.055364,0.018840,0.036591,0.053473,0.031831,0.0092304,0.000000
0.062612,0.017681,0.038027,0.053334,0.029941,0.0093742,0.000000
0.069871,0.016456,0.039532,0.053687,0.028192,0.0096283,0.000000
0.075828,0.015149,0.041204,0.054636,0.026365,0.0099714,0.000000
0.081246,0.014065,0.042791,0.054461,0.024999,0.0102651,0.000000
0.086532,0.012697,0.044083,0.053781,0.023595,0.0105323,0.000000
0.091778,0.011232,0.044295,0.053248,0.022110,0.0107179,0.000000
0.097306,0.010020,0.044299,0.052131,0.020653,0.0109020,0.000000
0.099625,0.009431,0.043521,0.050900,0.018923,0.0107367,0.000000
0.102187,0.008488,0.042318,0.049957,0.017617,0.0106409,0.000000
0.103520,0.007608,0.041117,0.048079,0.017290,0.0104054,0.000000
0.105940,0.006348,0.039515,0.046629,0.017328,0.0103799,0.000000
0.107520,0.005302,0.037802,0.045479,0.017276,0.0102906,0.000000
0.107718,0.004496,0.035997,0.043626,0.017380,0.0101829,0.000000
0.106732,0.003687,0.034182,0.042490,0.017399,0.0101641,0.000000
0.104834,0.002765,0.032277,0.042421,0.017228,0.0099595,0.000000
0.102954,0.002291,0.030364,0.042832,0.016938,0.0098127,0.000000
0.101709,0.001883,0.027910,0.044151,0.016804,0.0097324,0.000000
0.099940,0.001784,0.025692,0.045227,0.016774,0.0096295,0.000000
0.096696,0.001999,0.023790,0.046235,0.016608,0.0094722,0.000000
0.092479,0.002565,0.021564,0.047786,0.016472,0.0093266,0.000000
0.086986,0.003355,0.019722,0.049251,0.016289,0.0091222,0.000000
0.080681,0.004716,0.018091,0.050136,0.016058,0.0088530,0.000000
0.074947,0.005779,0.016391,0.051311,0.015679,0.0085379,0.000000
0.070681,0.007210,0.014676,0.051855,0.015435,0.0080599,0.000000
0.067000,0.008699,0.013039,0.051815,0.015074,0.0076359,0.000000
0.063321,0.010236,0.011464,0.051666,0.014804,0.0072513,0.000000
0.059760,0.011531,0.010535,0.051315,0.014618,0.0069187,0.000000
0.055800,0.012692,0.009741,0.051191,0.014318,0.0065914,0.000000
0.053811,0.013270,0.009182,0.051451,0.014155,0.0064848,0.000000
0.051689,0.014267,0.008628,0.051229,0.013906,0.0062681,0.000000
0.050897,0.015246,0.007976,0.051096,0.013902,0.0061801,0.000000
0.048441,0.016619,0.007137,0.050813,0.013514,0.0058309,0.000000
0.046773,0.017966,0.006384,0.049379,0.013320,0.0055906,0.000000
0.044919,0.018968,0.005623,0.048674,0.013052,0.0053828,0.000000
0.042663,0.020014,0.004886,0.048307,0.012832,0.0050502,0.000000
0.040840,0.021054,0.004295,0.048645,0.012704,0.0047873,0.000000
0.038950,0.021999,0.003716,0.048769,0.012599,0.0044192,0.000000
0.036376,0.022775,0.003317,0.048523,0.012404,0.0039865,0.000000
0.034229,0.024116,0.002922,0.048236,0.012223,0.0035465,0.000000
0.032400,0.024955,0.002529,0.048349,0.012104,0.0031328,0.000000
0.030836,0.026142,0.002427,0.048079,0.011883,0.0026752,0.000000
0.030009,0.026933,0.002407,0.048136,0.011816,0.0023418,0.000000
0.030370,0.027332,0.002479,0.049005,0.011980,0.0021845,0.000000
0.029959,0.028061,0.002536,0.049461,0.012097,0.0019337,0.000000
0.029496,0.028691,0.002450,0.050454,0.012198,0.0017747,0.000000
0.029085,0.029321,0.002327,0.051122,0.012217,0.0016093,0.000000
0.028745,0.029820,0.002170,0.052036,0.012214,0.0014586,0.000000
0.028184,0.031221,0.002031,0.052742,0.012246,0.0013252,0.000000
0.027423,0.032632,0.001890,0.053616,0.012291,0.0011836,0.000000
0.026885,0.034272,0.001788,0.054576,0.012470,0.0011523,0.000000
0.025836,0.036192,0.001656,0.055970,0.012673,0.0011091,0.000000
0.024546,0.038405,0.001496,0.057262,0.012814,0.0011592,0.000000
0.023607,0.040287,0.001354,0.059050,0.013128,0.0013148,0.000000
0.022220,0.042083,0.001152,0.061986,0.013352,0.0014976,0.000000
0.021002,0.044503,0.001074,0.064625,0.013511,0.0017151,0.000000
0.019820,0.047119,0.001035,0.067323,0.013724,0.0019434,0.000000
0.018729,0.049868,0.001030,0.069919,0.014054,0.0022242,0.000000
0.017389,0.053628,0.001007,0.072984,0.014308,0.0024701,0.000000
0.016034,0.057161,0.000975,0.076745,0.014501,0.0027360,0.000000
0.014538,0.060195,0.000925,0.080611,0.014739,0.0030428,0.000000
0.013097,0.063437,0.000905,0.083449,0.014903,0.0033677,0.000000
0.011696,0.065863,0.000901,0.086439,0.015285,0.0036173,0.000000
0.010129,0.068825,0.000863,0.089911,0.015392,0.0038003,0.000000
0.008825,0.071982,0.000848,0.094155,0.015332,0.0039544,0.000000
0.008084,0.075648,0.000895,0.097799,0.015420,0.0041708,0.000000
0.007850,0.078374,0.000957,0.100615,0.015609,0.0044447,0.000000
0.007709,0.080887,0.001031,0.103344,0.015847,0.0047157,0.000000
0.007609,0.083039,0.001128,0.105284,0.016109,0.0050288,0.000000
0.007600,0.083928,0.001222,0.106459,0.016500,0.0053935,0.000000
0.007824,0.084840,0.001363,0.106313,0.017155,0.0057125,0.000000
0.008182,0.085386,0.001533,0.105698,0.017937,0.0059534,0.000000
0.008638,0.085447,0.001753,0.104852,0.018566,0.0062224,0.000000
0.009210,0.084800,0.002000,0.103724,0.019289,0.0064782,0.000000
0.010003,0.083906,0.002280,0.100487,0.020178,0.0067331,0.000000
0.010852,0.082385,0.002579,0.096404,0.021180,0.0069159,0.000000
0.011313,0.080267,0.002873,0.092402,0.022133,0.0071505,0.000000
0.011724,0.077910,0.003154,0.088201,0.023131,0.0076019,0.000000
0.012121,0.074770,0.003405,0.083689,0.024063,0.0081437,0.000000
0.012510,0.070551,0.003631,0.078512,0.025131,0.0087418,0.000000
0.012900,0.066209,0.003822,0.072753,0.026070,0.0093333,0.000000
0.013181,0.061787,0.003974,0.066893,0.026860,0.0098288,0.000000
0.013346,0.057326,0.004103,0.061831,0.027579,0.0104465,0.000000
0.013655,0.053260,0.004245,0.056851,0.028255,0.0111775,0.000000
0.013920,0.048970,0.004388,0.051366,0.029153,0.0118579,0.000000
0.014208,0.044255,0.004533,0.045122,0.030262,0.0126126,-0.000000
0.014183,0.038937,0.004635,0.039208,0.031165,0.0133981,-0.000000
0.013584,0.034300,0.004713,0.033733,0.031835,0.0141246,-0.000001
0.012845,0.029817,0.004778,0.028777,0.032483,0.0148791,-0.000001
0.012248,0.025784,0.004822,0.024559,0.033404,0.0154718,-0.000001
0.011705,0.022322,0.004851,0.021494,0.034339,0.0159594,-0.000001
0.011325,0.018910,0.004826,0.019148,0.034902,0.0165232,-0.000001
0.011046,0.015896,0.004771,0.016922,0.035312,0.0170020,-0.000001
0.010776,0.013083,0.004668,0.014525,0.035763,0.0173868,-0.000001
0.010535,0.010525,0.004556,0.012674,0.036268,0.0176254,-0.000001
0.010138,0.008400,0.004423,0.012337,0.036588,0.0178174,-0.000001
0.009849,0.007010,0.004291,0.012464,0.036805,0.0179661,-0.000001
0.009873,0.005874,0.004171,0.012636,0.036815,0.0180709,-0.000001
0.010040,0.004831,0.004049,0.012872,0.036684,0.0179726,-0.000001
0.009934,0.004541,0.003909,0.012754,0.036542,0.0178531,-0.000001
0.009723,0.004328,0.003793,0.012642,0.036346,0.0178292,-0.000001
0.009512,0.004471,0.003725,0.012445,0.036188,0.0177815,-0.000001
0.009436,0.004588,0.003692,0.012264,0.036104,0.0179546,-0.000001
0.009602,0.004590,0.003675,0.012217,0.036312,0.0180162,-0.000001
0.009655,0.004615,0.003638,0.012058,0.036595,0.0180996,-0.000001
0.009823,0.004572,0.003594,0.011910,0.036883,0.0181846,-0.000001
0.009969,0.004593,0.003542,0.011699,0.037015,0.0182500,-0.000000
0.009960,0.004670,0.003473,0.011380,0.037322,0.0180970,-0.000000
0.009957,0.004728,0.003412,0.011063,0.037940,0.0179427,0.000000
0.010009,0.004707,0.003362,0.010876,0.038370,0.0176706,0.000000
0.009834,0.004684,0.003321,0.010739,0.038459,0.0174158,0.000000
0.009262,0.004820,0.003255,0.010351,0.038122,0.0173688,0.000000
0.008611,0.005012,0.003195,0.009920,0.037716,0.0174741,0.000000
0.007861,0.005237,0.003150,0.009529,0.037270,0.0177458,0.000000
0.007155,0.005398,0.003087,0.009112,0.036871,0.0180000,0.000000
0.006435,0.005581,0.003012,0.008709,0.035860,0.0184434,0.000000
0.005834,0.005677,0.002939,0.008309,0.035122,0.0188056,0.000000
0.005198,0.005832,0.002861,0.007829,0.034402,0.0192085,0.000000
0.004616,0.006030,0.002769,0.007243,0.033628,0.0199489,0.000000
0.004038,0.006153,0.002692,0.006707,0.032911,0.0204304,0.000000
0.003747,0.006096,0.002638,0.006318,0.032281,0.0208074,0.000000
0.003569,0.006038,0.002601,0.006018,0.031616,0.0211276,0.000000
0.003389,0.005981,0.002561,0.005669,0.031239,0.0215874,0.000000
0.003185,0.005902,0.002542,0.005434,0.030858,0.0218890,0.000000
0.002853,0.005881,0.002534,0.005219,0.029980,0.0222227,0.000000
0.002491,0.005799,0.002534,0.005151,0.029074,0.0222186,0.000000
0.002058,0.005767,0.002536,0.005060,0.028207,0.0221874,0.000000
0.001624,0.005753,0.002544,0.005012,0.027390,0.0222951,0.000000
0.001285,0.005739,0.002585,0.005010,0.026364,0.0225040,0.000000
0.000893,0.005738,0.002628,0.004990,0.025283,0.0227736,0.000000
0.000396,0.005798,0.002675,0.004921,0.024153,0.0230832,0.000000
0.000000,0.005855,0.002725,0.004839,0.023202,0.0235041,0.000000
0.000000,0.005765,0.002789,0.004976,0.022474,0.0238310,0.000000
0.000000,0.005672,0.002861,0.005125,0.021919,0.0239693,0.000000
0.000000,0.005495,0.002924,0.005242,0.021407,0.0240221,0.000000
0.000000,0.005361,0.003000,0.005417,0.021028,0.0241405,0.000000
0.000000,0.005203,0.003071,0.005639,0.020975,0.0241544,0.000000
0.000000,0.005000,0.003168,0.006050,0.020672,0.0239784,0.000000
0.000000,0.004745,0.003255,0.006484,0.020322,0.0237186,0.000000
0.000000,0.004384,0.003346,0.007049,0.020300,0.0230154,0.000000
0.000000,0.004079,0.003430,0.007553,0.020417,0.0225750,0.000000
0.000000,0.003858,0.003519,0.008109,0.020416,0.0221409,0.000000
0.000000,0.003658,0.003774,0.008423,0.020267,0.0216304,0.000000
0.000000,0.003470,0.004039,0.008780,0.020030,0.0209849,0.000000
0.000000,0.003377,0.004282,0.009081,0.019929,0.0204420,0.000000
0.000000,0.003376,0.004497,0.009223,0.020147,0.0198727,0.000000
0.000000,0.003441,0.004712,0.009330,0.020168,0.0196124,0.000000
0.000000,0.003580,0.004930,0.009383,0.020468,0.0194043,0.000000
0.000000,0.003682,0.005139,0.009417,0.021212,0.0190313,0.000000
0.000000,0.003829,0.005476,0.009274,0.022080,0.0186378,0.000000
0.000000,0.003948,0.005639,0.009389,0.022858,0.0181569,0.000000
0.000010,0.004112,0.005797,0.009422,0.023939,0.0176993,0.000000
0.000010,0.004150,0.005941,0.009566,0.025402,0.0171976,0.000000
0.000010,0.004059,0.006094,0.010855,0.026829,0.0167332,0.000000
0.000010,0.003953,0.006237,0.012130,0.028395,0.0162341,0.000000
0.000010,0.003823,0.006369,0.013468,0.029266,0.0158667,0.000000
0.000010,0.003717,0.006508,0.014788,0.029893,0.0156238,0.000000
0.000010,0.003567,0.006493,0.016251,0.030830,0.0153022,0.000000
0.000010,0.003460,0.006452,0.017520,0.031549,0.0152500,0.000000
0.000010,0.003327,0.006433,0.018727,0.032083,0.0152714,0.000000
0.000010,0.003266,0.006427,0.019951,0.032076,0.0154926,0.000000
0.000010,0.003453,0.006751,0.019789,0.031776,0.0157657,0.000000
0.000010,0.003715,0.007129,0.019521,0.031153,0.0161916,0.000000
0.000010,0.003939,0.007331,0.019552,0.030715,0.0165895,0.000000
0.000010,0.004153,0.007603,0.019742,0.030120,0.0171074,0.000000
0.000010,0.004590,0.007868,0.019762,0.029185,0.0177748,0.000000
0.000010,0.005117,0.008127,0.019731,0.028179,0.0185878,0.000000
0.000010,0.005701,0.008394,0.019520,0.027326,0.0192111,0.000000
0.000010,0.006289,0.008541,0.019260,0.026175,0.0198290,0.000000
0.000010,0.006907,0.008485,0.019241,0.024763,0.0202995,0.000000
0.000010,0.007466,0.008232,0.019410,0.023375,0.0206949,0.000000
0.000010,0.008131,0.008122,0.019088,0.021800,0.0213187,0.000000
0.000000,0.008737,0.008298,0.018637,0.020199,0.0217777,0.000000
0.000000,0.009233,0.008793,0.018346,0.018263,0.0219824,0.000000
0.000000,0.010208,0.009707,0.017080,0.016312,0.0219344,0.000000
0.000200,0.011171,0.010953,0.016096,0.014185,0.0219477,0.000000
0.001538,0.012073,0.012682,0.015559,0.012662,0.0219130,0.000000
0.004258,0.012734,0.014858,0.015581,0.011345,0.0220029,0.000000
0.007498,0.013460,0.017395,0.015305,0.009892,0.0221805,0.000000
0.010785,0.014284,0.020013,0.014923,0.008554,0.0223606,0.000000
0.014085,0.015098,0.022706,0.014704,0.007546,0.0223564,0.000000
0.017746,0.015917,0.025510,0.014569,0.006984,0.0221722,0.000000
0.021605,0.016674,0.028150,0.015552,0.006558,0.0218760,0.000000
0.026116,0.017308,0.030573,0.017127,0.006560,0.0215132,0.000000
0.030443,0.018106,0.033149,0.018135,0.006458,0.0211594,0.000000
0.034817,0.018992,0.035505,0.018630,0.006529,0.0206893,0.000000
0.039946,0.019217,0.037564,0.019307,0.006742,0.0199315,0.000000
0.044842,0.019237,0.039473,0.019949,0.006956,0.0188715,0.000000
0.050171,0.019083,0.041162,0.020716,0.007094,0.0180263,0.000000
0.054742,0.018904,0.042813,0.021285,0.007058,0.0171281,0.000000
0.058070,0.018931,0.044481,0.020927,0.006757,0.0161055,0.000000
0.060755,0.018924,0.045877,0.020566,0.006415,0.0150458,0.000000
0.064011,0.018621,0.047534,0.020875,0.006204,0.0137769,0.000000
0.067135,0.018503,0.048821,0.021231,0.005937,0.0126875,0.000000
0.070071,0.018735,0.049728,0.021126,0.005510,0.0118792,0.000000
0.073326,0.018441,0.050109,0.020767,0.005128,0.0112354,0.000000
0.076196,0.018123,0.049898,0.020091,0.004802,0.0105853,0.000000
0.077873,0.017783,0.048953,0.019109,0.004530,0.0098733,0.000000
0.078348,0.017711,0.047426,0.017793,0.004136,0.0089236,0.000000
0.078354,0.017442,0.045671,0.017192,0.003758,0.0079352,0.000000
0.078106,0.017086,0.043856,0.017167,0.003408,0.0070132,0.000000
0.077570,0.017016,0.042034,0.016821,0.002950,0.0062092,0.000000
0.076099,0.016936,0.039987,0.016349,0.002567,0.0054855,0.000000
0.074784,0.016567,0.037752,0.016462,0.002271,0.0048654,0.000000
0.073111,0.016333,0.035643,0.016085,0.002117,0.0043471,0.000000
0.071479,0.016054,0.033126,0.016005,0.002191,0.0038666,0.000000
0.068920,0.015892,0.030603,0.015978,0.002132,0.0032599,0.000000
0.066403,0.015899,0.028582,0.016143,0.002316,0.0027722,0.000000
0.063343,0.016056,0.026654,0.016429,0.002635,0.0023904,0.000000
0.060283,0.016049,0.024895,0.017333,0.003046,0.0020592,0.000000
0.058865,0.015845,0.023374,0.018943,0.003761,0.0019229,0.000000
0.058506,0.015347,0.022053,0.021412,0.004679,0.0021287,0.000000
0.058553,0.014993,0.021068,0.023592,0.005586,0.0025579,0.000000
0.058139,0.014900,0.019834,0.025468,0.006502,0.0029707,0.000000
0.057974,0.014472,0.018529,0.027469,0.007389,0.0033635,0.000000
0.057448,0.013904,0.017254,0.029881,0.008208,0.0037450,0.000000
0.056682,0.013640,0.016224,0.032357,0.009005,0.0041328,0.000000
0.056244,0.013392,0.015322,0.035030,0.009844,0.0044571,0.000000
0.055372,0.013298,0.014642,0.037315,0.010606,0.0047862,0.000000
0.054274,0.013167,0.014116,0.039349,0.011320,0.0051623,0.000000
0.053656,0.013000,0.013572,0.041031,0.012034,0.0055849,0.000000
0.053052,0.012761,0.012907,0.042498,0.012685,0.0059040,0.000000
0.052537,0.012554,0.012148,0.043933,0.013332,0.0062410,0.000000
0.052283,0.012600,0.011476,0.045021,0.013966,0.0065532,0.000000
0.051076,0.012963,0.010739,0.045373,0.014384,0.0066871,0.000000
0.050164,0.013038,0.010061,0.045984,0.014667,0.0066780,0.000000
0.048581,0.013252,0.009550,0.046100,0.014671,0.0065431,0.000000
0.048244,0.013103,0.009251,0.047107,0.014827,0.0066291,0.000000
0.046957,0.013293,0.008766,0.047891,0.014790,0.0066640,0.000000
0.046703,0.013393,0.008288,0.048550,0.014801,0.0067383,0.000000
0.045700,0.013555,0.007797,0.049126,0.014670,0.0067775,0.000000
0.043971,0.013793,0.007234,0.049481,0.014394,0.0066968,0.000000
0.042694,0.014181,0.006690,0.049998,0.014081,0.0065627,0.000000
0.042239,0.014385,0.006183,0.050886,0.013900,0.0064329,0.000000
0.041443,0.015091,0.005695,0.051455,0.013669,0.0063399,0.000000
0.040511,0.016097,0.005360,0.051792,0.013457,0.0062754,0.000000
0.040200,0.016880,0.005067,0.052218,0.013301,0.0062385,0.000000
0.039981,0.017599,0.004634,0.053097,0.013155,0.0061761,0.000000
0.039598,0.018455,0.004326,0.053941,0.012954,0.0062086,0.000000
0.039689,0.019379,0.004052,0.054939,0.012781,0.0062870,0.000000
0.039760,0.020318,0.003766,0.055705,0.012693,0.0063135,0.000000
0.039172,0.021761,0.003525,0.056050,0.012615,0.0062669,0.000000
0.038747,0.023363,0.003414,0.055866,0.012678,0.0062288,0.000000
0.038456,0.025654,0.003320,0.055321,0.012773,0.0061858,0.000000
0.038251,0.027855,0.003237,0.054991,0.012875,0.0061633,0.000000
0.038089,0.030402,0.003163,0.054657,0.012978,0.0061630,0.000000
0.036963,0.033604,0.003035,0.054009,0.012972,0.0060980,0.000000
0.036617,0.036631,0.002984,0.054043,0.013084,0.0061389,0.000000
0.035985,0.039810,0.002860,0.053737,0.013086,0.0060968,0.000000
0.035358,0.042961,0.002710,0.053920,0.013196,0.0059843,0.000000
0.034563,0.046007,0.002636,0.053968,0.013297,0.0058717,0.000000
0.033885,0.049646,0.002633,0.053094,0.013528,0.0056768,0.000000
0.033038,0.053433,0.002627,0.052111,0.013815,0.0054611,0.000000
0.031853,0.057233,0.002594,0.050856,0.014115,0.0052432,0.000000
0.030145,0.061720,0.002513,0.049579,0.014355,0.0049727,0.000000
0.028641,0.065937,0.002421,0.048516,0.014683,0.0046806,0.000000
0.027034,0.069533,0.002321,0.047948,0.015023,0.0044347,0.000000
0.025346,0.073075,0.002229,0.047011,0.015446,0.0041962,0.000000
0.023469,0.076390,0.002156,0.045626,0.016003,0.0040266,0.000000
0.021542,0.079270,0.002103,0.043946,0.016601,0.0038520,0.000000
0.019665,0.081915,0.002060,0.042299,0.017335,0.0036421,0.000000
0.017968,0.084160,0.002036,0.041190,0.018071,0.0034570,0.000000
0.016667,0.086202,0.002058,0.039990,0.018884,0.0033437,0.000000
0.015283,0.088137,0.002068,0.038850,0.019568,0.0032771,0.000000
0.013855,0.088781,0.002071,0.038478,0.020178,0.0032581,0.000000
0.012647,0.088863,0.002082,0.038203,0.020773,0.0032552,0.000000
0.012015,0.088564,0.002171,0.038130,0.021505,0.0033555,0.000000
0.011784,0.087668,0.002303,0.037917,0.022301,0.0034948,0.000000
0.011622,0.085823,0.002448,0.037497,0.023216,0.0036832,0.000000
0.011390,0.083784,0.002604,0.036762,0.024157,0.0038430,0.000000
0.011294,0.081441,0.002780,0.035598,0.025098,0.0040498,0.000000
0.011101,0.079014,0.002947,0.034803,0.025994,0.0042663,0.000000
0.011158,0.076033,0.003096,0.034353,0.026679,0.0046253,0.000000
0.011295,0.072806,0.003228,0.033593,0.027200,0.0052449,0.000000
0.011519,0.069366,0.003359,0.032797,0.027650,0.0060005,0.000000
0.011485,0.065001,0.003489,0.031541,0.027998,0.0068547,0.000000
0.011449,0.060297,0.003617,0.030121,0.028314,0.0077478,0.000000
0.011549,0.056045,0.003741,0.028241,0.028617,0.0090390,0.000000
0.011375,0.051676,0.003813,0.026450,0.028562,0.0104264,0.000000
0.011314,0.047428,0.003863,0.024611,0.028243,0.0119035,0.000000
0.011259,0.043580,0.003887,0.022969,0.027929,0.0133050,0.000000
0.011367,0.039788,0.003910,0.021458,0.027890,0.0144251,0.000000
0.011526,0.036482,0.003922,0.019757,0.027936,0.0152472,0.000000
0.011724,0.033109,0.003903,0.018517,0.028330,0.0156815,0.000000
0.011873,0.029845,0.003873,0.017356,0.029196,0.0163303,0.000000
0.012227,0.026847,0.003845,0.016103,0.030822,0.0166516,0.000000
0.012576,0.024213,0.003802,0.014873,0.032308,0.0169833,0.000000
0.012885,0.021329,0.003783,0.013964,0.033768,0.0174025,0.000000
0.012752,0.018481,0.003718,0.012978,0.035161,0.0179496,0.000000
0.012463,0.016485,0.003659,0.012156,0.036029,0.0185153,0.000000
0.012207,0.014637,0.003592,0.011458,0.036532,0.0189980,0.000000
0.011929,0.013061,0.003528,0.010685,0.036402,0.0197233,0.000000
0.011366,0.011693,0.003438,0.009746,0.036513,0.0203374,0.000000
0.010856,0.010544,0.003347,0.008819,0.036592,0.0210393,0.000000
0.010448,0.009449,0.003281,0.008334,0.036668,0.0213219,0.000000
0.010074,0.008476,0.003221,0.007864,0.036817,0.0215441,0.000000
0.009933,0.007777,0.003175,0.007799,0.037083,0.0216422,0.000000
0.009702,0.007160,0.003124,0.007882,0.037347,0.0215643,0.000000
0.009370,0.006675,0.003066,0.008041,0.037739,0.0209715,0.000000
0.009206,0.006683,0.003026,0.008069,0.038374,0.0202185,0.000000
0.008874,0.006798,0.002989,0.008018,0.039619,0.0194992,0.000000
0.008607,0.006806,0.002973,0.008042,0.040985,0.0187857,0.000000
0.008525,0.006787,0.003006,0.008189,0.041984,0.0183650,0.000000
0.008240,0.006714,0.003030,0.008156,0.042948,0.0183458,0.000000
0.007432,0.006529,0.003021,0.007826,0.044854,0.0186416,0.000000
0.006947,0.006110,0.003044,0.007889,0.046024,0.0186940,0.000000
0.006381,0.005896,0.003060,0.007894,0.046218,0.0191439,0.000000
0.005559,0.005762,0.003046,0.007732,0.046925,0.0195158,0.000000
0.004709,0.005708,0.002981,0.007430,0.047454,0.0197255,0.000000
0.004302,0.005868,0.002966,0.007352,0.046907,0.0198534,0.000000
0.003988,0.006107,0.002929,0.007123,0.046605,0.0199884,0.000000
0.003630,0.006360,0.002903,0.006830,0.046837,0.0200776,0.000000
0.003306,0.006320,0.002881,0.006815,0.047129,0.0198769,0.000000
0.003276,0.006310,0.002873,0.006719,0.047175,0.0201150,0.000000
0.003139,0.006190,0.002866,0.006732,0.047669,0.0200174,0.000000
0.002920,0.006114,0.002853,0.006664,0.047756,0.0200520,0.000000
0.002562,0.006098,0.002828,0.006419,0.047637,0.0203758,0.000000
0.002170,0.006165,0.002791,0.006098,0.047448,0.0207785,0.000000
0.001893,0.006229,0.002764,0.005770,0.047106,0.0214610,0.000000
0.001707,0.006168,0.002773,0.005681,0.046125,0.0218729,0.000000
0.001634,0.006031,0.002807,0.005630,0.045221,0.0225379,0.000000
0.001634,0.005811,0.002867,0.005775,0.044022,0.0228830,0.000000
0.001634,0.005605,0.002901,0.005967,0.042638,0.0230421,0.000000
0.001251,0.005517,0.002897,0.005839,0.041330,0.0231918,0.000000
0.000905,0.005333,0.002899,0.005875,0.040031,0.0232535,0.000000
0.000777,0.005224,0.002933,0.006085,0.037393,0.0231971,0.000000
0.000486,0.005253,0.002933,0.006060,0.034938,0.0231517,0.000000
0.000167,0.005196,0.002947,0.005972,0.032719,0.0232729,0.000000
0.000117,0.005016,0.002995,0.006087,0.030226,0.0234440,0.000000
0.000184,0.004945,0.003056,0.006302,0.028018,0.0234792,0.000000
0.000181,0.004789,0.003097,0.006452,0.026796,0.0234123,0.000000
0.000181,0.004608,0.003140,0.006720,0.026269,0.0233239,0.000000
0.000181,0.004555,0.003166,0.006977,0.025596,0.0233141,0.000000
0.000247,0.004607,0.003199,0.007225,0.025471,0.0230179,0.000000
0.000352,0.004494,0.003247,0.007653,0.025405,0.0224261,0.000000
0.000352,0.004517,0.003286,0.007909,0.025392,0.0220020,0.000000
0.000265,0.004669,0.003313,0.008012,0.025600,0.0216206,0.000000
0.000265,0.004668,0.003340,0.008964,0.025635,0.0213302,0.000000
0.000265,0.004595,0.003360,0.010274,0.025671,0.0209926,0.000000
0.000265,0.004827,0.003382,0.011522,0.025670,0.0205642,0.000000
0.000265,0.005227,0.003394,0.012594,0.026109,0.0205236,0.000000
0.000265,0.005531,0.003417,0.013784,0.026021,0.0202134,0.000000
0.000265,0.005804,0.003675,0.015077,0.025815,0.0198194,0.000000
0.000265,0.006315,0.003987,0.015068,0.025526,0.0195728,0.000000
0.000265,0.006891,0.004415,0.014948,0.025134,0.0192708,0.000000
0.000265,0.007188,0.004857,0.014853,0.024599,0.0188785,0.000000
0.000265,0.007550,0.005267,0.014571,0.023887,0.0188658,0.000000
0.000265,0.008113,0.005448,0.014233,0.023268,0.0188960,0.000000
0.000265,0.008695,0.005620,0.013879,0.022858,0.0185811,0.000000
0.000265,0.009357,0.005708,0.013492,0.022587,0.0185259,0.000000
0.000197,0.010070,0.005694,0.013149,0.023365,0.0185716,0.000000
0.000171,0.011329,0.005645,0.012755,0.025385,0.0186118,0.000000
0.000171,0.012705,0.005605,0.012428,0.027781,0.0183718,0.000000
0.000171,0.013764,0.005559,0.012150,0.031326,0.0180976,0.000000
0.000104,0.015303,0.005524,0.011585,0.035073,0.0180786,0.000000
0.000000,0.016707,0.005437,0.011081,0.038295,0.0177896,0.000000
0.000000,0.018210,0.005347,0.010577,0.041408,0.0175017,0.000000
0.000000,0.019052,0.005249,0.010121,0.045756,0.0173076,0.000000
0.000000,0.020143,0.005160,0.009079,0.050567,0.0166981,0.000000
0.000000,0.021020,0.005018,0.007977,0.056932,0.0161064,0.000000
0.000000,0.022030,0.004864,0.006564,0.062944,0.0152771,0.000000
0.000000,0.022682,0.004699,0.005174,0.068746,0.0143552,0.000000
0.000000,0.023207,0.004525,0.003835,0.074984,0.0133553,0.000000
0.000000,0.023783,0.004185,0.002347,0.081017,0.0126065,0.000000
0.000004,0.023881,0.004094,0.001945,0.085301,0.0118156,0.000000
0.000004,0.023233,0.004061,0.002297,0.090022,0.0112122,0.000000
0.000004,0.022925,0.004057,0.002734,0.096453,0.0107731,0.000000
0.000004,0.022680,0.004151,0.003511,0.102349,0.0100952,0.000000
0.000004,0.022338,0.004728,0.004281,0.106239,0.0093104,0.000000
0.000004,0.021842,0.004995,0.005568,0.110596,0.0086482,0.000000
0.000004,0.021595,0.005146,0.007247,0.114890,0.0077737,0.000000
0.000004,0.021546,0.005422,0.008450,0.116415,0.0069513,0.000000
0.000004,0.020579,0.005770,0.009983,0.116099,0.0061946,0.000000
0.000004,0.019760,0.006541,0.011273,0.114789,0.0057023,0.000000
0.000004,0.019320,0.007669,0.013361,0.111781,0.0052627,0.000000
0.000698,0.017749,0.009624,0.018773,0.108130,0.0049264,0.000000
0.003148,0.016246,0.011669,0.024342,0.104240,0.0048897,0.000000
0.005817,0.014591,0.013724,0.029951,0.100003,0.0048344,0.000000
0.008715,0.013477,0.015785,0.035547,0.094764,0.0047155,0.000000
0.011804,0.012173,0.017844,0.041058,0.089369,0.0045825,0.000000
0.014948,0.011124,0.019949,0.046176,0.082337,0.0044465,0.000000
0.018433,0.009623,0.022107,0.051832,0.075844,0.0045271,0.000000
0.022419,0.008530,0.024362,0.057483,0.069536,0.0046276,0.000000
0.026729,0.007675,0.026737,0.063214,0.063140,0.0048230,0.000000
0.031890,0.006806,0.029093,0.068795,0.056800,0.0049608,0.000000
0.037454,0.006146,0.031169,0.074436,0.052240,0.0051760,0.000000
0.043182,0.006133,0.033039,0.079494,0.047270,0.0052518,0.000000
0.048968,0.006116,0.034870,0.084303,0.040611,0.0052033,0.000000
0.054892,0.005994,0.036603,0.088764,0.034671,0.0051707,0.000000
0.060981,0.005776,0.038063,0.093248,0.030799,0.0052287,0.000000
0.067101,0.005576,0.039714,0.097369,0.026294,0.0052663,0.000000
0.073340,0.005043,0.041424,0.101269,0.021639,0.0052621,0.000000
0.079844,0.004183,0.043045,0.105782,0.018646,0.0053435,0.000000
0.086226,0.003692,0.044604,0.110160,0.016322,0.0054143,0.000000
0.092494,0.002846,0.045561,0.114873,0.014051,0.0054536,0.000000
0.099771,0.001927,0.045874,0.119064,0.012271,0.0055098,0.000000
0.107875,0.001924,0.045203,0.119998,0.010802,0.0054718,0.000000
0.114463,0.002242,0.044408,0.120577,0.010049,0.0053035,0.000000
0.120941,0.002637,0.043752,0.120932,0.009248,0.0050784,0.000000
0.128265,0.002926,0.043237,0.121283,0.008677,0.0049602,0.000000
0.136126,0.003188,0.042759,0.121710,0.008240,0.0049004,0.000000
0.143800,0.003392,0.042270,0.122476,0.007881,0.0048136,0.000000
0.151101,0.003590,0.041711,0.123025,0.007483,0.0047021,0.000000
0.158394,0.003654,0.041069,0.122931,0.007314,0.0046596,0.000000
0.165946,0.003963,0.040221,0.121448,0.007462,0.0047151,0.000000
0.172488,0.004522,0.039125,0.119303,0.007633,0.0047721,0.000000
0.178671,0.005540,0.037937,0.116928,0.007773,0.0048235,0.000000
0.184911,0.006666,0.036626,0.114385,0.007840,0.0048387,0.000000
0.191030,0.007817,0.035090,0.112058,0.007929,0.0048551,0.000000
0.197118,0.009005,0.033418,0.110127,0.007941,0.0048453,0.000000
0.202636,0.010620,0.031742,0.108079,0.007870,0.0047654,0.000000
0.208033,0.012433,0.030198,0.105976,0.007816,0.0046894,0.000000
0.213202,0.014257,0.028807,0.103723,0.007817,0.0046139,0.000000
0.217995,0.016152,0.027476,0.101112,0.007805,0.0044776,0.000000
0.222975,0.018084,0.026184,0.098533,0.007869,0.0043306,0.000000
0.228002,0.020406,0.025062,0.095910,0.007904,0.0041751,0.000000
0.232501,0.022584,0.024283,0.093484,0.008065,0.0041290,0.000000
0.235683,0.024617,0.023682,0.091314,0.008383,0.0042015,0.000000
0.238630,0.026447,0.023159,0.089483,0.008678,0.0043674,0.000000
0.240990,0.028285,0.022487,0.087828,0.009055,0.0045712,0.000000
0.242567,0.030202,0.021730,0.086297,0.009339,0.0047205,0.000000
0.243777,0.032017,0.021002,0.085007,0.009683,0.0048744,0.000000
0.245230,0.033702,0.020290,0.083644,0.010185,0.0050955,0.000000
0.246693,0.035165,0.019515,0.082436,0.010897,0.0054030,0.000000
0.246858,0.036659,0.018580,0.081772,0.011753,0.0057258,0.000000
0.245658,0.038007,0.017697,0.082232,0.012493,0.0060091,0.000000
0.243885,0.039276,0.016981,0.083474,0.013355,0.0063435,0.000000
0.242003,0.040326,0.016347,0.085111,0.014320,0.0067060,0.000000
0.239900,0.041403,0.015814,0.087039,0.015354,0.0070993,0.000000
0.237874,0.042531,0.015492,0.088989,0.016412,0.0075065,0.000000
0.235622,0.043764,0.015327,0.090733,0.017557,0.0079220,0.000000
0.233746,0.044778,0.015194,0.092553,0.018832,0.0083846,0.000000
0.231691,0.045723,0.015049,0.094429,0.020169,0.0088331,0.000000
0.229727,0.046677,0.014904,0.096433,0.021500,0.0092644,0.000000
0.227869,0.047535,0.014771,0.098572,0.022892,0.0096938,0.000000
0.225634,0.048414,0.014633,0.100336,0.024409,0.0101135,0.000000
0.222134,0.048728,0.014528,0.101915,0.026022,0.0105638,0.000000
0.216356,0.049270,0.014411,0.102531,0.027600,0.0109500,0.000000
0.209759,0.049798,0.014159,0.102599,0.029137,0.0112858,0.000000
0.202583,0.050399,0.013686,0.102441,0.030794,0.0115564,0.000000
0.195489,0.050924,0.013156,0.102239,0.032441,0.0118044,0.000000
0.187713,0.051580,0.012556,0.101588,0.033959,0.0119836,0.000000
0.179266,0.052487,0.011892,0.100420,0.035279,0.0120866,0.000000
0.170541,0.053611,0.011229,0.099078,0.036412,0.0121110,0.000000
0.161765,0.054789,0.010655,0.097701,0.037331,0.0120545,0.000000
0.153708,0.055839,0.010228,0.096414,0.037963,0.0119306,0.000000
0.146277,0.056589,0.009835,0.095300,0.038564,0.0117945,0.000000
0.139150,0.056951,0.009469,0.094375,0.039121,0.0116483,0.000000
0.131703,0.057163,0.009113,0.093390,0.039810,0.0115189,0.000000
0.123994,0.057244,0.008798,0.092177,0.040615,0.0113978,0.000000
0.116167,0.057048,0.008488,0.090714,0.041412,0.0112818,0.000000
0.108532,0.056409,0.008173,0.089241,0.042127,0.0111858,0.000000
0.100863,0.055445,0.007850,0.087901,0.042718,0.0111099,0.000000
0.093300,0.054414,0.007514,0.086433,0.043191,0.0110867,0.000000
0.085693,0.053454,0.007172,0.084654,0.043625,0.0111469,0.000000
0.078053,0.052500,0.006832,0.082454,0.044010,0.0112655,0.000000
0.070557,0.051203,0.006479,0.080174,0.044251,0.0114171,0.000000
0.064083,0.050143,0.006078,0.077760,0.044389,0.0115639,0.000000
0.059326,0.048936,0.005642,0.075587,0.044461,0.0116830,0.000000
0.055177,0.047763,0.005298,0.073585,0.044481,0.0117500,0.000000
0.051645,0.046599,0.005152,0.071602,0.044379,0.0118013,0.000000
0.048562,0.045482,0.005060,0.069759,0.044312,0.0118722,0.000000
0.045595,0.044446,0.004940,0.068115,0.044193,0.0119023,0.000000
0.042459,0.043449,0.004774,0.066531,0.043929,0.0118590,0.000000
0.039502,0.042429,0.004608,0.065116,0.043624,0.0118370,0.000000
0.036673,0.041525,0.004458,0.063795,0.043285,0.0117773,0.000000
0.034069,0.040608,0.004321,0.062591,0.042955,0.0117241,0.000000
0.031682,0.039766,0.004191,0.061353,0.042607,0.0116625,0.000000
0.029731,0.038925,0.004071,0.060006,0.042293,0.0116122,0.000000
0.028300,0.037869,0.003971,0.058677,0.041936,0.0115989,0.000000
0.027121,0.036745,0.003875,0.057347,0.041491,0.0115761,0.000000
0.025815,0.035719,0.003768,0.055895,0.041082,0.0115168,0.000000
0.024410,0.034878,0.003666,0.054319,0.040719,0.0114484,0.000000
0.023380,0.034095,0.003593,0.052587,0.040420,0.0114002,0.000000
0.022492,0.033265,0.003535,0.050532,0.040142,0.0112984,0.000000
0.021479,0.032414,0.003471,0.048565,0.039749,0.0111193,0.000000
0.020554,0.031504,0.003411,0.047005,0.039312,0.0109226,0.000000
0.019964,0.030942,0.003372,0.045730,0.039092,0.0107557,0.000000
0.019715,0.030446,0.003345,0.044530,0.038920,0.0107419,0.000000
0.019317,0.030064,0.003330,0.043205,0.038606,0.0107305,0.000000
0.019107,0.029332,0.003296,0.042209,0.038278,0.0106403,0.000000
0.019024,0.028269,0.003250,0.040923,0.038068,0.0105648,0.000000
0.018205,0.027364,0.003134,0.038816,0.037772,0.0104018,0.000000
0.017741,0.026120,0.003065,0.036838,0.037314,0.0103257,0.000000
0.017922,0.024645,0.003015,0.035084,0.036593,0.0102431,0.000000
0.018823,0.023147,0.002976,0.033371,0.036017,0.0100070,0.000000
0.019339,0.021962,0.002884,0.031526,0.035485,0.0096995,0.000000
0.019759,0.020787,0.002809,0.029749,0.035047,0.0093454,0.000000
0.020165,0.019715,0.002781,0.027977,0.034569,0.0090537,0.000000
0.020898,0.018842,0.002764,0.026276,0.033964,0.0088459,0.000000
0.021178,0.018409,0.002693,0.024357,0.033250,0.0087046,0.000000
0.020587,0.018112,0.002576,0.022322,0.032492,0.0085427,0.000000
0.020047,0.017581,0.002502,0.020777,0.031743,0.0084557,0.000000
0.019471,0.016915,0.002427,0.019176,0.031052,0.0084040,0.000000
0.018725,0.016315,0.002332,0.017615,0.030376,0.0083279,0.000000
0.018119,0.015694,0.002240,0.016564,0.029737,0.0082958,0.000000
0.017498,0.015185,0.002136,0.015455,0.029182,0.0082359,0.000000
0.016815,0.014517,0.002026,0.014394,0.028722,0.0080164,0.000000
0.016132,0.013708,0.001925,0.013478,0.028030,0.0077219,0.000000
0.015670,0.012929,0.001849,0.012660,0.027307,0.0072800,0.000000
0.015150,0.012061,0.001750,0.012092,0.026627,0.0068099,0.000000
0.014478,0.011428,0.001696,0.011443,0.025977,0.0064898,0.000000
0.013623,0.011130,0.001674,0.011068,0.025262,0.0061988,0.000000
0.013391,0.010628,0.001735,0.011486,0.024524,0.0060537,0.000000
0.013145,0.010314,0.001789,0.011869,0.023972,0.0058785,0.000000
0.012766,0.010118,0.001869,0.012153,0.023936,0.0058494,0.000000
0.011555,0.009877,0.001930,0.012203,0.023792,0.0059814,0.000000
0.011036,0.009390,0.002047,0.012364,0.023644,0.0062339,0.000000
0.010234,0.009007,0.002110,0.012235,0.023541,0.0065225,0.000000
0.009468,0.008720,0.002136,0.011959,0.023473,0.0068222,0.000000
0.008124,0.008421,0.002126,0.011517,0.023500,0.0068953,0.000000
0.007012,0.007830,0.002140,0.011285,0.023543,0.0068735,0.000000
0.006642,0.007225,0.002190,0.011225,0.023699,0.0069955,0.000000
0.006511,0.006894,0.002224,0.010935,0.023822,0.0071685,0.000000
0.006365,0.006749,0.002270,0.010746,0.023897,0.0073245,0.000000
0.006079,0.006682,0.002313,0.010600,0.023849,0.0074957,0.000000
0.005673,0.006577,0.002344,0.010416,0.024069,0.0076129,0.000000
0.005470,0.006521,0.002388,0.010270,0.024441,0.0078153,0.000000
0.005280,0.006741,0.002436,0.009999,0.024809,0.0082428,0.000000
0.004923,0.006995,0.002453,0.009688,0.025271,0.0085585,0.000000
0.004465,0.007166,0.002458,0.009486,0.026119,0.0087742,0.000000
0.004156,0.007404,0.002456,0.009189,0.027704,0.0090279,0.000000
0.003804,0.007655,0.002414,0.008773,0.029404,0.0093459,0.000000
0.003544,0.008179,0.002335,0.008212,0.030747,0.0095868,0.000000
0.003381,0.008558,0.002247,0.007665,0.032059,0.0097426,0.000000
0.003161,0.008912,0.002147,0.007120,0.033381,0.0098593,0.000000
0.003184,0.009187,0.002083,0.006698,0.034514,0.0100232,0.000000
0.003034,0.009530,0.002011,0.006231,0.035598,0.0102368,0.000000
0.002541,0.009794,0.001927,0.005708,0.036206,0.0104398,0.000000
0.002426,0.009942,0.001880,0.005437,0.036467,0.0105093,0.000000
0.001942,0.009720,0.001851,0.005353,0.037184,0.0105520,0.000000
0.001700,0.009554,0.001876,0.005351,0.037936,0.0108162,0.000000
0.001541,0.009428,0.001909,0.005288,0.038679,0.0110014,0.000000
0.001526,0.009348,0.001935,0.005203,0.039394,0.0109667,0.000000
0.001453,0.009425,0.001920,0.004903,0.040089,0.0108833,0.000000
0.001453,0.009633,0.001903,0.004567,0.040703,0.0109118,0.000000
0.001453,0.009759,0.001881,0.004257,0.041829,0.0110031,0.000000
0.001453,0.009948,0.001848,0.003870,0.042187,0.0110822,0.000000
0.001453,0.009923,0.001795,0.003634,0.042431,0.0110032,0.000000
0.001453,0.009930,0.001738,0.003402,0.042734,0.0109348,0.000000
0.001453,0.009845,0.001709,0.003267,0.042881,0.0110623,0.000000
0.001300,0.009649,0.001703,0.003259,0.042618,0.0112085,0.000000
0.001286,0.009438,0.001720,0.003399,0.041749,0.0113161,0.000000
0.001286,0.009261,0.001761,0.003620,0.040347,0.0112845,0.000000
0.001207,0.008774,0.001835,0.004006,0.039450,0.0113254,0.000000
0.001092,0.008454,0.001926,0.004366,0.038812,0.0114848,0.000000
0.000965,0.008092,0.002037,0.004742,0.038116,0.0116208,0.000000
0.000562,0.007811,0.002103,0.005009,0.037543,0.0117360,0.000000
0.000434,0.007485,0.002185,0.005448,0.036760,0.0118196,0.000000
0.000286,0.007108,0.002259,0.005887,0.036754,0.0117662,0.000000
0.000000,0.006796,0.002325,0.006167,0.037005,0.0118176,0.000000
0.000000,0.006841,0.002345,0.006305,0.037172,0.0118391,0.000000
0.000000,0.006902,0.002328,0.006385,0.037051,0.0117695,0.000000
0.000000,0.007010,0.002315,0.006555,0.037074,0.0117953,0.000000
0.000000,0.006983,0.002322,0.006850,0.037356,0.0118294,0.000000
0.000000,0.006824,0.002372,0.007245,0.037870,0.0117811,0.000000
0.000000,0.006683,0.002427,0.007676,0.038320,0.0115961,0.000000
0.000000,0.006534,0.002473,0.008125,0.038448,0.0113319,0.000000
0.000000,0.006382,0.002550,0.008556,0.038783,0.0111009,0.000000
0.000000,0.006280,0.002671,0.008931,0.039119,0.0109137,0.000000
0.000000,0.006037,0.002794,0.009393,0.039463,0.0106232,0.000000
0.000000,0.005903,0.002896,0.009689,0.039763,0.0102657,0.000000
0.000000,0.005936,0.002954,0.009808,0.039943,0.0100372,0.000000
0.000000,0.006012,0.002999,0.009828,0.040406,0.0100200,0.000000
0.000000,0.006181,0.003042,0.009754,0.041411,0.0100713,0.000000
0.000000,0.006299,0.003100,0.009737,0.042206,0.0100970,0.000000
0.000000,0.006299,0.003158,0.009794,0.042768,0.0100441,0.000000
0.000000,0.006406,0.003208,0.009793,0.043683,0.0100363,0.000000
0.000000,0.006637,0.003270,0.009750,0.045382,0.0099224,0.000000
0.000000,0.006927,0.003336,0.009629,0.047211,0.0097655,0.000000
0.000000,0.007383,0.003432,0.009589,0.048330,0.0096396,0.000000
0.000000,0.007934,0.003594,0.009595,0.049157,0.0094670,0.000000
0.000000,0.008892,0.003949,0.009511,0.049347,0.0092657,0.000000
0.000000,0.010263,0.004883,0.009760,0.049624,0.0091660,0.000000
0.000000,0.011982,0.006071,0.009966,0.049270,0.0089494,0.000000
0.001524,0.013614,0.007599,0.011021,0.047423,0.0087870,0.000000
0.006011,0.014712,0.009144,0.012917,0.045121,0.0085131,0.000000
0.010592,0.015697,0.010715,0.014744,0.042819,0.0081719,0.000000
0.015694,0.016691,0.012321,0.016851,0.040438,0.0078094,0.000000
0.020950,0.017909,0.013944,0.019059,0.038309,0.0074171,0.000000
0.026185,0.019137,0.015565,0.021400,0.036145,0.0070765,0.000000
0.031737,0.020360,0.017174,0.023810,0.033855,0.0067503,0.000000
0.037426,0.021582,0.018778,0.026207,0.031685,0.0064356,0.000000
0.043176,0.022764,0.020395,0.028575,0.029693,0.0060563,0.000000
0.049029,0.023824,0.022027,0.031037,0.027428,0.0055120,0.000000
0.055174,0.024606,0.023577,0.033604,0.025025,0.0049372,0.000000
0.061364,0.025437,0.025164,0.035864,0.022636,0.0043776,0.000000
0.067720,0.026360,0.026925,0.037799,0.020364,0.0038235,0.000000
0.074471,0.027105,0.028924,0.039702,0.017858,0.0032868,0.000000
0.081528,0.027537,0.030998,0.041728,0.014557,0.0027696,0.000000
0.089132,0.027851,0.033133,0.043726,0.011415,0.0022783,0.000000
0.097299,0.027926,0.035233,0.045858,0.008711,0.0018816,0.000000
0.106268,0.027930,0.037315,0.048489,0.006262,0.0015648,0.000000
0.115977,0.027551,0.038967,0.051548,0.004077,0.0012619,0.000000
0.126023,0.026579,0.039793,0.054048,0.002047,0.0008529,0.000000
0.136639,0.025047,0.040237,0.056570,0.000532,0.0005353,0.000000
0.145972,0.023759,0.040205,0.058247,0.000190,0.0002567,0.000000
0.152057,0.023133,0.040081,0.059290,0.000062,0.0001258,0.000000
0.158173,0.022921,0.039895,0.060706,0.000053,0.0000643,0.000000
0.163824,0.022969,0.039675,0.061553,0.000021,0.0000183,0.000000
0.169817,0.022786,0.039268,0.062414,0.000005,0.0000000,0.000000
0.175399,0.022665,0.038647,0.063015,0.000000,0.0000000,0.000000
0.180177,0.023017,0.038019,0.063326,0.000000,0.0000000,0.000000
0.184912,0.023363,0.037431,0.063742,0.000000,0.0000534,0.000000
0.189276,0.023768,0.036841,0.064020,0.000004,0.0000933,-0.000000
0.193382,0.024191,0.036275,0.064116,0.000102,0.0001685,-0.000000
0.196486,0.025192,0.035832,0.063970,0.000304,0.0002921,-0.000001
0.198967,0.026613,0.035326,0.063959,0.000691,0.0005282,-0.000001
0.200522,0.028638,0.034553,0.064048,0.001076,0.0007824,-0.000001
0.201932,0.031352,0.033542,0.063712,0.001561,0.0010981,-0.000001
0.202693,0.034257,0.032415,0.063189,0.002019,0.0014742,-0.000001
0.202859,0.037362,0.031189,0.062529,0.002455,0.0018946,-0.000001
0.202474,0.040628,0.029978,0.061878,0.002888,0.0023737,-0.000001
0.201071,0.044384,0.028719,0.060756,0.003286,0.0028538,-0.000001
0.198808,0.048087,0.027692,0.059409,0.003684,0.0033292,-0.000001
0.196272,0.051900,0.026912,0.058653,0.004136,0.0038177,-0.000001
0.192978,0.056064,0.026261,0.057964,0.004630,0.0043020,-0.000001
0.189180,0.060260,0.025693,0.057375,0.005209,0.0047747,-0.000001
0.185711,0.064291,0.024948,0.056947,0.005862,0.0052661,-0.000001
0.182087,0.068033,0.023925,0.056457,0.006687,0.0058117,-0.000001
0.177939,0.072055,0.022779,0.055875,0.007634,0.0063041,-0.000001
0.172614,0.076534,0.021632,0.055065,0.008570,0.0067374,-0.000001
0.166893,0.081345,0.020618,0.054192,0.009468,0.0071036,-0.000001
0.161075,0.085816,0.019469,0.053800,0.010226,0.0074190,-0.000001
0.154759,0.090103,0.018268,0.053130,0.010999,0.0076786,-0.000001
0.148443,0.094414,0.017080,0.052660,0.011772,0.0079357,-0.000001
0.141964,0.098868,0.015857,0.052282,0.012479,0.0081597,-0.000001
0.135828,0.102741,0.014583,0.052095,0.013112,0.0083433,-0.000001
0.130139,0.106248,0.013323,0.051944,0.013655,0.0083762,-0.000000
0.125075,0.108895,0.012171,0.051523,0.014422,0.0083960,-0.000000
0.119395,0.110721,0.011006,0.051321,0.015147,0.0083297,-0.000000
0.113540,0.112521,0.009886,0.050995,0.015909,0.0081984,-0.000000
0.107585,0.114234,0.008803,0.050643,0.016730,0.0079919,-0.000000
0.101415,0.115723,0.007721,0.050082,0.017647,0.0076895,-0.000000
0.095353,0.116553,0.006642,0.049503,0.018702,0.0073904,-0.000000
0.089275,0.117340,0.005563,0.048796,0.019862,0.0070907,-0.000000
0.083123,0.118258,0.004482,0.047701,0.021131,0.0067777,-0.000000
0.077110,0.119049,0.003388,0.046461,0.022497,0.0064583,-0.000000
0.071347,0.119844,0.002335,0.045051,0.023895,0.0061262,-0.000000
0.065505,0.120207,0.001522,0.043533,0.025282,0.0057650,-0.000000
0.059706,0.120109,0.001025,0.041938,0.026498,0.0053367,-0.000000
0.054373,0.119229,0.000666,0.040819,0.027625,0.0049231,-0.000000
0.049801,0.117875,0.000476,0.039789,0.028841,0.0045232,-0.000000
0.046066,0.116070,0.000362,0.038815,0.030117,0.0041644,0.002761
0.042986,0.113852,0.000405,0.037543,0.031589,0.0038542,0.002761
0.040239,0.111706,0.000476,0.036355,0.033023,0.0035495,0.002761
0.037794,0.109493,0.000542,0.034861,0.034398,0.0032645,0.002761
0.035695,0.106999,0.000627,0.033364,0.035712,0.0029983,0.002761
0.033919,0.104613,0.000726,0.031783,0.037059,0.0027356,0.002761
0.032212,0.102044,0.000839,0.030348,0.038328,0.0025353,0.002761
0.030673,0.099611,0.000956,0.029411,0.039379,0.0023629,0.002761
0.029428,0.097101,0.001085,0.028890,0.040191,0.0022432,-0.000005
0.028769,0.094263,0.001232,0.028754,0.040947,0.0021730,-0.000005
0.028090,0.091137,0.001383,0.028784,0.041607,0.0021492,-0.000005
0.027339,0.088121,0.001538,0.028055,0.042292,0.0021616,-0.000005
0.026651,0.085217,0.001720,0.027004,0.043010,0.0022316,0.002756
0.025936,0.082216,0.001905,0.025738,0.043752,0.0023810,0.002756
0.025144,0.078838,0.002081,0.024541,0.044404,0.0026542,0.002756
0.024427,0.075368,0.002264,0.023318,0.044944,0.0030080,0.002756
0.023604,0.071670,0.002448,0.022093,0.045402,0.0034100,0.002756
0.022801,0.068438,0.002635,0.020716,0.045700,0.0038317,0.002756
0.021977,0.065555,0.002811,0.019222,0.045929,0.0042841,0.002756
0.021185,0.062892,0.002985,0.017645,0.046154,0.0048087,0.002756
0.020305,0.060261,0.003146,0.016126,0.046314,0.0053936,0.002756
0.019464,0.057640,0.003303,0.014743,0.046392,0.0060645,-0.000005
0.018508,0.055365,0.003448,0.013333,0.046384,0.0067593,-0.000005
0.017610,0.053135,0.003587,0.012105,0.046287,0.0074852,-0.000005
0.016643,0.050816,0.003714,0.011175,0.046037,0.0081936,-0.000005
0.015651,0.048523,0.003831,0.010361,0.045706,0.0088933,-0.000005
0.014637,0.045887,0.003925,0.009762,0.045143,0.0096727,-0.000005
0.013713,0.043217,0.004005,0.009082,0.044471,0.0105188,-0.000005
0.012756,0.040602,0.004052,0.008347,0.043784,0.0113725,-0.000005
0.011849,0.038168,0.004095,0.007524,0.043324,0.0122181,0.002761
0.010871,0.035915,0.004121,0.006635,0.042937,0.0130315,0.002761
0.009995,0.033874,0.004134,0.005775,0.042573,0.0138348,0.002761
0.009474,0.031949,0.004145,0.005558,0.042129,0.0146548,0.002761
0.009076,0.030026,0.004126,0.005637,0.041621,0.0154194,0.000000
0.008743,0.028264,0.004096,0.005889,0.041076,0.0160786,0.000000
0.008613,0.026811,0.004060,0.006119,0.040380,0.0166765,0.000000
0.008275,0.025474,0.003995,0.006327,0.039939,0.0171752,0.000000
0.008064,0.024234,0.003942,0.006573,0.039509,0.0177092,0.000000
0.007800,0.023023,0.003883,0.006777,0.038925,0.0182769,0.000000
0.007556,0.021830,0.003831,0.006994,0.038220,0.0187677,0.000000
0.007426,0.020575,0.003781,0.007204,0.037403,0.0192498,0.000000
0.007378,0.019415,0.003738,0.007437,0.036470,0.0196896,0.000000
0.007359,0.018357,0.003697,0.007765,0.035622,0.0199706,0.000000
0.007359,0.017204,0.003664,0.008194,0.034816,0.0202068,0.000000
0.007398,0.016089,0.003633,0.008602,0.034186,0.0202559,0.000000
0.007520,0.015059,0.003618,0.009006,0.033743,0.0202607,0.000000
0.007758,0.014189,0.003608,0.009356,0.033401,0.0202715,0.000000
0.008100,0.013735,0.003612,0.009544,0.033115,0.0202815,0.000000
0.008354,0.013360,0.003627,0.009773,0.032828,0.0202716,0.000000
0.008558,0.013054,0.003652,0.009957,0.032479,0.0202785,0.000000
0.008785,0.012856,0.003681,0.010116,0.031800,0.0203243,0.000000
0.009018,0.012750,0.003701,0.010244,0.031114,0.0203053,0.000000
0.009319,0.012667,0.003729,0.010457,0.030539,0.0201404,0.000000
0.009554,0.012628,0.003744,0.010752,0.029990,0.0198508,0.000000
0.009786,0.012660,0.003758,0.011014,0.029353,0.0195293,0.000000
0.010265,0.012426,0.003796,0.011440,0.028644,0.0192431,0.000000
0.010598,0.012097,0.003851,0.011853,0.027992,0.0189383,0.000000
0.011112,0.011738,0.003924,0.012200,0.026928,0.0188339,0.000000
0.011553,0.011348,0.003977,0.012532,0.025760,0.0187765,0.000000
0.012032,0.010886,0.004026,0.012930,0.024819,0.0187174,0.000000
0.012360,0.010384,0.004054,0.013273,0.024129,0.0186976,0.000000
0.012501,0.009981,0.004075,0.013555,0.023540,0.0186654,0.000000
0.012558,0.009538,0.004077,0.013778,0.023078,0.0186440,0.000000
0.012541,0.008979,0.004073,0.013954,0.022628,0.0186402,0.000000
0.012545,0.008487,0.004072,0.014071,0.022137,0.0186354,0.000000
0.012491,0.008055,0.004068,0.014091,0.021489,0.0188767,0.000000
0.012419,0.007572,0.004060,0.014132,0.020829,0.0191978,0.000000
0.012183,0.007004,0.004050,0.014206,0.020139,0.0195032,0.000000
0.011861,0.006437,0.004043,0.014316,0.019520,0.0198789,0.000000
0.011325,0.006013,0.004008,0.014269,0.018917,0.0202308,0.000000
0.010902,0.005575,0.003980,0.014265,0.018384,0.0205025,0.000000
0.010738,0.005112,0.003973,0.014462,0.018266,0.0206027,0.000000
0.010586,0.004797,0.003975,0.014575,0.018151,0.0206941,0.000000
0.010438,0.004529,0.003973,0.014562,0.017963,0.0209045,0.000000
0.010267,0.004240,0.003970,0.014525,0.017665,0.0211936,0.000000
0.010017,0.003889,0.003961,0.014563,0.017385,0.0214481,0.000000
0.009620,0.003701,0.003955,0.014559,0.017094,0.0216339,0.000000
0.009281,0.003565,0.003954,0.014591,0.016844,0.0217467,0.000000
0.009004,0.003469,0.003959,0.014729,0.016700,0.0217051,0.000000
0.008802,0.003401,0.003974,0.014918,0.016701,0.0214755,0.000000
0.008659,0.003428,0.003991,0.014987,0.016783,0.0211834,0.000000
0.008718,0.003500,0.004008,0.015032,0.016820,0.0208983,0.000000
0.008821,0.003540,0.004025,0.015142,0.016919,0.0204464,0.000000
0.008877,0.003536,0.004055,0.015373,0.017016,0.0199641,0.000000
0.008913,0.003560,0.004081,0.015530,0.017056,0.0195719,0.000000
0.008869,0.003609,0.004094,0.015592,0.017123,0.0191815,0.000000
0.008835,0.003556,0.004106,0.015722,0.017304,0.0186416,0.000000
0.008822,0.003529,0.004118,0.015798,0.017448,0.0181332,0.000000
0.008853,0.003538,0.004126,0.015876,0.017571,0.0176746,0.000000
0.008934,0.003573,0.004123,0.015959,0.017739,0.0170577,0.000000
0.009288,0.003531,0.004133,0.016185,0.017980,0.0164030,0.000000
0.009539,0.003508,0.004133,0.016376,0.018219,0.0157643,0.000000
0.009477,0.003474,0.004118,0.016421,0.018372,0.0151788,0.000000
0.009400,0.003323,0.004093,0.016506,0.018487,0.0146385,0.000000
0.009303,0.003147,0.004067,0.016584,0.018571,0.0141180,0.000000
0.009154,0.002978,0.004057,0.016667,0.018698,0.0136534,0.000000
0.008991,0.002838,0.004046,0.016713,0.018803,0.0133158,0.000000
0.008822,0.002740,0.004030,0.016664,0.018897,0.0130700,-0.000000
0.008617,0.002696,0.004006,0.016599,0.018999,0.0128172,-0.000000
0.008385,0.002681,0.003979,0.016551,0.019136,0.0125267,-0.000001
0.008221,0.002638,0.003954,0.016606,0.019195,0.0123235,-0.000001
0.008065,0.002581,0.003927,0.016739,0.019244,0.0120797,-0.000001
0.007850,0.002503,0.003912,0.016968,0.019307,0.0117997,-0.000001
0.007626,0.002424,0.003905,0.017199,0.019301,0.0116458,-0.000001
0.007455,0.002364,0.003900,0.017326,0.019254,0.0115277,-0.000001
0.007308,0.002333,0.003896,0.017421,0.019188,0.0114389,-0.000001
0.007243,0.002353,0.004043,0.017486,0.019043,0.0113804,-0.000001
0.007210,0.002486,0.004210,0.017615,0.018842,0.0114063,-0.000001
0.007173,0.002691,0.004421,0.017761,0.018699,0.0113626,-0.000001
0.007127,0.002988,0.004667,0.017966,0.018599,0.0112196,-0.000001
0.007212,0.003389,0.004931,0.018157,0.018540,0.0110100,-0.000001
0.007274,0.003977,0.005350,0.018120,0.018426,0.0107354,-0.000001
0.007503,0.004529,0.005788,0.018154,0.018318,0.0104798,-0.000001
0.007731,0.005053,0.006214,0.018176,0.018111,0.0102841,-0.000001
0.007771,0.005652,0.006720,0.017977,0.017808,0.0101275,-0.000001
0.007714,0.006284,0.007396,0.017696,0.017466,0.0099418,-0.000001
0.007694,0.006927,0.008061,0.017431,0.017097,0.0097187,-0.000001
0.007511,0.007591,0.008851,0.017231,0.016645,0.0093851,-0.000001
0.007278,0.008428,0.009827,0.016825,0.016099,0.0089824,-0.000001
0.007204,0.009218,0.010801,0.016518,0.015555,0.0085784,-0.000001
0.007195,0.009874,0.011660,0.016833,0.015018,0.0082094,-0.000001
0.006856,0.010540,0.012529,0.017049,0.014439,0.0077680,-0.000000
0.006482,0.011139,0.013386,0.017084,0.013704,0.0073386,-0.000000
0.006105,0.011829,0.014299,0.016767,0.012906,0.0069112,-0.000000
0.005822,0.012430,0.015172,0.016877,0.012034,0.0065781,-0.000000
0.005478,0.012960,0.015873,0.017172,0.011140,0.0063092,-0.000000
0.005994,0.013302,0.016571,0.017719,0.010255,0.0061528,-0.000000
0.005832,0.013693,0.017061,0.018364,0.009408,0.0058585,-0.000000
0.006023,0.013962,0.017492,0.019276,0.008666,0.0055433,-0.000000
0.005949,0.014374,0.017756,0.020036,0.007868,0.0051605,-0.000000
0.006701,0.014550,0.018041,0.021144,0.007147,0.0049159,-0.000000
0.007280,0.014772,0.018106,0.022308,0.006429,0.0047177,-0.000000
0.007979,0.014642,0.017877,0.024096,0.005864,0.0045987,-0.000000
0.008147,0.014716,0.017570,0.025596,0.005204,0.0044532,-0.000000
0.008197,0.015056,0.017220,0.026479,0.004545,0.0042624,-0.000000
0.008458,0.015288,0.016763,0.027495,0.003945,0.0040477,-0.000000
0.009514,0.015389,0.016152,0.028698,0.003436,0.0039451,0.002761
0.010803,0.015555,0.015531,0.029847,0.003008,0.0038781,0.002761
0.012289,0.015738,0.014804,0.031079,0.002750,0.0038825,0.002761
0.013739,0.015739,0.013794,0.032768,0.002604,0.0039249,0.002761
0.014857,0.015688,0.012696,0.034557,0.002422,0.0040004,0.002761
0.015069,0.015763,0.011654,0.035724,0.002130,0.0039738,0.002761
0.016449,0.015614,0.010681,0.037217,0.002017,0.0041428,0.002761
0.018018,0.015424,0.009734,0.038702,0.002048,0.0043784,0.002761
0.019441,0.015128,0.008723,0.040446,0.002124,0.0046323,-0.000005
0.020795,0.014891,0.007757,0.041796,0.002318,0.0047941,-0.000005
0.021699,0.014802,0.006964,0.042954,0.002580,0.0048101,-0.000005
0.021794,0.015005,0.006206,0.043890,0.002925,0.0046785,-0.000005
0.022860,0.015138,0.005536,0.044724,0.003383,0.0047181,0.002756
0.023311,0.015446,0.004885,0.045096,0.003735,0.0047249,0.002756
0.023836,0.015675,0.004348,0.045554,0.004145,0.0047971,0.002756
0.023915,0.016023,0.003767,0.045650,0.004542,0.0048201,0.002756
0.023296,0.016355,0.003250,0.045494,0.004837,0.0047791,0.002756
0.022600,0.016766,0.002878,0.045044,0.005031,0.0047327,0.002756
0.022804,0.016897,0.002569,0.045015,0.005406,0.0047636,0.002756
0.023081,0.016987,0.002309,0.045422,0.005818,0.0048159,0.002756
0.023653,0.017176,0.002095,0.045941,0.006358,0.0049011,0.002756
0.023250,0.017530,0.001853,0.046226,0.006912,0.0048613,-0.000005
0.022910,0.017834,0.001626,0.046657,0.007479,0.0048362,-0.000005
0.022470,0.018385,0.001380,0.046740,0.007957,0.0047669,-0.000005
0.022163,0.019026,0.001235,0.046721,0.008425,0.0047095,-0.000005
0.022140,0.019691,0.001188,0.046551,0.008946,0.0046592,-0.000005
0.022669,0.020204,0.001199,0.046522,0.009504,0.0047518,-0.000005
0.022121,0.021241,0.001142,0.046275,0.009846,0.0048785,-0.000005
0.021186,0.022545,0.001072,0.046376,0.010130,0.0050813,-0.000005
0.020277,0.023912,0.001013,0.046564,0.010406,0.0053351,0.002761
0.019201,0.025291,0.000938,0.046704,0.010630,0.0056085,0.002761
0.018753,0.027010,0.000872,0.046559,0.010840,0.0059809,0.002761
0.018151,0.028747,0.000777,0.046477,0.010973,0.0063552,0.002761
0.017268,0.030508,0.000659,0.046496,0.011030,0.0067077,0.000000
0.016676,0.032247,0.000557,0.046565,0.011125,0.0070807,0.000000
0.016373,0.033953,0.000454,0.046750,0.011250,0.0074309,0.000000
0.015754,0.035853,0.000338,0.047001,0.011314,0.0077224,0.000000
0.015842,0.037673,0.000358,0.047769,0.011406,0.0080913,0.000000
0.015878,0.039602,0.000378,0.048598,0.011570,0.0084331,0.000000
0.015433,0.041862,0.000400,0.049475,0.011658,0.0087059,0.000000
0.014962,0.044168,0.000412,0.050707,0.011735,0.0090118,0.000000
0.014122,0.046630,0.000412,0.051733,0.011726,0.0093473,0.000000
0.013579,0.049114,0.000423,0.052827,0.011665,0.0097363,0.000000
0.012728,0.051562,0.000423,0.053794,0.011540,0.0100987,0.000000
0.012000,0.053776,0.000429,0.054915,0.011449,0.0104802,0.000000
0.011148,0.055908,0.000439,0.056053,0.011360,0.0108551,0.000000
0.010071,0.058072,0.000449,0.057238,0.011241,0.0112395,0.000000
0.009190,0.060250,0.000468,0.058349,0.011211,0.0115764,0.000000
0.008478,0.062200,0.000475,0.059194,0.011285,0.0117618,0.000000
0.007945,0.064021,0.000485,0.059920,0.011327,0.0118724,0.000000
0.007431,0.065899,0.000488,0.061030,0.011320,0.0119673,0.000000
0.007064,0.068055,0.000501,0.062098,0.011308,0.0120843,0.000000
0.006587,0.069855,0.000508,0.063489,0.011343,0.0122016,0.000000
0.006207,0.071617,0.000519,0.064829,0.011410,0.0123122,0.000000
0.005813,0.073442,0.000535,0.066159,0.011518,0.0123360,0.000000
0.005403,0.075259,0.000562,0.067347,0.011752,0.0121885,0.000000
0.004963,0.076724,0.000609,0.068311,0.012134,0.0119497,0.000000
0.004473,0.077994,0.000660,0.069151,0.012554,0.0116841,0.000000
0.003997,0.079230,0.000716,0.069838,0.012996,0.0114002,0.000000
0.003507,0.080412,0.000768,0.070452,0.013343,0.0111249,0.000000
0.003033,0.081309,0.000820,0.070805,0.013698,0.0108420,0.000000
0.002652,0.082173,0.000880,0.070931,0.014070,0.0105331,0.000000
0.002287,0.082926,0.000935,0.071720,0.014454,0.0101505,0.000000
0.001921,0.083539,0.001002,0.072634,0.014950,0.0097749,0.000000
0.001586,0.083956,0.001100,0.073729,0.015503,0.0094300,0.000000
0.001214,0.084290,0.001201,0.074408,0.016164,0.0091370,0.000000
0.000923,0.084710,0.001293,0.074725,0.016785,0.0089092,0.000000
0.000754,0.085346,0.001372,0.074688,0.017355,0.0086969,0.000000
0.000646,0.086236,0.001447,0.074027,0.017913,0.0084838,0.000000
0.000525,0.087155,0.001522,0.073328,0.018510,0.0081893,0.000000
0.000424,0.087942,0.001594,0.072607,0.019211,0.0078494,0.000000
0.000424,0.088677,0.001673,0.071401,0.019959,0.0075022,0.000000
0.000424,0.089009,0.001752,0.070283,0.020749,0.0071460,0.000000
0.000424,0.089366,0.001829,0.069019,0.021492,0.0067859,0.000000
0.000424,0.089770,0.001903,0.067595,0.022249,0.0064202,0.000000
0.000424,0.090036,0.001975,0.066170,0.022971,0.0061223,0.000000
0.000405,0.090229,0.002038,0.064988,0.023549,0.0060058,0.000000
0.000310,0.090547,0.002094,0.063894,0.023944,0.0060220,0.000000
0.000333,0.090865,0.002162,0.062233,0.024386,0.0060871,0.000000
0.000406,0.090753,0.002232,0.060407,0.024882,0.0061770,0.000000
0.000557,0.090280,0.002308,0.058472,0.025417,0.0062732,0.000000
0.000738,0.089712,0.002389,0.056605,0.025891,0.0063898,0.000000
0.001024,0.088997,0.002483,0.054602,0.026399,0.0065381,0.000000
0.001393,0.088128,0.002586,0.052120,0.026870,0.0066988,0.000000
0.001813,0.087115,0.002685,0.049734,0.027215,0.0068630,0.000000
0.002267,0.086195,0.002764,0.047194,0.027496,0.0069963,0.000000
0.002732,0.085257,0.002843,0.044976,0.027667,0.0070818,0.000000
0.003202,0.084184,0.002926,0.042816,0.027894,0.0071087,0.000000
0.003674,0.082779,0.003013,0.040900,0.028152,0.0071123,0.000000
0.004143,0.080901,0.003104,0.039588,0.028388,0.0071306,0.000000
0.004630,0.078737,0.003203,0.037894,0.028600,0.0072242,0.000000
0.005129,0.076533,0.003312,0.035919,0.028717,0.0073658,0.000000
0.005638,0.074235,0.003426,0.033837,0.028844,0.0075306,0.000000
0.006132,0.072099,0.003547,0.031600,0.028955,0.0077314,0.000000
0.006619,0.069831,0.003668,0.029482,0.028899,0.0080232,0.000000
0.007116,0.067158,0.003797,0.027586,0.028868,0.0083168,0.000000
0.007604,0.064075,0.003920,0.025877,0.028845,0.0086459,0.000000
0.008089,0.060607,0.004043,0.024310,0.028835,0.0089790,-0.000000
0.008589,0.057079,0.004165,0.022884,0.028692,0.0094912,-0.000000
0.008967,0.053318,0.004286,0.021899,0.028614,0.0103118,-0.000001
0.009413,0.049852,0.004409,0.020881,0.028428,0.0113197,-0.000001
0.009670,0.046756,0.004505,0.019783,0.028541,0.0124983,-0.000001
0.009869,0.043740,0.004581,0.018644,0.028968,0.0136680,-0.000001
0.010042,0.040764,0.004621,0.017680,0.029479,0.0145813,-0.000001
0.010126,0.037812,0.004668,0.016666,0.029945,0.0155313,-0.000001
0.010218,0.034884,0.004711,0.015651,0.030839,0.0163972,-0.000001
0.010347,0.032034,0.004738,0.014629,0.031860,0.0170343,-0.000001
0.010396,0.029225,0.004745,0.013740,0.033156,0.0174381,-0.000001
0.010446,0.026448,0.004750,0.013010,0.034899,0.0177202,-0.000001
0.010405,0.023915,0.004732,0.012138,0.036462,0.0181724,-0.000001
0.010115,0.021738,0.004678,0.010976,0.037887,0.0188320,-0.000001
0.009734,0.019706,0.004580,0.010330,0.039357,0.0192914,-0.000001
0.009601,0.017707,0.004514,0.010126,0.040468,0.0197785,-0.000001
0.009456,0.015876,0.004438,0.010027,0.041522,0.0202576,-0.000001
0.009319,0.014015,0.004343,0.009981,0.042081,0.0206871,-0.000001
0.009301,0.012115,0.004250,0.010029,0.042109,0.0210541,-0.000001
0.009162,0.010460,0.004138,0.009949,0.042376,0.0213876,-0.000001
0.009206,0.009135,0.004049,0.009910,0.042632,0.0214567,-0.000001
0.009243,0.008220,0.003979,0.009741,0.042813,0.0215558,-0.000001
0.009243,0.007425,0.003892,0.009542,0.043085,0.0214015,-0.000001
0.009407,0.006770,0.003818,0.009545,0.043035,0.0210786,-0.000001
0.009403,0.006220,0.003746,0.009584,0.043205,0.0206109,-0.000000
0.009615,0.005703,0.003696,0.009702,0.043009,0.0199920,-0.000000
0.009785,0.005300,0.003656,0.009849,0.042543,0.0192873,-0.000000
0.009660,0.005018,0.003611,0.009773,0.042111,0.0190096,-0.000000
0.009311,0.004950,0.003526,0.009574,0.041888,0.0187913,-0.000000
0.008799,0.005159,0.003423,0.009210,0.041262,0.0184988,-0.000000
0.008216,0.005500,0.003328,0.008753,0.040601,0.0184965,-0.000000
0.007703,0.005932,0.003240,0.008178,0.039753,0.0189773,-0.000000
0.007182,0.006378,0.003154,0.007582,0.038575,0.0197110,-0.000000
0.006751,0.006631,0.003117,0.007214,0.037395,0.0201673,-0.000000
0.006628,0.006722,0.003114,0.007226,0.036246,0.0201111,-0.000000
0.006682,0.006783,0.003155,0.007256,0.034810,0.0205661,-0.000000
0.006399,0.006945,0.003146,0.006982,0.033862,0.0210377,-0.000000
0.006163,0.006906,0.003131,0.006792,0.032865,0.0214439,-0.000000
0.006143,0.006727,0.003143,0.006815,0.032061,0.0217204,-0.000000
0.006164,0.006640,0.003169,0.006855,0.031988,0.0218857,0.002761
0.006116,0.006608,0.003172,0.006737,0.032021,0.0223043,0.002761
0.005583,0.006688,0.003126,0.006308,0.032058,0.0229277,0.002761
0.005174,0.006667,0.003076,0.005947,0.032269,0.0234281,0.002761
0.004839,0.006698,0.003057,0.005605,0.032559,0.0239491,0.002761
0.004347,0.006835,0.003016,0.005230,0.033408,0.0244047,0.002761
0.003881,0.006969,0.002968,0.004858,0.034543,0.0247315,0.002761
0.003226,0.007124,0.002916,0.004523,0.035532,0.0249758,0.002761
0.002657,0.007318,0.002869,0.004226,0.036300,0.0252004,-0.000005
0.002289,0.007431,0.002852,0.004002,0.036931,0.0253205,-0.000005
0.002186,0.007425,0.002847,0.003858,0.037437,0.0252611,-0.000005
0.002186,0.007238,0.002855,0.003746,0.038563,0.0253924,-0.000005
0.002186,0.006988,0.002863,0.003732,0.039254,0.0254687,0.002756
0.002186,0.006675,0.002875,0.003798,0.039419,0.0253696,0.002756
0.002186,0.006257,0.002870,0.003939,0.039480,0.0251029,0.002756
0.002186,0.005867,0.002845,0.004035,0.039621,0.0249898,0.002756
0.002131,0.005493,0.002820,0.004058,0.040084,0.0250908,0.002756
0.001971,0.005193,0.002810,0.004084,0.040927,0.0249456,0.002756
0.001887,0.004880,0.002814,0.004318,0.040705,0.0247657,0.002756
0.001759,0.004634,0.002800,0.004402,0.040575,0.0244633,0.002756
0.001422,0.004557,0.002780,0.004278,0.040718,0.0243566,0.002756
0.000931,0.004471,0.002732,0.004104,0.040789,0.0243791,-0.000005
0.000623,0.004354,0.002730,0.004189,0.040408,0.0241115,-0.000005
0.000623,0.004243,0.002741,0.004379,0.039697,0.0240050,-0.000005
0.000511,0.004219,0.002745,0.004479,0.038906,0.0239134,-0.000005
0.000344,0.004209,0.002753,0.004541,0.038191,0.0237909,-0.000005
0.000173,0.004192,0.002794,0.004714,0.037142,0.0235412,-0.000005
0.000044,0.004205,0.002837,0.004886,0.035686,0.0233622,-0.000005
0.000044,0.004223,0.002880,0.004927,0.034394,0.0233885,-0.000005
0.000000,0.004121,0.002929,0.004952,0.033835,0.0233855,0.002761
0.000000,0.003973,0.002997,0.005065,0.033315,0.0230996,0.002761
0.000000,0.003786,0.003080,0.005220,0.032877,0.0230774,0.002761
0.000000,0.003694,0.003148,0.005260,0.032099,0.0232271,0.002761
0.000000,0.003521,0.003203,0.005284,0.032054,0.0234245,0.000000
0.000000,0.003348,0.003271,0.005337,0.032460,0.0234333,0.000000
0.000000,0.003273,0.003345,0.005301,0.033423,0.0234558,0.000000
0.000000,0.003311,0.003405,0.005183,0.034303,0.0234822,0.000000
0.000000,0.003386,0.003479,0.005022,0.034813,0.0235706,0.000000
0.000000,0.003500,0.003514,0.004945,0.035204,0.0235270,0.000000
0.000000,0.003699,0.003548,0.004832,0.035880,0.0235712,0.000000
0.000000,0.003926,0.003605,0.004906,0.036325,0.0237657,0.000000
0.000000,0.004216,0.003646,0.004952,0.036785,0.0240614,0.000000
0.000000,0.004566,0.003694,0.004951,0.037449,0.0244724,0.000000
0.000000,0.004693,0.003717,0.005939,0.038399,0.0251349,0.000000
0.000000,0.004838,0.003742,0.006909,0.039976,0.0256366,0.000000
0.000000,0.005001,0.003765,0.007812,0.041501,0.0261997,0.000000
0.000000,0.005254,0.003776,0.008803,0.043158,0.0265454,0.000000
0.000000,0.005508,0.003750,0.009605,0.045346,0.0267723,0.000000
0.000000,0.005623,0.003722,0.010557,0.047555,0.0267379,0.000000
0.000000,0.005831,0.003716,0.011038,0.048479,0.0262795,0.000000
0.000022,0.006136,0.003711,0.011146,0.048602,0.0261357,0.000000
0.000022,0.006501,0.003938,0.011220,0.048393,0.0261896,0.000000
0.000117,0.006706,0.004195,0.011453,0.048030,0.0259884,0.000000
0.000171,0.006960,0.004456,0.011645,0.047269,0.0256250,0.000000
0.000178,0.007411,0.004728,0.011720,0.045456,0.0253907,0.000000
0.000178,0.007804,0.004984,0.011801,0.043636,0.0252834,0.000000
0.000178,0.008321,0.005253,0.011901,0.041131,0.0253566,0.000000
0.000196,0.008678,0.005337,0.012649,0.038928,0.0251908,0.000000
0.000364,0.008966,0.005574,0.013475,0.036929,0.0251586,0.000000
0.000829,0.009215,0.006211,0.014436,0.034909,0.0251558,0.000000
0.001910,0.009362,0.007220,0.015485,0.033686,0.0250355,0.000000
0.003482,0.009459,0.008514,0.016577,0.032875,0.0250260,0.000000
0.005540,0.009416,0.010000,0.017882,0.032009,0.0248182,0.000000
0.007999,0.009245,0.011783,0.019158,0.030875,0.0244784,0.000000
0.011235,0.009174,0.013767,0.019313,0.029495,0.0238592,0.000000
0.015151,0.008930,0.015834,0.019373,0.027823,0.0231858,0.000000
0.019638,0.008595,0.018038,0.019234,0.026281,0.0224719,0.000000
0.024298,0.008163,0.020257,0.018776,0.024523,0.0220266,0.000000
0.028964,0.007744,0.022652,0.018254,0.022117,0.0217446,0.000000
0.033995,0.007547,0.025009,0.017622,0.019696,0.0217304,0.000000
0.039436,0.007202,0.027231,0.017567,0.018618,0.0219523,0.000000
0.045705,0.006718,0.029384,0.017397,0.017705,0.0220668,0.000000
0.051698,0.006191,0.031096,0.016968,0.016840,0.0221154,0.000000
0.057293,0.005824,0.032580,0.016430,0.015944,0.0220910,0.000000
0.062656,0.005394,0.033844,0.016064,0.015089,0.0219224,0.000000
0.067870,0.004817,0.034939,0.015865,0.014959,0.0214432,0.000000
0.072241,0.004280,0.035966,0.015791,0.014512,0.0207225,0.000000
0.076899,0.003629,0.036911,0.015588,0.014173,0.0198014,0.000000
0.082049,0.003084,0.037851,0.014994,0.013900,0.0191199,0.000000
0.086742,0.002598,0.038525,0.014489,0.013615,0.0182626,0.000000
0.090740,0.002114,0.038761,0.014290,0.013399,0.0174483,0.000000
0.094108,0.001730,0.038691,0.013873,0.013008,0.0166933,0.000000
0.097005,0.001517,0.038380,0.013308,0.012407,0.0158385,0.000000
0.098800,0.001485,0.037624,0.012487,0.011746,0.0149246,0.000000
0.099492,0.001538,0.036467,0.011456,0.011015,0.0138930,0.000000
0.098896,0.001655,0.034972,0.010629,0.010338,0.0128881,0.000000
0.098355,0.001659,0.033445,0.010522,0.009850,0.0120641,0.000000
0.096741,0.001699,0.031756,0.011234,0.009277,0.0111866,0.000000
0.093997,0.001998,0.030040,0.012307,0.008679,0.0102952,0.000000
0.091940,0.002149,0.028194,0.013775,0.008231,0.0095029,0.000000
0.088713,0.002491,0.026314,0.014675,0.007639,0.0086044,0.000000
0.086073,0.002747,0.024618,0.015630,0.007205,0.0079020,0.000000
0.081760,0.003250,0.022948,0.016618,0.006879,0.0070702,0.000000
0.077709,0.003584,0.021439,0.018046,0.006788,0.0063110,0.000000
0.074507,0.003847,0.020076,0.019764,0.006914,0.0057756,0.000000
0.071105,0.004210,0.018819,0.021232,0.007022,0.0052326,0.000000
0.068339,0.004377,0.017616,0.023036,0.007164,0.0047902,0.000000
0.066345,0.004440,0.016394,0.024858,0.007643,0.0045568,-0.000000
0.063970,0.004651,0.015238,0.026672,0.008110,0.0043349,-0.000000
0.061477,0.004956,0.014272,0.028535,0.008401,0.0040703,-0.000001
0.059314,0.005230,0.013391,0.030394,0.008648,0.0038759,-0.000001
0.056911,0.005695,0.012508,0.031453,0.008707,0.0035822,-0.000001
0.055536,0.005957,0.011638,0.032551,0.009019,0.0033719,-0.000001
0.054046,0.006064,0.010715,0.033193,0.009394,0.0031968,-0.000001
0.052674,0.006195,0.010012,0.033748,0.009831,0.0030928,-0.000001
0.051713,0.006391,0.009403,0.034620,0.010356,0.0030883,-0.000001
0.051324,0.006597,0.008935,0.035762,0.010831,0.0031813,-0.000001
0.049675,0.007186,0.008335,0.036340,0.011092,0.0032004,-0.000001
0.047746,0.008076,0.007665,0.036027,0.011226,0.0032717,-0.000001
0.047672,0.008616,0.007082,0.035772,0.011524,0.0035269,-0.000001
0.046581,0.009390,0.006456,0.035336,0.011716,0.0037558,-0.000001
0.045812,0.009934,0.005874,0.035519,0.011954,0.0040597,-0.000001
0.044267,0.010481,0.005246,0.036003,0.012040,0.0042463,-0.000001
0.043000,0.010994,0.004596,0.036862,0.012073,0.0044100,-0.000001
0.041465,0.011516,0.003963,0.037486,0.012113,0.0045428,-0.000001
0.039610,0.012103,0.003400,0.037850,0.012063,0.0046128,-0.000001
0.038631,0.012504,0.003020,0.038775,0.012189,0.0048459,-0.000001
0.037056,0.013216,0.002745,0.039305,0.012192,0.0050623,-0.000001
0.035708,0.014024,0.002570,0.039755,0.012137,0.0052772,-0.000001
0.034860,0.014681,0.002434,0.040824,0.012145,0.0055311,-0.000001
0.033658,0.015198,0.002309,0.041758,0.012150,0.0057305,-0.000001
0.032061,0.015877,0.002167,0.042221,0.012170,0.0058455,-0.000000
0.031322,0.016318,0.002078,0.042946,0.012274,0.0060152,-0.000000
0.029757,0.017290,0.001896,0.043742,0.012184,0.0060033,-0.000000
0.028192,0.018373,0.001704,0.045238,0.012039,0.0059346,-0.000000
0.027186,0.019334,0.001556,0.046821,0.012022,0.0058401,-0.000000
0.026075,0.020442,0.001386,0.048772,0.011972,0.0056628,-0.000000
0.025105,0.021938,0.001242,0.050356,0.011963,0.0054870,-0.000000
0.024672,0.023498,0.001203,0.051667,0.012018,0.0053038,-0.000000
0.024938,0.025416,0.001257,0.053213,0.012186,0.0051643,-0.000000
0.024222,0.027695,0.001217,0.054531,0.012267,0.0048753,-0.000000
0.023940,0.030082,0.001165,0.056281,0.012361,0.0045472,-0.000000
0.024133,0.032259,0.001123,0.057960,0.012578,0.0043150,-0.000000
0.023912,0.034649,0.001064,0.059273,0.012979,0.0040514,-0.000000
0.023943,0.036921,0.001054,0.060735,0.013505,0.0038489,-0.000000
0.024213,0.039413,0.001053,0.062032,0.014194,0.0036665,-0.000000
0.024204,0.042222,0.001039,0.063233,0.014892,0.0034652,0.002761
0.023632,0.045611,0.000980,0.064286,0.015432,0.0031872,0.002761
0.022995,0.048676,0.000952,0.065423,0.016107,0.0029536,0.002761
0.022217,0.051851,0.000928,0.066239,0.016900,0.0027435,0.002761
0.021153,0.055214,0.000885,0.066561,0.017671,0.0025382,0.002761
0.020158,0.058517,0.000855,0.065981,0.018539,0.0024062,0.002761
0.019592,0.061983,0.000869,0.065141,0.019507,0.0023565,0.002761
0.018774,0.065468,0.000887,0.064269,0.020613,0.0023354,0.002761
0.017625,0.068125,0.000916,0.063659,0.021695,0.0023741,-0.000005
0.016516,0.070688,0.000972,0.062713,0.022844,0.0024444,-0.000005
0.015520,0.073273,0.001052,0.061455,0.024012,0.0025659,-0.000005
0.014967,0.075735,0.001207,0.059561,0.025381,0.0027445,-0.000005
0.014150,0.077797,0.001351,0.057778,0.026547,0.0028754,0.002756
0.013332,0.079587,0.001488,0.055963,0.027593,0.0029875,0.002756
0.012580,0.080682,0.001633,0.054051,0.028628,0.0031255,0.002756
0.011907,0.081196,0.001810,0.052089,0.029659,0.0033139,0.002756
0.011199,0.080909,0.002019,0.049335,0.030828,0.0035210,0.002756
0.010538,0.080518,0.002263,0.046536,0.031881,0.0037161,0.002756
0.010021,0.079826,0.002516,0.043762,0.032619,0.0039446,0.002756
0.009760,0.078692,0.002779,0.040926,0.033268,0.0042392,0.002756
0.009548,0.077427,0.003047,0.038384,0.033839,0.0045570,0.002756
0.009392,0.075374,0.003316,0.036114,0.034482,0.0049751,-0.000005
0.009413,0.072454,0.003570,0.033868,0.035019,0.0054951,-0.000005
0.009684,0.069497,0.003821,0.031307,0.035532,0.0060233,-0.000005
0.009939,0.066244,0.004069,0.028927,0.035927,0.0066201,-0.000005
0.010034,0.062386,0.004310,0.026616,0.036211,0.0072735,-0.000005
0.009980,0.058582,0.004525,0.024779,0.036247,0.0083599,-0.000005
0.009885,0.054436,0.004714,0.023473,0.036255,0.0094749,-0.000005
0.009876,0.050349,0.004872,0.022139,0.036132,0.0105777,-0.000005
0.009917,0.046749,0.004994,0.020327,0.037005,0.0116077,0.002761
0.010034,0.043109,0.005085,0.018689,0.038156,0.0125590,0.002761
0.010029,0.039711,0.005143,0.017346,0.039242,0.0134750,0.002761
0.009983,0.036246,0.005152,0.016054,0.040450,0.0144985,0.002761
0.009748,0.032865,0.005119,0.014550,0.042641,0.0155865,0.000000
0.009273,0.029616,0.005030,0.013321,0.045630,0.0169012,0.000000
0.008814,0.026456,0.004943,0.012272,0.048862,0.0179735,0.000000
0.008361,0.023506,0.004821,0.011314,0.053380,0.0189119,0.000000
0.008017,0.021102,0.004718,0.010596,0.057811,0.0198811,0.000000
0.007760,0.018927,0.004605,0.009902,0.061730,0.0208720,0.000000
0.007620,0.016949,0.004494,0.009197,0.065395,0.0218713,0.000000
0.007333,0.015113,0.004371,0.008433,0.069175,0.0228457,0.000000
0.007050,0.013333,0.004236,0.007625,0.073661,0.0237143,0.000000
0.006869,0.012022,0.004107,0.006619,0.077238,0.0244284,0.000000
0.006858,0.010951,0.004007,0.005692,0.080465,0.0247152,0.000000
0.006987,0.010039,0.003891,0.005096,0.083243,0.0247889,0.000000
0.007241,0.009372,0.003777,0.004728,0.084636,0.0248128,0.000000
0.007154,0.009208,0.003600,0.004070,0.086109,0.0246399,0.000000
0.006730,0.009167,0.003401,0.003539,0.088154,0.0240223,0.000000
0.006291,0.009165,0.003206,0.003019,0.090399,0.0234664,0.000000
0.005796,0.009107,0.003038,0.002546,0.092601,0.0229221,0.000000
0.005404,0.008896,0.002923,0.002483,0.092586,0.0224499,0.000000
0.004982,0.008767,0.002837,0.002310,0.092629,0.0220006,0.000000
0.004508,0.008440,0.002756,0.002204,0.093108,0.0215930,0.000000
0.004030,0.008075,0.002698,0.002240,0.093358,0.0211137,0.000000
0.003800,0.007647,0.002675,0.002356,0.092794,0.0206541,0.000000
0.003800,0.007164,0.002722,0.002506,0.091422,0.0200503,0.000000
0.003849,0.006743,0.002758,0.002685,0.089257,0.0196978,0.000000
0.003849,0.006505,0.002794,0.002753,0.086562,0.0194089,0.000000
0.003666,0.006339,0.002778,0.002753,0.084148,0.0192411,0.000000
0.003356,0.006178,0.002754,0.002799,0.082293,0.0188542,0.000000
0.002977,0.005985,0.002717,0.002912,0.080415,0.0183865,0.000000
0.002784,0.006005,0.002697,0.003071,0.077858,0.0179444,0.000000
0.002601,0.006032,0.002686,0.003224,0.074597,0.0175881,0.000000
0.002314,0.006101,0.002662,0.003319,0.072198,0.0173593,0.000000
0.001841,0.006326,0.002611,0.003191,0.070277,0.0174660,0.000000
0.001198,0.006559,0.002565,0.002978,0.068513,0.0180070,0.000000
0.000439,0.006640,0.002519,0.002825,0.066909,0.0183546,0.000000
0.000164,0.006588,0.002553,0.003121,0.064824,0.0186203,0.000000
0.000295,0.006465,0.002618,0.003596,0.062334,0.0189559,0.000000
0.000317,0.006396,0.002679,0.003965,0.059501,0.0193491,0.000000
0.000344,0.006349,0.002732,0.004369,0.056697,0.0197120,0.000000
0.000335,0.006398,0.002758,0.004516,0.055204,0.0200853,0.000000
0.000335,0.006396,0.002780,0.004754,0.053521,0.0203927,0.000000
0.000373,0.006280,0.002823,0.005072,0.051366,0.0207175,0.000000
0.000373,0.006111,0.002862,0.005468,0.049270,0.0207442,0.000000
0.000373,0.005977,0.002898,0.005834,0.047132,0.0207822,0.000000
0.000373,0.005837,0.002915,0.006134,0.045057,0.0207523,0.000000
0.000323,0.005631,0.002926,0.006370,0.043631,0.0206474,0.000000
0.000323,0.005425,0.002940,0.006626,0.041293,0.0206407,0.000000
0.000323,0.005160,0.002966,0.007015,0.038670,0.0204308,0.000000
0.000323,0.004893,0.003003,0.007383,0.035924,0.0203227,0.000000
0.000323,0.004620,0.003043,0.007743,0.033305,0.0202650,0.000000
0.000323,0.004441,0.003053,0.007979,0.031216,0.0203003,0.000000
0.000323,0.004283,0.003064,0.008185,0.029144,0.0203576,0.000000
0.000323,0.004120,0.003084,0.008398,0.027012,0.0203724,0.000000
0.000323,0.003946,0.003111,0.008577,0.024943,0.0203755,0.000000
0.000323,0.003876,0.003132,0.008756,0.023038,0.0201167,0.000000
0.000323,0.003827,0.003156,0.008848,0.022510,0.0197909,0.000000
0.000219,0.003821,0.003155,0.008738,0.022427,0.0197150,0.000000
0.000087,0.003920,0.003149,0.008506,0.022320,0.0196234,0.000000
0.000065,0.004059,0.003149,0.008316,0.022211,0.0194965,0.000000
0.000038,0.004163,0.003172,0.008165,0.022190,0.0192548,0.000000
0.000038,0.004233,0.003204,0.008105,0.022093,0.0188873,0.000000
0.000038,0.004323,0.003227,0.008025,0.021912,0.0186969,0.000000
0.000000,0.004651,0.003217,0.007866,0.021707,0.0185556,0.000000
0.000000,0.005096,0.003205,0.007489,0.021307,0.0189609,0.000000
0.000000,0.005529,0.003200,0.007182,0.020944,0.0193244,0.000000
0.000000,0.005945,0.003205,0.006917,0.020594,0.0195993,-0.000000
0.000000,0.006340,0.003210,0.006680,0.020249,0.0201213,-0.000000
0.000000,0.006797,0.003228,0.006501,0.020246,0.0205087,-0.000001
0.000000,0.007184,0.003238,0.006875,0.020697,0.0209225,-0.000001
0.000000,0.007577,0.003232,0.007515,0.021226,0.0214512,-0.000001
0.000000,0.008041,0.003220,0.008070,0.021963,0.0219531,-0.000001
0.000000,0.008335,0.003244,0.008790,0.022753,0.0222738,-0.000001
0.000000,0.008505,0.003277,0.009675,0.023687,0.0223372,-0.000001
0.000000,0.008670,0.003299,0.010606,0.024579,0.0224288,-0.000001
0.000000,0.008925,0.003316,0.011387,0.025336,0.0227152,-0.000001
0.000000,0.009151,0.003341,0.012190,0.026040,0.0229310,-0.000001
0.000000,0.009257,0.003358,0.012975,0.026333,0.0233969,-0.000001
0.000000,0.009433,0.003395,0.013535,0.026048,0.0238451,-0.000001
0.000000,0.009581,0.003450,0.013586,0.025753,0.0242022,-0.000001
0.000000,0.009620,0.003692,0.013668,0.025365,0.0243466,-0.000001
0.000000,0.009694,0.003964,0.013880,0.024940,0.0245316,-0.000001
0.000000,0.009810,0.004396,0.013977,0.024321,0.0248866,-0.000001
0.000000,0.009968,0.004890,0.013956,0.023755,0.0251949,-0.000001
0.000210,0.009967,0.005684,0.014164,0.023393,0.0254018,-0.000001
0.000429,0.009876,0.006520,0.014683,0.023198,0.0252426,-0.000001
0.000639,0.009892,0.007366,0.015195,0.023015,0.0250356,-0.000001
0.000901,0.009925,0.008328,0.015559,0.022896,0.0248543,-0.000001
0.000901,0.010089,0.009336,0.016662,0.022577,0.0244301,-0.000001
0.001167,0.010128,0.010364,0.017872,0.021979,0.0240878,-0.000001
0.002168,0.010096,0.011648,0.018534,0.021025,0.0238382,-0.000000
0.003470,0.009975,0.012982,0.019025,0.020250,0.0234893,-0.000000
0.004990,0.009710,0.014526,0.020033,0.019401,0.0230776,-0.000000
0.007189,0.009464,0.016085,0.020774,0.018471,0.0225952,-0.000000
0.009646,0.009313,0.018033,0.021429,0.017339,0.0223652,-0.000000
0.012429,0.009044,0.019997,0.022187,0.016285,0.0220128,-0.000000
0.015681,0.008581,0.021956,0.023104,0.015358,0.0214466,-0.000000
0.019140,0.008114,0.023991,0.023914,0.014481,0.0209719,-0.000000
0.022665,0.007850,0.025951,0.024627,0.013868,0.0204699,-0.000000
0.026284,0.007524,0.028152,0.025400,0.013772,0.0199206,-0.000000
0.029951,0.007120,0.030356,0.026496,0.013601,0.0193035,-0.000000
0.033914,0.006741,0.032528,0.026871,0.013566,0.0188177,-0.000000
0.038176,0.006345,0.034807,0.026789,0.013535,0.0184596,-0.000000
0.042693,0.005923,0.037059,0.026835,0.013787,0.0180530,-0.000000
0.046955,0.005459,0.039186,0.027089,0.013866,0.0176203,-0.000000
0.050719,0.004957,0.040896,0.027241,0.013734,0.0171992,0.002761
0.053672,0.004655,0.042472,0.026883,0.013450,0.0167413,0.002761
0.056608,0.004235,0.043891,0.026622,0.013198,0.0163091,0.002761
0.059227,0.003837,0.045115,0.026497,0.012824,0.0159018,0.002761
0.061997,0.003342,0.046173,0.025757,0.012527,0.0155285,0.002761
0.064386,0.002886,0.047107,0.024670,0.012218,0.0151279,0.002761
0.065930,0.002752,0.047846,0.023244,0.011716,0.0145685,0.002761
0.067830,0.002641,0.048448,0.021698,0.011099,0.0140757,0.002761
0.069204,0.002661,0.048764,0.019661,0.010544,0.0136647,-0.000005
0.070006,0.002715,0.048938,0.017806,0.010107,0.0133415,-0.000005
0.069675,0.002901,0.048670,0.015908,0.009468,0.0128417,-0.000005
0.069484,0.003088,0.048212,0.013905,0.008823,0.0124464,-0.000005
0.068577,0.003364,0.047566,0.011883,0.008087,0.0119386,0.002756
0.067746,0.003615,0.046831,0.009936,0.007406,0.0114352,0.002756
0.066149,0.003917,0.046196,0.007984,0.006742,0.0108610,0.002756
0.064933,0.004127,0.045287,0.006227,0.006156,0.0103716,0.002756
0.063723,0.004319,0.044283,0.004771,0.005667,0.0099554,0.002756
0.061591,0.004612,0.042859,0.004093,0.005198,0.0094434,0.002756
0.058769,0.004983,0.041388,0.003696,0.004670,0.0088959,0.002756
0.056229,0.005407,0.039667,0.003370,0.004173,0.0083459,0.002756
0.054034,0.005846,0.037942,0.002983,0.003669,0.0078049,0.002756
0.051161,0.006390,0.036100,0.002337,0.003119,0.0071237,-0.000005
0.050289,0.006495,0.034372,0.002210,0.002734,0.0066606,-0.000005
0.049555,0.006599,0.032757,0.002012,0.002329,0.0061827,-0.000005
0.048532,0.006794,0.031155,0.001632,0.001946,0.0056847,-0.000005
0.047326,0.007036,0.029627,0.001093,0.001600,0.0051518,-0.000005
0.046269,0.007196,0.028181,0.000988,0.001299,0.0046331,-0.000005
0.045388,0.007296,0.026679,0.001104,0.001066,0.0041559,-0.000005
0.044330,0.007451,0.025300,0.001291,0.000813,0.0036469,-0.000005
0.043331,0.007543,0.023882,0.001631,0.000621,0.0031260,0.002761
0.042979,0.007554,0.022569,0.002659,0.000578,0.0027099,0.002761
0.043097,0.007661,0.021220,0.003705,0.000694,0.0023787,0.002761
0.043531,0.007841,0.020104,0.005020,0.000889,0.0021214,0.002761
0.043457,0.008266,0.019062,0.006042,0.001101,0.0019013,0.000000
0.043278,0.008674,0.017924,0.007185,0.001311,0.0016795,0.000000
0.043737,0.009009,0.016803,0.008497,0.001648,0.0016164,0.000000
0.043787,0.009766,0.015749,0.009663,0.002087,0.0015185,0.000000
0.043731,0.010624,0.014688,0.010941,0.002582,0.0014431,0.000000
0.043834,0.011484,0.013859,0.012123,0.003049,0.0013616,0.000000
0.044872,0.012226,0.012966,0.013428,0.003689,0.0013536,0.000000
0.045421,0.012904,0.012172,0.014772,0.004199,0.0013163,0.000000
0.046059,0.013450,0.011301,0.016570,0.004746,0.0013254,0.000000
0.047242,0.013725,0.010595,0.018701,0.005320,0.0014872,0.000000
0.047819,0.014051,0.009831,0.020954,0.006016,0.0016692,0.000000
0.048213,0.014444,0.009101,0.023197,0.006753,0.0019128,0.000000
0.048971,0.014842,0.008437,0.025534,0.007561,0.0022264,0.000000
0.049049,0.015716,0.007749,0.027475,0.008236,0.0024573,0.000000
0.049700,0.016651,0.007128,0.029501,0.008994,0.0027254,0.000000
0.049688,0.017645,0.006474,0.031719,0.009597,0.0030482,0.000000
0.049669,0.018685,0.005825,0.034195,0.010257,0.0034730,0.000000
0.050018,0.019669,0.005307,0.036809,0.010925,0.0039522,0.000000
0.049823,0.020738,0.004753,0.038693,0.011370,0.0043242,0.000000
0.049591,0.021759,0.004249,0.040194,0.011728,0.0047213,0.000000
0.048756,0.023103,0.003688,0.041239,0.012085,0.0050884,0.000000
0.048704,0.024478,0.003250,0.042453,0.012513,0.0055866,0.000000
0.048316,0.025916,0.002915,0.044086,0.012918,0.0060721,0.000000
0.047877,0.027248,0.002535,0.046352,0.013135,0.0065187,0.000000
0.047231,0.028304,0.002108,0.048899,0.013252,0.0069381,0.000000
0.046741,0.029515,0.001765,0.051263,0.013315,0.0073301,0.000000
0.046587,0.030532,0.001458,0.054174,0.013382,0.0077654,0.000000
0.045693,0.031494,0.001111,0.058178,0.013242,0.0081208,0.000000
0.044520,0.032579,0.000784,0.062188,0.013104,0.0084404,0.000000
0.043049,0.033741,0.000608,0.066000,0.012871,0.0087344,0.000000
0.041864,0.035146,0.000506,0.069400,0.012725,0.0090320,0.000000
0.039883,0.036968,0.000435,0.072474,0.012415,0.0091891,0.000000
0.037851,0.038936,0.000357,0.075984,0.012033,0.0092499,0.000000
0.036033,0.040750,0.000271,0.080129,0.011658,0.0092615,0.000000
0.035371,0.042222,0.000257,0.085082,0.011423,0.0093688,0.000000
0.034207,0.043582,0.000195,0.090031,0.011160,0.0094345,0.000000
0.033633,0.044427,0.000170,0.095211,0.011158,0.0094494,0.000000
0.032700,0.045040,0.000111,0.100418,0.011150,0.0093809,0.000000
0.031798,0.045682,0.000065,0.105034,0.011268,0.0091558,0.000000
0.030800,0.046295,0.000083,0.109372,0.011507,0.0089615,0.000000
0.030411,0.046697,0.000162,0.113898,0.011897,0.0088411,0.000000
0.029635,0.046823,0.000309,0.118805,0.012306,0.0087041,0.000000
0.028524,0.046590,0.000471,0.123943,0.012732,0.0085265,0.000000
0.027478,0.045891,0.000634,0.128955,0.013082,0.0083040,0.000000
0.026418,0.044900,0.000797,0.133361,0.013549,0.0080222,0.000000
0.025475,0.043784,0.000962,0.137087,0.014079,0.0077379,0.000000
0.024384,0.042522,0.001131,0.140396,0.014672,0.0074455,0.000000
0.023311,0.041282,0.001303,0.143476,0.015309,0.0071635,0.000000
0.022195,0.039828,0.001489,0.146037,0.015970,0.0069228,0.000000
0.021282,0.037911,0.001677,0.148548,0.016647,0.0067518,0.000000
0.020492,0.036033,0.001878,0.149839,0.017387,0.0065913,0.000000
0.019809,0.034005,0.002100,0.151232,0.018114,0.0064381,0.000000
0.019321,0.031798,0.002336,0.152366,0.018833,0.0063220,0.000000
0.019032,0.029410,0.002572,0.152801,0.019587,0.0062495,0.000000
0.018883,0.026861,0.002809,0.152466,0.020356,0.0062135,0.000000
0.018654,0.024052,0.003056,0.150929,0.021206,0.0062210,0.000000
0.018377,0.021318,0.003305,0.148792,0.021947,0.0062412,0.000000
0.018192,0.019143,0.003506,0.145528,0.022800,0.0063811,0.000000
0.018060,0.017680,0.003657,0.140804,0.023901,0.0065936,0.000000
0.017829,0.016624,0.003744,0.134734,0.024860,0.0069564,0.000000
0.017915,0.015615,0.003836,0.129247,0.025818,0.0071864,0.000000
0.017861,0.014564,0.003931,0.123081,0.026318,0.0073441,0.000000
0.017511,0.013454,0.003976,0.116828,0.026756,0.0073044,0.000000
0.017049,0.012367,0.003988,0.110219,0.026942,0.0073974,0.000000
0.016249,0.011525,0.003974,0.102909,0.027249,0.0076869,-0.000000
0.015625,0.011655,0.003951,0.095289,0.027505,0.0079053,-0.000000
0.015592,0.012221,0.003949,0.088410,0.027647,0.0080356,-0.000001
0.015574,0.012694,0.003943,0.082216,0.027758,0.0080782,-0.000001
0.015617,0.012938,0.003928,0.075727,0.027920,0.0081524,-0.000001
0.015737,0.013146,0.003912,0.068521,0.028153,0.0082487,-0.000001
0.015762,0.013510,0.003899,0.061029,0.028291,0.0083445,-0.000001
0.015876,0.013879,0.003872,0.054650,0.028500,0.0083698,-0.000001
0.016639,0.014570,0.003807,0.049215,0.028517,0.0083485,-0.000001
0.017460,0.015719,0.003669,0.043789,0.028566,0.0081261,-0.000001
0.018128,0.016918,0.003521,0.039016,0.028561,0.0079346,-0.000001
0.018450,0.018628,0.003427,0.033644,0.028587,0.0077938,-0.000001
0.018166,0.019734,0.003344,0.029613,0.028438,0.0076812,-0.000001
0.017888,0.021148,0.003271,0.025196,0.028308,0.0075734,-0.000001
0.017469,0.021927,0.003226,0.022013,0.027962,0.0073304,-0.000001
0.016860,0.022213,0.003201,0.019833,0.027236,0.0069673,-0.000001
0.015955,0.022048,0.003192,0.019272,0.026383,0.0065765,-0.000001
0.014746,0.021456,0.003183,0.018405,0.025430,0.0064195,-0.000001
0.013485,0.020886,0.003176,0.018750,0.024941,0.0064967,-0.000001
0.012755,0.020210,0.003149,0.019072,0.024357,0.0066878,-0.000001
0.012367,0.019724,0.003127,0.019695,0.024110,0.0066973,-0.000001
0.012424,0.019642,0.003116,0.020145,0.023753,0.0064610,-0.000001
0.012267,0.018879,0.003095,0.020703,0.023408,0.0061920,-0.000001
0.011709,0.017694,0.003082,0.020996,0.023119,0.0061817,-0.000001
0.011116,0.016450,0.003064,0.021196,0.022810,0.0062405,-0.000000
0.010475,0.015884,0.003032,0.021514,0.022404,0.0063071,-0.000000
0.010036,0.015761,0.002983,0.021782,0.021929,0.0063148,-0.000000
0.009672,0.015700,0.002919,0.022083,0.021531,0.0062683,-0.000000
0.009191,0.015356,0.002855,0.021877,0.020859,0.0069272,-0.000000
0.008340,0.014984,0.002819,0.021281,0.020374,0.0075075,-0.000000
0.007539,0.014443,0.002830,0.020680,0.019809,0.0082288,-0.000000
0.006885,0.013906,0.002861,0.019773,0.019552,0.0084457,-0.000000
0.006713,0.012966,0.002858,0.019455,0.019320,0.0089366,-0.000000
0.006613,0.012483,0.002832,0.018550,0.019545,0.0094239,-0.000000
0.006546,0.011785,0.002794,0.018341,0.019828,0.0098209,-0.000000
0.006290,0.011779,0.002729,0.017331,0.019893,0.0103169,-0.000000
0.006309,0.011703,0.002673,0.016694,0.020034,0.0107757,-0.000000
0.006745,0.011867,0.002646,0.016002,0.020740,0.0111457,-0.000000
0.007572,0.012387,0.002619,0.015673,0.021828,0.0110884,-0.000000
0.008299,0.013364,0.002525,0.014726,0.023037,0.0108264,0.002761
0.008472,0.014208,0.002431,0.013714,0.023974,0.0109594,0.002761
0.008653,0.014866,0.002369,0.012735,0.024686,0.0112190,0.002761
0.008419,0.014937,0.002352,0.012165,0.025420,0.0117097,0.002761
0.008431,0.015293,0.002362,0.011494,0.026123,0.0121004,0.002761
0.008404,0.015629,0.002296,0.010761,0.026837,0.0122392,0.002761
0.008202,0.016101,0.002207,0.009841,0.027565,0.0123435,0.002761
0.008387,0.016019,0.002156,0.008972,0.028192,0.0124213,0.002761
0.008239,0.015935,0.002156,0.008193,0.029126,0.0127440,-0.000005
0.008138,0.015932,0.002147,0.007459,0.030224,0.0132360,-0.000005
0.008061,0.016291,0.002155,0.007068,0.031589,0.0129989,-0.000005
0.007733,0.016439,0.002154,0.006243,0.032366,0.0130164,-0.000005
0.007306,0.016130,0.002172,0.005800,0.033122,0.0129858,0.002756
0.006806,0.015665,0.002148,0.005208,0.033503,0.0134329,0.002756
0.006006,0.015394,0.002061,0.004707,0.033811,0.0134921,0.002756
0.005640,0.015389,0.001959,0.004285,0.034100,0.0134774,0.002756
0.005182,0.015310,0.001849,0.003912,0.034280,0.0136562,0.002756
0.005268,0.015147,0.001798,0.003854,0.035157,0.0136330,0.002756
0.004978,0.015003,0.001765,0.003526,0.035672,0.0138431,0.002756
0.004375,0.014655,0.001715,0.003278,0.035592,0.0140434,0.002756
0.003216,0.014099,0.001668,0.002810,0.035048,0.0146938,0.002756
0.002829,0.012927,0.001595,0.002505,0.034539,0.0149809,-0.000005
0.002705,0.012109,0.001525,0.002181,0.034185,0.0150457,-0.000005
0.003013,0.011324,0.001434,0.001772,0.033952,0.0151206,-0.000005
0.003299,0.011048,0.001338,0.001499,0.033743,0.0151274,-0.000005
0.003233,0.010615,0.001218,0.001327,0.033734,0.0151492,-0.000005
0.003282,0.010204,0.001134,0.001266,0.033645,0.0151728,-0.000005
0.003275,0.009800,0.001089,0.001315,0.033365,0.0154798,-0.000005
0.002980,0.009555,0.001030,0.001238,0.033165,0.0157920,-0.000005
0.002980,0.009206,0.001013,0.001390,0.032635,0.0158996,0.002761
0.002980,0.008791,0.001007,0.001678,0.031975,0.0157834,0.002761
0.002980,0.008379,0.000965,0.001793,0.031329,0.0157803,0.002761
0.002980,0.008004,0.000928,0.001861,0.031110,0.0156995,0.002761
0.002980,0.007806,0.000880,0.001755,0.030795,0.0156917,0.000000
0.002980,0.007739,0.000890,0.001768,0.030899,0.0155987,0.000000
0.002979,0.007437,0.000948,0.002124,0.031453,0.0154757,0.000000
0.002979,0.007223,0.000959,0.002361,0.031679,0.0152567,0.000000
0.002975,0.007019,0.000979,0.002620,0.032038,0.0148449,0.000000
0.002695,0.006697,0.000979,0.002821,0.031658,0.0145790,0.000000
0.002515,0.006262,0.001045,0.003122,0.032584,0.0142808,0.000000
0.002476,0.005772,0.001118,0.003366,0.034011,0.0142399,0.000000
0.002476,0.005643,0.001168,0.003419,0.035704,0.0139884,0.000000
0.001829,0.005715,0.001275,0.003633,0.037052,0.0140651,0.000000
0.001445,0.005742,0.001416,0.003933,0.038276,0.0138769,0.000000
0.000696,0.005940,0.001568,0.004273,0.040363,0.0136052,0.000000
0.000374,0.006012,0.001702,0.004579,0.043326,0.0132616,0.000000
0.000320,0.005922,0.001822,0.004935,0.048091,0.0131096,0.000000
0.000025,0.005709,0.001944,0.005327,0.053150,0.0130837,0.000000
0.000025,0.005414,0.002042,0.005306,0.059304,0.0131272,0.000000
0.000025,0.005321,0.002157,0.005433,0.063227,0.0131241,0.000000
0.000025,0.005466,0.002195,0.005186,0.067177,0.0130425,0.000000
0.000025,0.005765,0.002277,0.005229,0.068956,0.0127415,0.000000
0.000025,0.006356,0.002564,0.005835,0.070050,0.0124337,0.000000
0.000025,0.006527,0.003067,0.010388,0.070568,0.0119829,0.000000
0.000247,0.006780,0.003837,0.015343,0.070236,0.0115229,0.000000
0.001024,0.007140,0.004759,0.020220,0.069617,0.0112000,0.000000
0.002834,0.007399,0.005841,0.025468,0.068572,0.0109671,0.000000
0.005103,0.007349,0.007247,0.031233,0.067488,0.0108795,0.000000
0.009140,0.006917,0.008918,0.037496,0.066320,0.0108767,0.000000
0.013602,0.006454,0.010632,0.043677,0.065519,0.0108017,0.000000
0.018710,0.006147,0.012285,0.049322,0.063747,0.0105427,0.000000
0.025231,0.005971,0.013870,0.054206,0.061633,0.0100693,0.000000
0.033740,0.005803,0.015668,0.059124,0.059065,0.0097498,0.000000
0.042392,0.005851,0.017446,0.061910,0.056564,0.0094722,0.000000
0.051541,0.005650,0.019035,0.064522,0.054406,0.0093979,0.000000
0.060799,0.005304,0.020411,0.067027,0.051353,0.0092571,0.000000
0.070846,0.005136,0.021591,0.069675,0.047361,0.0092028,0.000000
0.080802,0.005166,0.022683,0.071860,0.041320,0.0090901,0.000000
0.088182,0.006117,0.023445,0.072869,0.034937,0.0087948,0.000000
0.095930,0.006788,0.024046,0.074591,0.027685,0.0082709,0.000000
0.103267,0.007055,0.024599,0.076469,0.022700,0.0078021,0.000000
0.109720,0.007017,0.025220,0.078748,0.017816,0.0075359,0.000000
0.114927,0.007100,0.025586,0.080111,0.015457,0.0075628,0.000000
0.119880,0.006734,0.025567,0.081201,0.013765,0.0075479,0.000000
0.123859,0.006925,0.025222,0.078607,0.012509,0.0074726,0.000000
0.126722,0.006893,0.024602,0.075786,0.012167,0.0074766,0.000000
0.128236,0.006502,0.023868,0.072597,0.011974,0.0074561,0.000000
0.129195,0.006400,0.022903,0.069297,0.012026,0.0075820,0.000000
0.129657,0.006272,0.021667,0.065770,0.011988,0.0077524,0.000000
0.128069,0.006559,0.020106,0.061539,0.011833,0.0078750,0.000000
0.126342,0.006795,0.018549,0.057768,0.011707,0.0080928,0.000000
0.123886,0.007088,0.016990,0.054392,0.011652,0.0082844,0.000000
0.119642,0.007313,0.015506,0.051972,0.011532,0.0085380,0.000000
0.112880,0.007700,0.013755,0.049257,0.011636,0.0086544,0.000000
0.106017,0.008103,0.012149,0.047821,0.011743,0.0088689,0.000000
0.099269,0.008761,0.010725,0.046452,0.011915,0.0089562,0.000000
0.092486,0.009415,0.009505,0.045551,0.012122,0.0091112,0.000000
0.083638,0.010106,0.008365,0.044101,0.012146,0.0090107,0.000000
0.075415,0.010779,0.007387,0.043183,0.012319,0.0090386,0.000000
0.069270,0.010792,0.006750,0.043591,0.012642,0.0091507,0.000000
0.062848,0.011202,0.006309,0.043418,0.012893,0.0092940,0.000000
0.057148,0.011831,0.005879,0.043049,0.013005,0.0095688,0.000000
0.052359,0.012644,0.005375,0.042751,0.013092,0.0096384,0.000000
0.049012,0.013492,0.005084,0.042951,0.012818,0.0096985,0.000000
0.045967,0.014148,0.004838,0.043548,0.012558,0.0097340,0.000000
0.043110,0.014685,0.004639,0.044531,0.012429,0.0098708,0.000000
0.041745,0.015250,0.004497,0.045413,0.012461,0.0100439,0.000000
0.041277,0.016108,0.004277,0.046481,0.012341,0.0101940,-0.000000
0.040078,0.016882,0.004101,0.046963,0.011952,0.0101362,-0.000000
0.038715,0.017852,0.003930,0.047091,0.011651,0.0099847,-0.000001
0.037495,0.018882,0.003783,0.047188,0.011447,0.0097540,-0.000001
0.036040,0.019783,0.003624,0.047426,0.011247,0.0093690,-0.000001
0.034596,0.020527,0.003450,0.047568,0.010954,0.0090488,-0.000001
0.033198,0.021166,0.003262,0.047727,0.010728,0.0086955,-0.000001
0.032453,0.021730,0.003149,0.048312,0.010614,0.0083789,-0.000001
0.031953,0.022023,0.002947,0.049393,0.010646,0.0079733,-0.000001
0.030356,0.022462,0.002675,0.050406,0.010468,0.0075258,-0.000001
0.028881,0.022694,0.002424,0.051130,0.010346,0.0071229,-0.000001
0.028442,0.022833,0.002274,0.052333,0.010459,0.0068440,-0.000001
0.027600,0.022974,0.002087,0.053480,0.010493,0.0065275,-0.000001
0.027214,0.023086,0.001891,0.054388,0.010466,0.0062691,-0.000001
0.026941,0.023213,0.001683,0.055285,0.010494,0.0059426,-0.000001
0.026256,0.023312,0.001477,0.056142,0.010638,0.0054365,-0.000001
0.025835,0.023314,0.001297,0.056849,0.010691,0.0050382,-0.000001
0.025202,0.023220,0.001127,0.057658,0.010766,0.0046573,-0.000001
0.024482,0.023223,0.001112,0.057969,0.010772,0.0043106,-0.000001
0.024546,0.023318,0.001147,0.057480,0.010940,0.0039983,-0.000001
0.024023,0.023616,0.001107,0.056962,0.010997,0.0035728,-0.000001
0.023785,0.023724,0.001072,0.056779,0.011046,0.0031420,-0.000001
0.023460,0.023947,0.001039,0.056474,0.011062,0.0027202,-0.000001
0.023396,0.023964,0.001042,0.056760,0.011135,0.0023649,-0.000001
0.023517,0.023962,0.001091,0.057209,0.011231,0.0021472,-0.000000
0.023583,0.024078,0.001107,0.057071,0.011273,0.0020409,-0.000000
0.023628,0.024296,0.001106,0.057121,0.011340,0.0018927,-0.000000
0.024071,0.024753,0.001108,0.057111,0.011378,0.0017527,-0.000000
0.024389,0.025763,0.001067,0.057124,0.011336,0.0016259,-0.000000
0.024440,0.026810,0.000992,0.057994,0.011123,0.0015275,-0.000000
0.024814,0.028058,0.000978,0.058662,0.011034,0.0015133,-0.000000
0.024783,0.029984,0.000970,0.059212,0.011024,0.0014606,-0.000000
0.025139,0.032944,0.000965,0.060093,0.010993,0.0014123,-0.000000
0.025293,0.035943,0.000934,0.061382,0.010898,0.0013509,-0.000000
0.025340,0.038971,0.000906,0.063022,0.010808,0.0012742,-0.000000
0.025006,0.042184,0.000873,0.064909,0.010759,0.0011938,-0.000000
0.024522,0.046589,0.000860,0.066057,0.011181,0.0011414,-0.000000
0.023513,0.051053,0.000799,0.068105,0.011546,0.0010994,-0.000000
0.022435,0.054961,0.000748,0.070069,0.012032,0.0010820,-0.000000
0.021246,0.058676,0.000708,0.072463,0.012518,0.0010695,0.002761
0.020061,0.063175,0.000671,0.075522,0.012931,0.0010198,0.002761
0.018862,0.067823,0.000651,0.079515,0.013180,0.0009992,0.002761
0.017277,0.072274,0.000633,0.083705,0.013386,0.0010121,0.002761
0.016033,0.076894,0.000652,0.087685,0.013702,0.0010701,0.002761
0.014729,0.081666,0.000646,0.090891,0.014025,0.0011705,0.002761
0.013380,0.086545,0.000638,0.094380,0.014213,0.0012855,0.002761
0.012007,0.090845,0.000630,0.098614,0.013954,0.0013709,0.002761
0.010755,0.094862,0.000679,0.101322,0.013987,0.0014719,-0.000005
0.009443,0.098921,0.000746,0.103323,0.014154,0.0016098,-0.000005
0.008705,0.102288,0.000919,0.104622,0.014629,0.0018543,-0.000005
0.008025,0.104166,0.001140,0.105244,0.015288,0.0021887,-0.000005
0.007461,0.104896,0.001375,0.104913,0.016100,0.0025497,0.002756
0.006825,0.104287,0.001616,0.103791,0.016921,0.0029369,0.002756
0.006165,0.102375,0.001889,0.101923,0.017897,0.0033812,0.002756
0.005610,0.100173,0.002194,0.099696,0.018972,0.0037622,0.002756
0.005244,0.097348,0.002506,0.096690,0.020117,0.0041682,0.002756
0.005090,0.093692,0.002818,0.093242,0.021040,0.0048577,0.002756
0.005204,0.088734,0.003128,0.090467,0.021476,0.0057990,0.002756
0.005530,0.083675,0.003451,0.086371,0.021814,0.0069021,0.002756
0.005953,0.079030,0.003694,0.082222,0.021896,0.0080229,0.002756
0.006542,0.074668,0.003904,0.077622,0.021939,0.0091705,-0.000005
0.007068,0.069144,0.004090,0.072652,0.022298,0.0104296,-0.000005
0.007509,0.063313,0.004272,0.066632,0.022954,0.0117743,-0.000005
0.007933,0.057774,0.004468,0.060302,0.023638,0.0130898,-0.000005
0.008331,0.051946,0.004660,0.054516,0.024489,0.0140892,-0.000005
0.008709,0.046163,0.004830,0.049100,0.025353,0.0148243,-0.000005
0.009070,0.040130,0.004988,0.043537,0.026734,0.0153608,-0.000005
0.009476,0.034730,0.005138,0.037337,0.028662,0.0158583,-0.000005
0.009949,0.029604,0.005248,0.032504,0.030732,0.0163838,0.002761
0.010225,0.024487,0.005336,0.028129,0.032593,0.0169952,0.002761
0.009761,0.019287,0.005302,0.025103,0.034916,0.0174927,0.002761
0.009102,0.015570,0.005206,0.022102,0.037874,0.0178172,0.002761
0.008488,0.012607,0.005070,0.020386,0.040594,0.0180399,0.000000
0.008153,0.010553,0.004894,0.019404,0.043289,0.0182865,0.000000
0.007699,0.008685,0.004700,0.018633,0.045670,0.0187194,0.000000
0.007209,0.007065,0.004490,0.017759,0.047874,0.0192806,0.000000
0.006678,0.005963,0.004280,0.017445,0.049795,0.0197992,0.000000
0.006325,0.005331,0.004079,0.017440,0.051085,0.0198771,0.000000
0.005821,0.004997,0.003857,0.016717,0.052565,0.0198344,0.000000
0.005262,0.004868,0.003637,0.016017,0.054544,0.0196330,0.000000
0.004691,0.004703,0.003486,0.015454,0.056398,0.0194044,0.000000
0.004274,0.004544,0.003380,0.014995,0.058134,0.0190900,0.000000
0.003956,0.004574,0.003311,0.014541,0.059977,0.0186692,0.000000
0.003705,0.004588,0.003263,0.014123,0.062705,0.0181397,0.000000
0.003459,0.004583,0.003204,0.013691,0.065275,0.0175665,0.000000
0.003339,0.004766,0.003141,0.013152,0.067679,0.0172346,0.000000
0.003261,0.004951,0.003096,0.012726,0.069753,0.0168619,0.000000
0.003306,0.005134,0.003056,0.012306,0.070839,0.0167142,0.000000
0.002901,0.005460,0.002977,0.011585,0.071610,0.0169653,0.000000
0.002428,0.005825,0.002900,0.010948,0.072283,0.0172802,0.000000
0.002141,0.006114,0.002839,0.010540,0.072412,0.0174297,0.000000
0.002023,0.006543,0.002804,0.009356,0.072228,0.0177417,0.000000
0.002023,0.006988,0.002788,0.008226,0.071154,0.0182247,0.000000
0.002023,0.007251,0.002767,0.007126,0.069739,0.0189864,0.000000
0.002023,0.007408,0.002754,0.006125,0.068150,0.0198140,0.000000
0.002023,0.007536,0.002733,0.005176,0.066615,0.0206100,0.000000
0.002023,0.007610,0.002736,0.004371,0.065081,0.0209717,0.000000
0.002023,0.007723,0.002734,0.003464,0.063643,0.0213794,0.000000
0.001810,0.007840,0.002717,0.002767,0.062067,0.0219315,0.000000
0.001733,0.007796,0.002685,0.002749,0.060153,0.0222106,0.000000
0.001733,0.007562,0.002659,0.002974,0.057970,0.0224307,0.000000
0.001733,0.007398,0.002631,0.003177,0.055893,0.0224909,0.000000
0.001561,0.007327,0.002590,0.003190,0.053951,0.0225977,0.000000
0.001353,0.007240,0.002542,0.003157,0.051703,0.0227513,0.000000
0.001163,0.007178,0.002485,0.003237,0.048588,0.0228784,0.000000
