"1 Chan 1","2 Chan 2","3 Chan 3","4 Chan 4","5 Chan 5","6 Chan 6","7 Chan 7"
0.007942,0.009563,0.0145638,0.017462,0.010198,0.004523,0.0065810
0.008324,0.009724,0.0144749,0.017088,0.009902,0.004343,0.0068212
0.008780,0.009896,0.0143982,0.016786,0.009608,0.004115,0.0070634
0.009274,0.010167,0.0143480,0.016480,0.009325,0.003862,0.0072431
0.009730,0.010544,0.0142934,0.016100,0.009035,0.003589,0.0074224
0.010172,0.010988,0.0141796,0.015816,0.008751,0.003314,0.0075639
0.010586,0.011458,0.0140429,0.015531,0.008475,0.003043,0.0076781
0.011005,0.011941,0.0139046,0.015252,0.008202,0.002773,0.0077346
0.011224,0.012608,0.0137353,0.015017,0.007918,0.002553,0.0077518
0.011383,0.013168,0.0135466,0.014708,0.007645,0.002344,0.0078479
0.011512,0.013436,0.0133239,0.014344,0.007398,0.002168,0.0079582
0.011493,0.013675,0.0130664,0.014049,0.007126,0.002078,0.0080263
0.011577,0.013934,0.0128094,0.013850,0.006828,0.001900,0.0080860
0.011449,0.014079,0.0125671,0.013754,0.006703,0.001770,0.0080947
0.011215,0.014084,0.0123940,0.013514,0.006707,0.001681,0.0081127
0.010979,0.014164,0.0123040,0.013371,0.006664,0.001590,0.0081087
0.010751,0.014159,0.0122669,0.013133,0.006592,0.001500,0.0080737
0.010615,0.014033,0.0122359,0.012857,0.006512,0.001518,0.0080466
0.010488,0.013908,0.0121629,0.012497,0.006472,0.001543,0.0080640
0.010421,0.013824,0.0121182,0.012161,0.006427,0.001602,0.0080697
0.010099,0.013831,0.0121060,0.011886,0.006385,0.001729,0.0081099
0.009603,0.013802,0.0120700,0.011636,0.006376,0.001993,0.0081890
0.009234,0.013625,0.0120615,0.011400,0.006354,0.002253,0.0082937
0.008811,0.013431,0.0119920,0.011262,0.006326,0.002561,0.0083709
0.008374,0.013141,0.0118415,0.011143,0.006314,0.002872,0.0084985
0.008000,0.012814,0.0117391,0.011144,0.006312,0.003117,0.0086660
0.007983,0.012346,0.0117635,0.011087,0.006307,0.003146,0.0089759
0.008164,0.011854,0.0117951,0.011041,0.006274,0.003184,0.0092952
0.008405,0.011300,0.0118087,0.011011,0.006209,0.003263,0.0095774
0.008922,0.010656,0.0118735,0.010860,0.006148,0.003344,0.0098239
0.009540,0.010128,0.0119347,0.010777,0.006066,0.003364,0.0099345
0.010204,0.009744,0.0120390,0.010674,0.005982,0.003351,0.0100250
0.011045,0.009445,0.0121482,0.010557,0.005889,0.003327,0.0101100
0.011791,0.009277,0.0122852,0.010389,0.005789,0.003464,0.0101217
0.012360,0.009158,0.0123284,0.010182,0.005668,0.003736,0.0101145
0.012541,0.009219,0.0122802,0.010049,0.005532,0.004178,0.0099442
0.012876,0.009154,0.0122162,0.009871,0.005481,0.004581,0.0097400
0.013135,0.009126,0.0121649,0.009681,0.005467,0.004977,0.0095970
0.013310,0.009163,0.0121564,0.009475,0.005471,0.005250,0.0094708
0.013658,0.009171,0.0121263,0.009319,0.005451,0.005493,0.0094094
0.013947,0.009152,0.0121043,0.009221,0.005412,0.005764,0.0093841
0.014187,0.009141,0.0121600,0.009047,0.005379,0.005969,0.0094259
0.014595,0.008996,0.0121928,0.008864,0.005372,0.005978,0.0095062
0.015041,0.008779,0.0124082,0.008650,0.005342,0.006114,0.0095622
0.015244,0.008680,0.0129125,0.008365,0.005257,0.006420,0.0095990
0.015199,0.008691,0.0134001,0.008100,0.005169,0.006748,0.0096751
0.015054,0.008419,0.0138039,0.007847,0.005055,0.007317,0.0099735
0.014493,0.008237,0.0140727,0.007580,0.004945,0.008170,0.0102329
0.013665,0.007968,0.0145289,0.007248,0.004829,0.009057,0.0105218
0.012787,0.007879,0.0150919,0.006822,0.004710,0.010067,0.0107355
0.011851,0.007836,0.0156178,0.006457,0.004562,0.011194,0.0108953
0.010867,0.007876,0.0161710,0.006053,0.004399,0.012342,0.0111834
0.009873,0.008004,0.0164472,0.005750,0.004316,0.013264,0.0115088
0.008864,0.008106,0.0166667,0.005483,0.004287,0.014038,0.0118337
0.007856,0.008154,0.0168889,0.005273,0.004281,0.014636,0.0121734
0.006987,0.008558,0.0173199,0.005019,0.004294,0.014970,0.0122408
0.006489,0.008690,0.0177491,0.004812,0.004329,0.015155,0.0124696
0.006017,0.008954,0.0178138,0.004755,0.004318,0.015429,0.0126583
0.005526,0.009475,0.0178585,0.004742,0.004303,0.015590,0.0128836
0.005023,0.010069,0.0178737,0.004770,0.004295,0.015695,0.0131839
0.004331,0.010572,0.0179157,0.004809,0.004327,0.015837,0.0133783
0.003755,0.011057,0.0179550,0.004790,0.004374,0.015950,0.0135490
0.003389,0.011704,0.0178153,0.004799,0.004370,0.016269,0.0136131
0.003011,0.012742,0.0178085,0.004753,0.004285,0.016712,0.0136384
0.002720,0.013578,0.0174708,0.004774,0.004240,0.016963,0.0138032
0.002683,0.014479,0.0169512,0.004884,0.004207,0.016993,0.0138965
0.002774,0.015264,0.0165859,0.005003,0.004202,0.016841,0.0140266
0.002902,0.016365,0.0162854,0.005091,0.004189,0.016531,0.0138549
0.003138,0.017528,0.0159575,0.005213,0.004160,0.016108,0.0135880
0.003438,0.018950,0.0154690,0.005407,0.004132,0.015649,0.0133387
0.003642,0.020329,0.0149282,0.005750,0.004104,0.015033,0.0131790
0.003769,0.021435,0.0144198,0.006114,0.004130,0.014100,0.0131639
0.004032,0.022287,0.0137613,0.006576,0.004188,0.013252,0.0129707
0.004308,0.023128,0.0133497,0.006988,0.004189,0.012625,0.0127226
0.004618,0.023917,0.0129703,0.007351,0.004172,0.012106,0.0124915
0.005500,0.024572,0.0125100,0.007612,0.004137,0.011733,0.0121765
0.006678,0.024539,0.0118521,0.007906,0.004174,0.011391,0.0121422
0.008250,0.024630,0.0112422,0.008150,0.004204,0.011119,0.0120383
0.009930,0.024727,0.0108883,0.008283,0.004249,0.010876,0.0119502
0.011649,0.024923,0.0104929,0.008344,0.004304,0.010780,0.0117678
0.013426,0.025048,0.0101652,0.008436,0.004346,0.010747,0.0115056
0.015210,0.025980,0.0098447,0.008463,0.004406,0.010658,0.0113043
0.017305,0.027726,0.0094157,0.008602,0.004424,0.010747,0.0111170
0.019814,0.030162,0.0090119,0.009455,0.004294,0.011197,0.0107543
0.022251,0.033078,0.0084156,0.010853,0.004227,0.011789,0.0102586
0.024708,0.036946,0.0079801,0.012665,0.004532,0.012784,0.0096651
0.027231,0.041124,0.0076901,0.014882,0.005189,0.013866,0.0091047
0.030149,0.045144,0.0071314,0.017512,0.005681,0.015418,0.0084406
0.033604,0.048448,0.0065427,0.020175,0.006450,0.017115,0.0078158
0.037738,0.051897,0.0060781,0.022735,0.007630,0.018746,0.0072096
0.041727,0.054757,0.0055428,0.025361,0.009515,0.020396,0.0065512
0.045428,0.057064,0.0050028,0.027872,0.011858,0.021948,0.0059074
0.048965,0.060275,0.0043442,0.030012,0.014788,0.023583,0.0052281
0.051596,0.063452,0.0038657,0.031638,0.018036,0.024791,0.0047838
0.054101,0.066499,0.0036053,0.033531,0.021548,0.026142,0.0043323
0.056309,0.069238,0.0035571,0.035154,0.024660,0.027275,0.0038197
0.057675,0.071069,0.0033098,0.036706,0.027708,0.028177,0.0033934
0.058882,0.073153,0.0031577,0.037755,0.030706,0.029033,0.0030812
0.059595,0.075302,0.0033010,0.038481,0.033991,0.029424,0.0029670
0.059785,0.077723,0.0036049,0.039212,0.037375,0.029555,0.0029483
0.059185,0.080540,0.0038183,0.039990,0.040340,0.029585,0.0030016
0.058271,0.083247,0.0039230,0.040832,0.043276,0.029770,0.0030825
0.057363,0.084728,0.0040936,0.041700,0.045704,0.029914,0.0032627
0.056114,0.085451,0.0043420,0.042519,0.047781,0.029973,0.0034317
0.054453,0.084049,0.0047305,0.042730,0.049467,0.029461,0.0038439
0.052794,0.081630,0.0052667,0.042466,0.051066,0.028699,0.0043257
0.050945,0.078180,0.0057289,0.041280,0.052093,0.027298,0.0048115
0.049072,0.074726,0.0059525,0.040877,0.052652,0.025626,0.0052329
0.046847,0.071639,0.0063059,0.040405,0.053568,0.023665,0.0056713
0.044040,0.069252,0.0066407,0.039896,0.054094,0.021516,0.0061148
0.039978,0.066776,0.0066190,0.039615,0.054102,0.019706,0.0064707
0.035993,0.064420,0.0065997,0.039265,0.053348,0.017931,0.0068414
0.032323,0.062644,0.0065690,0.038951,0.052139,0.016269,0.0071483
0.028850,0.059802,0.0066804,0.038991,0.050258,0.014650,0.0074096
0.026169,0.057016,0.0067853,0.039450,0.047970,0.013346,0.0074849
0.023548,0.054294,0.0067511,0.039624,0.045355,0.011849,0.0076237
0.021103,0.051833,0.0067458,0.039994,0.043032,0.010525,0.0077560
0.018938,0.050368,0.0069859,0.040439,0.040780,0.009356,0.0078748
0.016654,0.049015,0.0072243,0.041411,0.038398,0.008350,0.0079072
0.014462,0.047266,0.0071848,0.042489,0.035802,0.007750,0.0078279
0.012440,0.044952,0.0071699,0.042883,0.032871,0.007413,0.0077413
0.011204,0.041995,0.0072624,0.043170,0.030299,0.007194,0.0076472
0.010240,0.039053,0.0074558,0.043333,0.027775,0.006790,0.0075427
0.009251,0.036606,0.0075794,0.043454,0.025648,0.006492,0.0073724
0.008213,0.034073,0.0077290,0.043691,0.023915,0.006115,0.0071632
0.007081,0.032751,0.0077925,0.043932,0.022712,0.005763,0.0069009
0.005998,0.031609,0.0077433,0.044198,0.021655,0.005539,0.0067889
0.005060,0.031012,0.0077581,0.045350,0.020777,0.005549,0.0066431
0.004123,0.030050,0.0076825,0.045424,0.020046,0.005744,0.0066358
0.003296,0.029055,0.0075928,0.045187,0.019103,0.005885,0.0066540
0.002479,0.027956,0.0074802,0.045042,0.018361,0.006080,0.0067041
0.002123,0.026604,0.0075751,0.044339,0.017747,0.006115,0.0070192
0.001857,0.025529,0.0076382,0.043324,0.017294,0.006088,0.0073581
0.001630,0.024358,0.0078264,0.042362,0.016821,0.006037,0.0077282
0.001463,0.023421,0.0080104,0.041584,0.016337,0.006005,0.0081067
0.001305,0.022594,0.0081617,0.041015,0.015938,0.005974,0.0085213
0.001227,0.021920,0.0082803,0.040916,0.015503,0.005952,0.0088724
0.001214,0.021349,0.0082140,0.040974,0.015125,0.005950,0.0093243
0.001228,0.020933,0.0081844,0.040990,0.014726,0.005915,0.0097016
0.001217,0.020442,0.0081287,0.040574,0.014459,0.005908,0.0100336
0.001218,0.020179,0.0080837,0.040327,0.014143,0.005891,0.0103162
0.001215,0.020096,0.0079133,0.040834,0.014086,0.005837,0.0106085
0.001246,0.019870,0.0078530,0.041494,0.013958,0.005771,0.0108499
0.001300,0.019795,0.0078446,0.042124,0.013821,0.005747,0.0109762
0.001334,0.019783,0.0078164,0.042844,0.013640,0.005744,0.0111985
0.001407,0.019792,0.0076771,0.043471,0.013431,0.005722,0.0114375
0.001479,0.019883,0.0074895,0.043903,0.013258,0.005698,0.0116821
0.001595,0.020192,0.0073596,0.044543,0.012955,0.005616,0.0118170
0.001671,0.020343,0.0072444,0.044661,0.012668,0.005565,0.0119354
0.001677,0.020455,0.0072534,0.044468,0.012388,0.005571,0.0120412
0.001629,0.020418,0.0073784,0.044151,0.012052,0.005619,0.0121338
0.001625,0.020424,0.0075442,0.043824,0.011612,0.005637,0.0121963
0.001658,0.020518,0.0077730,0.043962,0.011172,0.005601,0.0121203
0.001673,0.020681,0.0081060,0.044388,0.010660,0.005590,0.0120280
0.001715,0.020834,0.0083550,0.044745,0.010174,0.005563,0.0119283
0.001765,0.021029,0.0085071,0.044946,0.009761,0.005533,0.0118693
0.001836,0.021260,0.0086977,0.045013,0.009330,0.005484,0.0116970
0.001928,0.021557,0.0088862,0.045131,0.008918,0.005427,0.0114383
0.002009,0.021803,0.0090428,0.045351,0.008541,0.005373,0.0112336
0.002032,0.021911,0.0091727,0.045635,0.008177,0.005365,0.0111453
0.002006,0.021844,0.0092680,0.045631,0.007848,0.005391,0.0111676
0.001970,0.021797,0.0093713,0.045624,0.007525,0.005425,0.0112045
0.001986,0.021796,0.0094621,0.045539,0.007180,0.005404,0.0111498
0.002023,0.021785,0.0094350,0.045412,0.006935,0.005358,0.0111208
0.002060,0.021645,0.0093243,0.045311,0.006726,0.005314,0.0112193
0.002167,0.021547,0.0092689,0.045117,0.006553,0.005198,0.0110794
0.002289,0.021522,0.0092287,0.044905,0.006406,0.005040,0.0108923
0.002424,0.021570,0.0092463,0.045159,0.006233,0.004869,0.0106187
0.002554,0.021478,0.0092604,0.045330,0.006160,0.004705,0.0103365
0.002650,0.021064,0.0092398,0.045213,0.006149,0.004574,0.0101878
0.002791,0.020602,0.0092206,0.045165,0.006118,0.004413,0.0099721
0.002999,0.020232,0.0091799,0.045275,0.006123,0.004197,0.0096572
0.003202,0.019908,0.0091411,0.045315,0.006201,0.003985,0.0092967
0.003417,0.019775,0.0091101,0.045238,0.006254,0.003764,0.0088910
0.003685,0.019576,0.0089884,0.045121,0.006279,0.003593,0.0084802
0.003941,0.019341,0.0088049,0.045013,0.006299,0.003481,0.0081821
0.004147,0.019124,0.0086599,0.044927,0.006308,0.003417,0.0079059
0.004281,0.018894,0.0085692,0.044842,0.006339,0.003413,0.0077273
0.004329,0.018392,0.0084797,0.044074,0.006449,0.003494,0.0076832
0.004265,0.017880,0.0085863,0.042674,0.006546,0.003658,0.0075906
0.004209,0.017412,0.0087489,0.041108,0.006609,0.003814,0.0074655
0.004212,0.017188,0.0089580,0.040107,0.006574,0.003927,0.0072314
0.004200,0.017023,0.0092076,0.039104,0.006559,0.004038,0.0069678
0.004116,0.016754,0.0096545,0.037880,0.006558,0.004231,0.0067369
0.004011,0.016486,0.0104217,0.036485,0.006549,0.004519,0.0064456
0.003931,0.016174,0.0113400,0.035121,0.006504,0.004912,0.0060837
0.003911,0.015638,0.0123460,0.033793,0.006579,0.005284,0.0058507
0.003923,0.015023,0.0136769,0.032378,0.006661,0.005677,0.0056164
0.004109,0.014472,0.0151045,0.030524,0.006768,0.006109,0.0053278
0.004467,0.013874,0.0164884,0.028364,0.006804,0.006571,0.0050784
0.004920,0.013516,0.0178609,0.026561,0.006765,0.006975,0.0047860
0.005493,0.013100,0.0190637,0.024848,0.006748,0.007341,0.0046147
0.006273,0.012466,0.0201838,0.023087,0.006765,0.007756,0.0045526
0.007440,0.011694,0.0214771,0.021295,0.006711,0.008086,0.0045768
0.008885,0.010823,0.0225568,0.019590,0.006645,0.008235,0.0046751
0.010315,0.009996,0.0233796,0.018033,0.006598,0.008175,0.0048166
0.011969,0.009218,0.0242079,0.016531,0.006523,0.007987,0.0049076
0.013749,0.008454,0.0249918,0.015047,0.006427,0.007772,0.0050029
0.015272,0.007665,0.0256573,0.013459,0.006380,0.007548,0.0051582
0.016787,0.006964,0.0262912,0.012029,0.006330,0.007286,0.0052458
0.018387,0.006252,0.0267218,0.011050,0.006322,0.006929,0.0053015
0.019802,0.005498,0.0270750,0.010233,0.006365,0.006558,0.0053404
0.020926,0.004844,0.0272924,0.009603,0.006443,0.006181,0.0053693
0.022010,0.004207,0.0275296,0.008955,0.006494,0.005797,0.0054168
0.023108,0.003807,0.0275768,0.008577,0.006507,0.005360,0.0054414
0.023692,0.003760,0.0272189,0.008328,0.006481,0.004958,0.0054605
0.024055,0.003871,0.0266102,0.008107,0.006500,0.004445,0.0054799
0.024240,0.004103,0.0258907,0.007921,0.006479,0.004026,0.0054922
0.024307,0.004304,0.0249155,0.007793,0.006432,0.003672,0.0055467
0.024128,0.004480,0.0238894,0.007714,0.006364,0.003310,0.0057630
0.023753,0.004840,0.0229371,0.007753,0.006278,0.002925,0.0059546
0.023320,0.005248,0.0219297,0.007865,0.006211,0.002557,0.0061193
0.022738,0.005789,0.0210753,0.008027,0.006084,0.002249,0.0062900
0.022165,0.006446,0.0203727,0.008091,0.005917,0.001932,0.0064676
0.021230,0.007499,0.0195945,0.008261,0.005782,0.001681,0.0065759
0.020058,0.008456,0.0189780,0.008390,0.005665,0.001600,0.0066513
0.018869,0.009417,0.0186751,0.008424,0.005537,0.001667,0.0066777
0.017503,0.010313,0.0183734,0.008456,0.005492,0.001810,0.0066628
0.016059,0.011237,0.0180482,0.008408,0.005507,0.001962,0.0066105
0.014978,0.012024,0.0177119,0.008507,0.005534,0.002070,0.0065566
0.013918,0.013046,0.0174356,0.008615,0.005567,0.002184,0.0065351
0.012835,0.013935,0.0171997,0.008725,0.005638,0.002242,0.0065168
0.011721,0.014811,0.0168301,0.008850,0.005724,0.002388,0.0064713
0.010859,0.015439,0.0166078,0.008869,0.005816,0.002545,0.0064932
0.010046,0.016122,0.0163273,0.009031,0.005890,0.002715,0.0064893
0.009313,0.016824,0.0160557,0.009136,0.005949,0.002959,0.0064954
0.009120,0.017262,0.0158900,0.009288,0.006074,0.003084,0.0065582
0.009140,0.017745,0.0159245,0.009439,0.006070,0.003197,0.0066832
0.009167,0.018128,0.0159696,0.009483,0.006058,0.003333,0.0068710
0.009316,0.018397,0.0159664,0.009570,0.006027,0.003402,0.0070802
0.009512,0.018963,0.0158985,0.009650,0.005991,0.003633,0.0071951
0.009872,0.019440,0.0158355,0.009786,0.005986,0.003781,0.0073498
0.010378,0.019802,0.0158807,0.009881,0.005959,0.003861,0.0074777
0.010932,0.020125,0.0159177,0.009928,0.006019,0.003948,0.0075191
0.011164,0.020392,0.0158846,0.009985,0.006067,0.003999,0.0075675
0.011301,0.020352,0.0157522,0.009935,0.006098,0.004274,0.0076796
0.011389,0.020306,0.0155808,0.009879,0.006148,0.004562,0.0078185
0.011422,0.020376,0.0154088,0.009777,0.006162,0.004917,0.0078701
0.011704,0.020319,0.0152604,0.009595,0.006137,0.005231,0.0079720
0.011891,0.019978,0.0151622,0.009507,0.006125,0.005477,0.0082082
0.011820,0.019723,0.0150060,0.009251,0.006054,0.005920,0.0084914
0.011700,0.019319,0.0148737,0.008998,0.005882,0.006564,0.0087965
0.011463,0.019394,0.0148946,0.008747,0.005624,0.007474,0.0092249
0.011466,0.019542,0.0150635,0.008525,0.005369,0.008247,0.0096675
0.011489,0.019872,0.0152942,0.008312,0.005092,0.008968,0.0099932
0.011237,0.019999,0.0158986,0.007989,0.004785,0.010050,0.0104705
0.010872,0.020348,0.0165298,0.007607,0.004458,0.011103,0.0109841
0.010480,0.020694,0.0171282,0.007219,0.004103,0.012039,0.0114443
0.010087,0.021203,0.0176537,0.006755,0.003812,0.012952,0.0118190
0.009753,0.021842,0.0181467,0.006436,0.003524,0.013729,0.0122131
0.009313,0.022403,0.0184881,0.006129,0.003317,0.014320,0.0127572
0.008841,0.022334,0.0187397,0.005881,0.003168,0.014717,0.0134880
0.008227,0.022121,0.0188420,0.005681,0.003010,0.015244,0.0144890
0.007464,0.022232,0.0185964,0.005601,0.002899,0.015814,0.0154851
0.006666,0.022497,0.0182368,0.005638,0.002761,0.016214,0.0162880
0.005938,0.022725,0.0178549,0.005762,0.002660,0.016552,0.0170686
0.005277,0.023025,0.0174147,0.005947,0.002564,0.016754,0.0178509
0.004722,0.023997,0.0169962,0.006178,0.002435,0.016948,0.0185361
0.004147,0.024446,0.0164079,0.006576,0.002383,0.017176,0.0196906
0.003385,0.024858,0.0157254,0.007057,0.002313,0.017570,0.0207784
0.002903,0.025936,0.0150753,0.007400,0.002175,0.018015,0.0213941
0.002479,0.026583,0.0144896,0.007882,0.001991,0.018407,0.0223898
0.002021,0.026926,0.0138207,0.008369,0.001968,0.018503,0.0235594
0.001838,0.026922,0.0129932,0.008930,0.001974,0.018395,0.0246129
0.001778,0.026875,0.0121753,0.009573,0.001913,0.018399,0.0259515
0.001744,0.026824,0.0112598,0.010367,0.001863,0.018422,0.0274223
0.001978,0.026135,0.0099583,0.011285,0.001881,0.018087,0.0288880
0.002487,0.025643,0.0087584,0.012203,0.001883,0.017642,0.0299822
0.002978,0.025096,0.0076250,0.013139,0.001944,0.017198,0.0311072
0.003512,0.023916,0.0063960,0.014174,0.002049,0.016892,0.0323527
0.004357,0.023277,0.0053092,0.015037,0.002119,0.016581,0.0328859
0.005282,0.022649,0.0044167,0.015848,0.002144,0.016498,0.0332489
0.006110,0.022424,0.0035130,0.016492,0.002191,0.016550,0.0334250
0.007097,0.022173,0.0026666,0.016942,0.002242,0.016684,0.0330622
0.008194,0.021472,0.0021606,0.017188,0.002307,0.016833,0.0325368
0.009438,0.020618,0.0017860,0.017183,0.002339,0.017104,0.0320673
0.010582,0.019786,0.0014349,0.017147,0.002412,0.017331,0.0314751
0.011734,0.019247,0.0012348,0.017090,0.002479,0.017411,0.0306983
0.012668,0.018501,0.0012191,0.017055,0.002537,0.017322,0.0299001
0.013571,0.018410,0.0014292,0.016938,0.002560,0.017010,0.0287802
0.014377,0.018560,0.0017575,0.016778,0.002601,0.016523,0.0277393
0.015190,0.018194,0.0021772,0.016662,0.002657,0.015953,0.0270648
0.016536,0.018356,0.0027002,0.016431,0.002744,0.015415,0.0259131
0.018285,0.019035,0.0031196,0.016229,0.002687,0.015320,0.0245118
0.020826,0.020118,0.0033887,0.016092,0.002552,0.015852,0.0230965
0.023404,0.021972,0.0037549,0.016186,0.002458,0.016652,0.0213819
0.026094,0.024211,0.0040843,0.016285,0.002371,0.017554,0.0195855
0.028646,0.027085,0.0046121,0.016095,0.002255,0.018597,0.0177960
0.031103,0.029478,0.0051048,0.016065,0.002231,0.019811,0.0162441
0.033858,0.031678,0.0055504,0.016057,0.002423,0.021262,0.0146363
0.036539,0.035968,0.0060626,0.015976,0.002756,0.023061,0.0127238
0.038715,0.040127,0.0066339,0.016589,0.003099,0.024914,0.0113872
0.041139,0.044433,0.0071857,0.017295,0.003515,0.026833,0.0100476
0.043134,0.048593,0.0079423,0.018179,0.004151,0.028357,0.0087811
0.044429,0.052974,0.0091734,0.019021,0.005318,0.029292,0.0077543
0.045401,0.057166,0.0106826,0.019582,0.006823,0.030057,0.0068898
0.046318,0.060520,0.0123078,0.020794,0.008444,0.030812,0.0061810
0.047332,0.063693,0.0141497,0.021965,0.010027,0.031701,0.0055943
0.048421,0.066535,0.0158664,0.023117,0.011669,0.032658,0.0051486
0.049451,0.068916,0.0174893,0.024277,0.013662,0.033872,0.0047598
0.050488,0.071018,0.0189747,0.025322,0.015807,0.035240,0.0042992
0.051530,0.073553,0.0204628,0.026407,0.017972,0.036568,0.0037951
0.052326,0.076798,0.0217605,0.027517,0.020070,0.038013,0.0032700
0.052730,0.079055,0.0230998,0.029202,0.022228,0.038965,0.0027828
0.052701,0.080117,0.0244051,0.030668,0.024924,0.039467,0.0023731
0.051417,0.080490,0.0259127,0.031819,0.027752,0.039134,0.0020095
0.049588,0.080169,0.0275980,0.032436,0.030652,0.038658,0.0016777
0.047617,0.079259,0.0290520,0.033046,0.033224,0.038144,0.0013887
0.045842,0.078546,0.0300608,0.033992,0.035617,0.037907,0.0009067
0.043918,0.077433,0.0307520,0.034252,0.038035,0.037872,0.0005997
0.041739,0.076973,0.0311165,0.034506,0.040224,0.037673,0.0004013
0.039565,0.074928,0.0314973,0.034847,0.042188,0.036980,0.0004524
0.037959,0.072694,0.0314378,0.034594,0.043986,0.036047,0.0005662
0.036170,0.069892,0.0314146,0.034247,0.045946,0.035031,0.0006913
0.034863,0.067179,0.0313493,0.034431,0.047570,0.034215,0.0007360
0.033919,0.064107,0.0308625,0.034945,0.048683,0.033781,0.0008689
0.032838,0.061131,0.0299987,0.035633,0.049378,0.033469,0.0011179
0.031526,0.059298,0.0289051,0.035933,0.049587,0.033262,0.0012883
0.030088,0.057866,0.0278802,0.036321,0.049642,0.033301,0.0013114
0.028819,0.056186,0.0266236,0.036866,0.049547,0.033106,0.0013746
0.027702,0.054285,0.0253776,0.037349,0.049119,0.032705,0.0014424
0.026687,0.052643,0.0239824,0.037951,0.048511,0.031911,0.0016271
0.025412,0.050897,0.0227727,0.038401,0.047882,0.030869,0.0018977
0.023931,0.048277,0.0221204,0.038697,0.047228,0.029957,0.0020884
0.022473,0.046516,0.0213834,0.038391,0.046575,0.029432,0.0022613
0.021098,0.045277,0.0207774,0.038322,0.045714,0.028998,0.0024368
0.019972,0.044641,0.0201506,0.038419,0.044542,0.028733,0.0025280
0.019358,0.043867,0.0192934,0.038326,0.043354,0.028176,0.0027060
0.018923,0.042522,0.0187458,0.037767,0.042461,0.027510,0.0029846
0.018462,0.041045,0.0184800,0.037528,0.041699,0.026335,0.0032225
0.017957,0.039780,0.0184558,0.037586,0.041052,0.024823,0.0034424
0.017480,0.038055,0.0184402,0.037591,0.040518,0.023159,0.0036795
0.016928,0.036282,0.0183685,0.037623,0.040063,0.021511,0.0039049
0.015949,0.034348,0.0185131,0.037715,0.039782,0.020168,0.0041706
0.014838,0.032860,0.0186262,0.037883,0.039188,0.018931,0.0044819
0.013757,0.030850,0.0186502,0.037423,0.038570,0.017686,0.0049302
0.013043,0.028964,0.0182964,0.036922,0.037992,0.016334,0.0053511
0.012484,0.027395,0.0182498,0.036553,0.037530,0.015108,0.0056373
0.011907,0.025634,0.0182775,0.036044,0.037217,0.013912,0.0060306
0.011483,0.023731,0.0179151,0.035487,0.036955,0.012625,0.0065706
0.010842,0.022034,0.0177708,0.035162,0.036552,0.011712,0.0070996
0.009970,0.020923,0.0175278,0.035073,0.036004,0.011099,0.0074406
0.009059,0.019509,0.0175065,0.034588,0.035527,0.010859,0.0076904
0.008413,0.017890,0.0172851,0.034110,0.034889,0.010943,0.0078648
0.008026,0.016548,0.0165990,0.033768,0.034275,0.010864,0.0081267
0.007577,0.015249,0.0158673,0.033420,0.033558,0.010773,0.0084461
0.007210,0.014312,0.0151577,0.033019,0.032468,0.010682,0.0087258
0.006921,0.013056,0.0144108,0.032596,0.031725,0.010584,0.0090864
0.006531,0.011915,0.0137503,0.032723,0.030836,0.010552,0.0093097
0.005958,0.011596,0.0131886,0.033591,0.029885,0.010582,0.0093557
0.005560,0.011226,0.0123246,0.034227,0.028839,0.010571,0.0095715
0.005256,0.010978,0.0114431,0.035217,0.027629,0.010580,0.0097730
0.004901,0.010919,0.0109451,0.037082,0.026184,0.010648,0.0098536
0.004581,0.010800,0.0105578,0.038775,0.024793,0.010630,0.0098944
0.004242,0.010470,0.0101891,0.040211,0.023521,0.010573,0.0100119
0.003876,0.010271,0.0098544,0.041577,0.022289,0.010440,0.0101242
0.003534,0.010563,0.0095450,0.043371,0.021112,0.010414,0.0101634
0.003057,0.011075,0.0096341,0.045228,0.019824,0.010562,0.0101779
0.002794,0.011754,0.0095131,0.047150,0.018369,0.010653,0.0102660
0.002774,0.012344,0.0094645,0.049908,0.017060,0.010584,0.0102829
0.002789,0.013147,0.0095485,0.053004,0.015679,0.010308,0.0101921
0.002751,0.013965,0.0096018,0.055755,0.014568,0.009933,0.0101184
0.003020,0.014462,0.0095048,0.058035,0.013666,0.009354,0.0103404
0.003327,0.015150,0.0093872,0.060584,0.012748,0.008737,0.0105156
0.003676,0.015889,0.0092878,0.063436,0.011909,0.008086,0.0106086
0.004010,0.016574,0.0092007,0.066034,0.011128,0.007440,0.0106732
0.004346,0.017232,0.0091120,0.068556,0.010348,0.006797,0.0107398
0.004663,0.017836,0.0090256,0.071024,0.009597,0.006169,0.0108629
0.005036,0.018556,0.0089581,0.073431,0.008742,0.005559,0.0108991
0.005389,0.019207,0.0087648,0.075314,0.008016,0.004991,0.0109896
0.005735,0.019687,0.0084292,0.076664,0.007407,0.004442,0.0111039
0.005914,0.020233,0.0083875,0.077937,0.006955,0.003982,0.0110531
0.006003,0.020622,0.0083112,0.078641,0.006548,0.003612,0.0110921
0.006050,0.020652,0.0081613,0.077897,0.006312,0.003408,0.0112395
0.006174,0.020801,0.0080101,0.077172,0.005974,0.003292,0.0112904
0.006365,0.021062,0.0078830,0.076552,0.005540,0.003178,0.0111898
0.006543,0.021355,0.0078833,0.075851,0.005082,0.003082,0.0110161
0.006654,0.021462,0.0079776,0.074605,0.004673,0.003034,0.0108662
0.006581,0.021360,0.0082268,0.072537,0.004389,0.003096,0.0107188
0.006469,0.021068,0.0085631,0.070395,0.004204,0.003179,0.0104313
0.006302,0.020814,0.0089061,0.067429,0.004124,0.003280,0.0100953
0.006110,0.020336,0.0093912,0.064212,0.004156,0.003438,0.0098373
0.005836,0.019759,0.0102169,0.060828,0.004165,0.003642,0.0095106
0.005516,0.019232,0.0112777,0.057595,0.004116,0.003848,0.0090824
0.005204,0.018550,0.0123832,0.054284,0.004081,0.004072,0.0086941
0.004917,0.017694,0.0135476,0.050690,0.004149,0.004320,0.0082934
0.004619,0.016867,0.0149054,0.047261,0.004263,0.004573,0.0078455
0.004351,0.016099,0.0163364,0.043884,0.004437,0.004818,0.0073683
0.004304,0.015247,0.0178038,0.040548,0.004728,0.004986,0.0069123
0.004522,0.014103,0.0192915,0.037206,0.005082,0.005041,0.0065840
0.004826,0.012950,0.0206967,0.034217,0.005394,0.005055,0.0062805
0.005300,0.011856,0.0218742,0.031306,0.005690,0.004966,0.0061032
0.005707,0.010891,0.0230308,0.028246,0.005940,0.004922,0.0060348
0.006183,0.010038,0.0238965,0.025507,0.006212,0.004801,0.0059094
0.006811,0.009386,0.0246715,0.023362,0.006405,0.004730,0.0057265
0.007535,0.008639,0.0253993,0.021289,0.006548,0.004676,0.0056575
0.008367,0.007878,0.0259630,0.019349,0.006627,0.004708,0.0056814
0.008981,0.007209,0.0263316,0.017471,0.006719,0.004787,0.0057171
0.009475,0.006725,0.0265638,0.015770,0.006810,0.004878,0.0057548
0.010018,0.006366,0.0266222,0.014719,0.006840,0.004922,0.0057677
0.010600,0.006020,0.0266243,0.013751,0.006840,0.004933,0.0058451
0.011216,0.005616,0.0265639,0.012862,0.006809,0.004942,0.0060605
0.011748,0.005412,0.0263379,0.011905,0.006773,0.004883,0.0063210
0.012150,0.005411,0.0258234,0.011173,0.006745,0.004710,0.0066064
0.012439,0.005540,0.0252719,0.010570,0.006737,0.004465,0.0068656
0.012783,0.005928,0.0247317,0.010128,0.006713,0.004179,0.0071395
0.013025,0.006556,0.0241105,0.009893,0.006592,0.003949,0.0075261
0.013310,0.007299,0.0232491,0.009809,0.006455,0.003674,0.0079908
0.013618,0.008152,0.0223156,0.009813,0.006325,0.003368,0.0084363
0.013737,0.009190,0.0214051,0.009977,0.006110,0.003093,0.0088108
0.013569,0.010310,0.0204486,0.010275,0.005839,0.003070,0.0090785
0.013345,0.011422,0.0195817,0.010526,0.005586,0.003085,0.0093177
0.012944,0.012574,0.0189248,0.010791,0.005286,0.003231,0.0094790
0.012605,0.013479,0.0182490,0.011027,0.005024,0.003378,0.0095898
0.012297,0.014068,0.0179863,0.011286,0.004726,0.003563,0.0096532
0.012106,0.014525,0.0178300,0.011551,0.004450,0.003616,0.0097071
0.011986,0.014826,0.0176557,0.011761,0.004235,0.003808,0.0097413
0.012080,0.015059,0.0175901,0.011821,0.004096,0.004095,0.0096953
0.012943,0.015021,0.0176899,0.011740,0.004050,0.004085,0.0097543
0.014107,0.014809,0.0178632,0.011581,0.004018,0.003906,0.0098889
0.015359,0.014592,0.0180593,0.011424,0.003992,0.003666,0.0100948
0.016596,0.014346,0.0182559,0.011231,0.003995,0.003462,0.0103082
0.017611,0.014087,0.0186194,0.011010,0.003991,0.003555,0.0103338
0.018556,0.013751,0.0189827,0.010700,0.004020,0.003698,0.0103370
0.019588,0.013372,0.0193735,0.010291,0.004026,0.003972,0.0103254
0.020545,0.012830,0.0197672,0.009811,0.004024,0.004255,0.0103695
0.021096,0.012123,0.0200700,0.009400,0.004002,0.004556,0.0103698
0.021409,0.011225,0.0202760,0.008884,0.004094,0.004964,0.0102741
0.021716,0.010356,0.0205171,0.008304,0.004168,0.005385,0.0100963
0.021861,0.009328,0.0209220,0.007708,0.004184,0.005907,0.0099978
0.022003,0.008255,0.0210250,0.007045,0.004259,0.006231,0.0100450
0.021999,0.007156,0.0211887,0.006373,0.004382,0.006521,0.0101348
0.021811,0.006037,0.0213352,0.005763,0.004514,0.006803,0.0102600
0.021647,0.004805,0.0214974,0.005299,0.004701,0.007027,0.0104267
0.021572,0.003743,0.0216865,0.004885,0.004855,0.007221,0.0106899
0.021587,0.003083,0.0218041,0.004604,0.004922,0.007405,0.0109070
0.021704,0.002551,0.0219490,0.004307,0.004954,0.007558,0.0111938
0.021776,0.002121,0.0220808,0.004033,0.005000,0.007781,0.0114647
0.021601,0.001771,0.0222087,0.003923,0.005037,0.007809,0.0117559
0.020974,0.001626,0.0221365,0.003977,0.005002,0.008017,0.0119596
0.020250,0.001599,0.0219124,0.004140,0.004945,0.008315,0.0121897
0.019349,0.001599,0.0218685,0.004195,0.004887,0.008587,0.0123155
0.018242,0.001599,0.0216836,0.004298,0.004778,0.009239,0.0123435
0.017296,0.001599,0.0213433,0.004406,0.004732,0.009682,0.0125089
0.015993,0.001524,0.0213494,0.004452,0.004659,0.010418,0.0125867
0.014541,0.001522,0.0215511,0.004443,0.004561,0.011036,0.0126743
0.013269,0.001597,0.0218306,0.004418,0.004420,0.011677,0.0127045
0.012346,0.001785,0.0222453,0.004265,0.004226,0.012326,0.0127045
0.011689,0.001958,0.0227857,0.004098,0.003998,0.012832,0.0127121
0.010999,0.001951,0.0235630,0.003947,0.003743,0.013424,0.0127298
0.010428,0.001912,0.0239666,0.003815,0.003538,0.014048,0.0128763
0.009819,0.001669,0.0247413,0.003611,0.003320,0.014929,0.0131024
0.009367,0.001547,0.0254035,0.003385,0.003054,0.015625,0.0133968
0.009069,0.001461,0.0260337,0.003159,0.002768,0.016294,0.0136359
0.008783,0.001503,0.0263890,0.002940,0.002464,0.017091,0.0138000
0.008396,0.001596,0.0266238,0.002776,0.002191,0.017869,0.0138838
0.007890,0.001638,0.0270590,0.002569,0.001969,0.018730,0.0139664
0.007056,0.001742,0.0272315,0.002460,0.001765,0.019643,0.0139725
0.006086,0.001980,0.0275292,0.002387,0.001557,0.020199,0.0138914
0.005047,0.002472,0.0278304,0.002286,0.001412,0.020500,0.0136733
0.003936,0.003167,0.0280333,0.002179,0.001349,0.020754,0.0133469
0.002915,0.003917,0.0282108,0.002051,0.001267,0.021140,0.0128608
0.002229,0.004649,0.0281541,0.002047,0.001223,0.021487,0.0124533
0.001803,0.005373,0.0281416,0.002070,0.001201,0.021443,0.0121588
0.001493,0.006009,0.0279734,0.002245,0.001201,0.021242,0.0118548
0.001704,0.006532,0.0273161,0.002614,0.001305,0.020670,0.0117402
0.002272,0.006963,0.0264463,0.003034,0.001438,0.020087,0.0116304
0.002840,0.007382,0.0255331,0.003460,0.001558,0.019614,0.0114637
0.003351,0.007596,0.0245813,0.003909,0.001721,0.019146,0.0113284
0.003899,0.007737,0.0235731,0.004359,0.001874,0.018735,0.0112773
0.004383,0.007869,0.0223473,0.004764,0.002061,0.018209,0.0112410
0.004836,0.008070,0.0213804,0.005113,0.002250,0.017594,0.0109778
0.005283,0.008639,0.0202444,0.005392,0.002434,0.016999,0.0105042
0.005912,0.009399,0.0190313,0.005643,0.002601,0.016562,0.0098073
0.006528,0.010179,0.0178141,0.005921,0.002776,0.016218,0.0091721
0.007137,0.010889,0.0167942,0.006171,0.002971,0.015744,0.0085693
0.007887,0.011592,0.0157341,0.006465,0.003169,0.015389,0.0080290
0.008618,0.013399,0.0143727,0.006890,0.003420,0.015000,0.0075605
0.009337,0.016165,0.0131532,0.007374,0.003636,0.014860,0.0072093
0.010829,0.019475,0.0118327,0.008384,0.003636,0.015419,0.0069368
0.012614,0.023284,0.0105551,0.009540,0.003590,0.016605,0.0067929
0.014529,0.027286,0.0094884,0.011518,0.003687,0.018059,0.0066631
0.016920,0.032573,0.0085726,0.013671,0.003743,0.020048,0.0063646
0.019804,0.038046,0.0078272,0.015876,0.003934,0.022034,0.0060516
0.022917,0.044375,0.0073166,0.017912,0.004213,0.024068,0.0057417
0.025808,0.049953,0.0069946,0.020006,0.004761,0.026139,0.0055004
0.028670,0.054626,0.0068294,0.021911,0.005693,0.028208,0.0050730
0.031052,0.058697,0.0067611,0.023356,0.007537,0.030129,0.0046828
0.033553,0.062314,0.0065361,0.024742,0.009608,0.031829,0.0043216
0.035983,0.065631,0.0062824,0.026307,0.011455,0.033214,0.0039730
0.038407,0.067850,0.0060515,0.027168,0.013859,0.033920,0.0038699
0.041149,0.070307,0.0056929,0.028049,0.016332,0.035277,0.0036569
0.043833,0.072998,0.0051026,0.028957,0.018751,0.036875,0.0034428
0.046127,0.075232,0.0044813,0.029958,0.021205,0.038492,0.0032322
0.047997,0.077236,0.0040019,0.031030,0.023700,0.040024,0.0031439
0.049863,0.079096,0.0035636,0.032051,0.026173,0.041471,0.0030342
0.051998,0.081892,0.0032069,0.032841,0.028606,0.042772,0.0029799
0.054182,0.084887,0.0029972,0.033483,0.031019,0.043913,0.0028532
0.056467,0.086809,0.0029078,0.034042,0.033380,0.045001,0.0026779
0.058881,0.087650,0.0029078,0.034486,0.035976,0.045903,0.0024022
0.060403,0.087629,0.0029078,0.034423,0.038602,0.046164,0.0022689
0.061611,0.086749,0.0030910,0.034229,0.040784,0.045830,0.0021663
0.062495,0.085543,0.0033897,0.033154,0.042681,0.045324,0.0021059
0.062383,0.083419,0.0038773,0.031890,0.044635,0.044065,0.0022836
0.061533,0.081602,0.0042237,0.030307,0.046447,0.042857,0.0024522
0.060415,0.079015,0.0043781,0.028474,0.048225,0.041659,0.0026562
0.059570,0.077320,0.0044558,0.026350,0.049688,0.040664,0.0027945
0.058920,0.076697,0.0044479,0.024318,0.050755,0.039822,0.0030254
0.058204,0.076557,0.0042420,0.022802,0.050802,0.039133,0.0032726
0.056805,0.076678,0.0041476,0.021402,0.050689,0.037994,0.0037867
0.055520,0.077104,0.0041077,0.019830,0.050989,0.036910,0.0042940
0.054285,0.078703,0.0040622,0.018961,0.050896,0.036446,0.0044398
0.052864,0.079705,0.0041502,0.018358,0.050717,0.035359,0.0047309
0.051554,0.080256,0.0044514,0.018137,0.050526,0.033979,0.0049727
0.050599,0.079873,0.0048286,0.018031,0.050273,0.032585,0.0051650
0.049899,0.079373,0.0052482,0.017945,0.049859,0.031156,0.0053816
0.049186,0.079155,0.0056206,0.017880,0.049284,0.029777,0.0055941
0.047971,0.078241,0.0060811,0.017943,0.048426,0.028626,0.0057975
0.046517,0.077097,0.0065356,0.018096,0.047699,0.027563,0.0060069
0.044904,0.076078,0.0069864,0.018197,0.046929,0.026537,0.0062335
0.043225,0.075241,0.0072987,0.018307,0.045893,0.025518,0.0064683
0.041724,0.074156,0.0075071,0.018391,0.045031,0.024558,0.0066581
0.040283,0.072370,0.0075395,0.018593,0.044461,0.023899,0.0068499
0.039007,0.070280,0.0074574,0.018859,0.043929,0.023247,0.0071080
0.037920,0.067876,0.0072210,0.019137,0.043423,0.022598,0.0074026
0.036644,0.064803,0.0069829,0.019666,0.042878,0.021933,0.0076936
0.035333,0.061602,0.0067922,0.020580,0.042198,0.021157,0.0079259
0.033868,0.058016,0.0066407,0.021631,0.041508,0.020246,0.0081963
0.032066,0.054264,0.0065294,0.022697,0.040627,0.019302,0.0084528
0.030649,0.050679,0.0065522,0.023706,0.039663,0.018356,0.0086566
0.029644,0.047277,0.0065895,0.024361,0.038681,0.018039,0.0086876
0.028620,0.043951,0.0065221,0.024738,0.037541,0.018057,0.0087729
0.027335,0.040790,0.0063747,0.025075,0.036176,0.018252,0.0089263
0.025805,0.038083,0.0061305,0.025171,0.034815,0.018582,0.0091507
0.024208,0.035489,0.0059134,0.025246,0.033448,0.018865,0.0094581
0.022688,0.034132,0.0056304,0.025363,0.032115,0.018935,0.0097791
0.021181,0.032971,0.0052377,0.025453,0.030810,0.018948,0.0101243
0.019649,0.031695,0.0048654,0.025609,0.029643,0.018836,0.0104874
0.018240,0.030098,0.0044704,0.025820,0.028793,0.018658,0.0108364
0.016762,0.028436,0.0042117,0.025983,0.027917,0.018500,0.0111951
0.015358,0.026600,0.0039871,0.026102,0.027196,0.018231,0.0115238
0.013903,0.024673,0.0039141,0.026221,0.026632,0.017845,0.0118133
0.012392,0.023044,0.0040537,0.026357,0.026023,0.017518,0.0120435
0.010839,0.022434,0.0043031,0.026698,0.025453,0.017197,0.0121630
0.009315,0.021950,0.0046046,0.027283,0.024912,0.016876,0.0121991
0.008004,0.021619,0.0049266,0.028310,0.024189,0.016587,0.0121022
0.006966,0.021395,0.0052411,0.029476,0.023439,0.016331,0.0120426
0.005942,0.021072,0.0055231,0.030693,0.022822,0.016131,0.0120385
0.004900,0.020974,0.0058126,0.031965,0.022172,0.015923,0.0120832
0.003986,0.020877,0.0061233,0.033342,0.021621,0.015637,0.0121465
0.003170,0.020681,0.0064481,0.034803,0.021275,0.015316,0.0121975
0.002505,0.020529,0.0068254,0.036606,0.020900,0.014974,0.0120839
0.001872,0.020259,0.0072559,0.038539,0.020506,0.014549,0.0118921
0.001421,0.019719,0.0077677,0.040461,0.020155,0.014008,0.0116954
0.001145,0.019247,0.0083477,0.042624,0.019754,0.013423,0.0113349
0.000979,0.019003,0.0089013,0.044894,0.019330,0.012877,0.0108663
0.000879,0.019072,0.0093994,0.047511,0.018896,0.012390,0.0103587
0.000830,0.019183,0.0098531,0.050176,0.018463,0.011969,0.0098516
0.000868,0.019330,0.0103166,0.052879,0.017973,0.011625,0.0093087
0.001050,0.019518,0.0107122,0.055548,0.017378,0.011284,0.0087285
0.001383,0.019777,0.0109028,0.058274,0.016658,0.010852,0.0081621
0.001714,0.019853,0.0109480,0.060879,0.015821,0.010410,0.0077567
0.002049,0.019955,0.0109425,0.063338,0.014810,0.010021,0.0074641
0.002338,0.020114,0.0108278,0.065301,0.013916,0.009662,0.0072710
0.002634,0.020141,0.0106322,0.066956,0.013086,0.009241,0.0071160
0.002903,0.020376,0.0104636,0.068280,0.012154,0.008836,0.0070526
0.003129,0.020422,0.0103297,0.069021,0.011364,0.008563,0.0070384
0.003364,0.020543,0.0102241,0.070050,0.010569,0.008292,0.0069694
0.003581,0.020765,0.0101003,0.071199,0.009697,0.008044,0.0069383
0.003779,0.021068,0.0099599,0.072310,0.008896,0.007828,0.0068715
0.004009,0.021476,0.0097933,0.073601,0.008135,0.007650,0.0067546
0.004211,0.021958,0.0096088,0.074969,0.007357,0.007496,0.0066812
0.004360,0.022312,0.0093724,0.076024,0.006651,0.007336,0.0068149
0.004434,0.022581,0.0091345,0.076781,0.006000,0.007226,0.0070399
0.004494,0.022683,0.0088962,0.077155,0.005386,0.007098,0.0073584
0.004541,0.022668,0.0086954,0.077194,0.004833,0.006920,0.0077793
0.004509,0.022543,0.0084891,0.076755,0.004353,0.006790,0.0083118
0.004344,0.022121,0.0084941,0.075760,0.003863,0.006789,0.0089201
0.004101,0.021542,0.0086970,0.074710,0.003493,0.006853,0.0095016
0.003825,0.020957,0.0090413,0.073395,0.003199,0.006941,0.0099797
0.003523,0.020431,0.0095384,0.071922,0.002992,0.007044,0.0104004
0.003190,0.019865,0.0102311,0.070405,0.002784,0.007209,0.0107537
0.002859,0.019519,0.0110775,0.068951,0.002586,0.007424,0.0109356
0.002524,0.019190,0.0119726,0.067563,0.002466,0.007628,0.0109648
0.002235,0.018976,0.0128487,0.066635,0.002284,0.007752,0.0108641
0.001939,0.018643,0.0136996,0.065123,0.002193,0.007890,0.0107994
0.001670,0.018266,0.0145808,0.063420,0.002230,0.007992,0.0106234
0.001444,0.017812,0.0155181,0.061559,0.002239,0.008080,0.0104215
0.001209,0.017272,0.0166191,0.058761,0.002304,0.008279,0.0102170
0.001157,0.016643,0.0179600,0.055475,0.002439,0.008433,0.0099393
0.001227,0.015957,0.0194085,0.052043,0.002531,0.008505,0.0095945
0.001539,0.015225,0.0208700,0.048289,0.002632,0.008491,0.0093119
0.002141,0.014350,0.0223307,0.044303,0.002777,0.008372,0.0090468
0.002939,0.013529,0.0236096,0.040520,0.002862,0.008252,0.0087148
0.004189,0.012737,0.0247118,0.037189,0.002937,0.007914,0.0083972
0.005666,0.012043,0.0258230,0.034354,0.003012,0.007542,0.0080304
0.007202,0.011340,0.0268177,0.031689,0.003097,0.007157,0.0076864
0.008564,0.010647,0.0275167,0.029106,0.003248,0.006767,0.0074013
0.009923,0.009951,0.0281304,0.026519,0.003403,0.006353,0.0072810
0.011165,0.009582,0.0287245,0.023897,0.003456,0.005927,0.0071720
0.012386,0.009100,0.0291049,0.021485,0.003544,0.005498,0.0072163
0.013465,0.008767,0.0294354,0.019221,0.003598,0.005056,0.0073240
0.014328,0.008640,0.0295443,0.017036,0.003648,0.004607,0.0075089
0.015133,0.008637,0.0294640,0.015103,0.003688,0.004164,0.0077036
0.015688,0.008802,0.0293230,0.013220,0.003699,0.003788,0.0079191
0.015966,0.008996,0.0292789,0.011332,0.003706,0.003558,0.0080226
0.016333,0.009105,0.0290873,0.010032,0.003704,0.003254,0.0081114
0.016776,0.009172,0.0288002,0.008975,0.003738,0.002951,0.0082348
0.017299,0.009135,0.0283035,0.008272,0.003882,0.002568,0.0083714
0.017786,0.009187,0.0276055,0.008024,0.004068,0.002096,0.0084918
0.018089,0.009205,0.0266617,0.008017,0.004253,0.001680,0.0086980
0.018374,0.009183,0.0256490,0.008066,0.004451,0.001283,0.0089933
0.018470,0.009081,0.0244382,0.008253,0.004706,0.000960,0.0092732
0.018253,0.009096,0.0231654,0.008537,0.004919,0.000847,0.0095107
0.017733,0.009136,0.0220668,0.008865,0.005094,0.000820,0.0097435
0.016747,0.009485,0.0211336,0.009251,0.005173,0.000994,0.0099234
0.015530,0.009936,0.0201994,0.009498,0.005219,0.001186,0.0101414
0.014345,0.010538,0.0193884,0.009633,0.005243,0.001316,0.0102566
0.013289,0.011173,0.0188296,0.009723,0.005211,0.001470,0.0102565
0.012283,0.011838,0.0182739,0.009824,0.005174,0.001610,0.0101143
0.011367,0.012328,0.0177057,0.009940,0.005221,0.001726,0.0100126
0.010546,0.012905,0.0172605,0.010101,0.005291,0.001809,0.0098509
0.009777,0.013052,0.0166726,0.010301,0.005419,0.001955,0.0098028
0.009371,0.012911,0.0162047,0.010362,0.005604,0.002046,0.0097848
0.009081,0.012498,0.0158679,0.010321,0.005857,0.002081,0.0097981
0.008991,0.011927,0.0155613,0.010280,0.006139,0.002108,0.0098464
0.009135,0.011353,0.0152042,0.010268,0.006387,0.002046,0.0100678
0.009182,0.010846,0.0149691,0.010256,0.006566,0.002071,0.0103470
0.009243,0.010259,0.0147428,0.010175,0.006668,0.002034,0.0107115
0.009445,0.009742,0.0146012,0.009967,0.006743,0.001994,0.0110317
0.009654,0.009319,0.0145892,0.009799,0.006732,0.001938,0.0113115
0.009857,0.009115,0.0146217,0.009677,0.006596,0.001838,0.0115886
0.009972,0.009018,0.0146150,0.009563,0.006453,0.001783,0.0118038
0.010011,0.009013,0.0147450,0.009376,0.006291,0.001763,0.0119858
0.010112,0.009032,0.0149275,0.009148,0.006164,0.001682,0.0121032
0.010395,0.008964,0.0151223,0.008961,0.006133,0.001539,0.0121626
0.010643,0.008839,0.0153279,0.008714,0.006135,0.001365,0.0121363
0.010917,0.008817,0.0154321,0.008576,0.006135,0.001352,0.0120069
0.010984,0.008814,0.0157413,0.008399,0.006115,0.001481,0.0118321
0.011145,0.008811,0.0159839,0.008249,0.006088,0.001790,0.0116881
0.011255,0.008543,0.0161800,0.008079,0.006084,0.002189,0.0116663
0.011198,0.008172,0.0166313,0.007793,0.006033,0.002851,0.0115581
0.010959,0.007834,0.0170206,0.007409,0.005924,0.003623,0.0114660
0.010649,0.007713,0.0173506,0.007059,0.005750,0.004462,0.0114280
0.010192,0.007660,0.0180667,0.006622,0.005488,0.005204,0.0113657
0.009678,0.007699,0.0184322,0.006303,0.005262,0.005936,0.0113614
0.009212,0.007631,0.0188761,0.005975,0.005054,0.006438,0.0115007
0.008790,0.007635,0.0193781,0.005604,0.004867,0.006876,0.0115190
0.008380,0.007797,0.0195207,0.005305,0.004747,0.007248,0.0115360
0.007941,0.008064,0.0196212,0.005116,0.004658,0.007698,0.0114592
0.007369,0.008511,0.0197584,0.005017,0.004539,0.008210,0.0112335
0.007024,0.008906,0.0193770,0.005086,0.004521,0.008611,0.0111098
0.006729,0.009312,0.0189589,0.005161,0.004585,0.009057,0.0108998
0.006505,0.009835,0.0185482,0.005194,0.004616,0.009639,0.0105625
0.006287,0.010427,0.0181822,0.005216,0.004590,0.010216,0.0102417
0.006189,0.010956,0.0177884,0.005309,0.004529,0.010812,0.0100509
0.006072,0.011494,0.0173823,0.005381,0.004395,0.011466,0.0099998
0.006064,0.012034,0.0169234,0.005441,0.004299,0.012022,0.0100172
0.006039,0.012440,0.0166468,0.005395,0.004226,0.012370,0.0100773
0.006069,0.012626,0.0162071,0.005414,0.004174,0.012657,0.0103040
0.006037,0.012709,0.0158406,0.005476,0.004166,0.012669,0.0105538
0.006031,0.013033,0.0154888,0.005601,0.004165,0.012612,0.0106615
0.006149,0.013446,0.0147570,0.005823,0.004213,0.012387,0.0107132
0.006287,0.013826,0.0140943,0.006063,0.004317,0.011945,0.0106709
0.006654,0.014047,0.0134814,0.006327,0.004452,0.011425,0.0105001
0.007042,0.014364,0.0123796,0.006791,0.004623,0.011130,0.0103336
0.007453,0.014908,0.0115812,0.007312,0.004663,0.010876,0.0101433
0.007796,0.015456,0.0107373,0.007839,0.004710,0.010794,0.0099021
0.008256,0.015845,0.0097119,0.008423,0.004782,0.010886,0.0097466
0.008705,0.016156,0.0091033,0.008909,0.004804,0.010976,0.0095615
0.009101,0.016466,0.0085354,0.009344,0.004828,0.011051,0.0094353
0.009357,0.016818,0.0079689,0.009714,0.004837,0.011047,0.0094670
0.009384,0.017170,0.0078804,0.009927,0.004768,0.011082,0.0094518
0.009405,0.017442,0.0078331,0.009997,0.004713,0.011053,0.0093401
0.009419,0.017614,0.0078174,0.010039,0.004653,0.010883,0.0092985
0.009454,0.017779,0.0078024,0.010047,0.004569,0.010740,0.0092793
0.009380,0.018007,0.0078235,0.009996,0.004473,0.010584,0.0091723
0.009604,0.018142,0.0077589,0.009974,0.004387,0.010548,0.0090176
0.009897,0.018535,0.0076523,0.009939,0.004301,0.010680,0.0089025
0.010543,0.019069,0.0073614,0.009936,0.004269,0.010936,0.0088552
0.011891,0.020799,0.0068497,0.009898,0.004129,0.011917,0.0086084
0.014259,0.023276,0.0063483,0.009879,0.003961,0.013215,0.0085358
0.017065,0.026868,0.0058488,0.009969,0.003719,0.015076,0.0086405
0.020166,0.030824,0.0054197,0.010689,0.003482,0.016757,0.0087643
0.023687,0.034539,0.0050583,0.011455,0.003245,0.018300,0.0089587
0.027358,0.038652,0.0047998,0.012275,0.003017,0.019752,0.0090364
0.030940,0.043071,0.0045896,0.013096,0.002925,0.021119,0.0090570
0.034796,0.047153,0.0048168,0.013702,0.002996,0.022130,0.0091129
0.038617,0.050230,0.0053328,0.014668,0.003176,0.023063,0.0092187
0.041929,0.052371,0.0060763,0.015655,0.003500,0.023333,0.0090999
0.045565,0.053437,0.0066831,0.016107,0.004785,0.024119,0.0089524
0.049182,0.054823,0.0071113,0.016532,0.006128,0.025221,0.0087197
0.053046,0.056399,0.0073016,0.017086,0.007707,0.026443,0.0085781
0.056812,0.058037,0.0075641,0.017564,0.009494,0.027890,0.0084008
0.060361,0.059317,0.0079427,0.018081,0.011301,0.029443,0.0083015
0.064082,0.060087,0.0084090,0.018599,0.013306,0.030887,0.0082734
0.068025,0.060713,0.0088139,0.019186,0.016071,0.032314,0.0082638
0.071386,0.060934,0.0092013,0.019830,0.019076,0.033477,0.0084294
0.074219,0.060580,0.0094370,0.020531,0.022339,0.034477,0.0087416
0.076769,0.059567,0.0094877,0.021446,0.025656,0.035481,0.0087145
0.078451,0.058517,0.0095496,0.022270,0.029031,0.036313,0.0085268
0.079449,0.056303,0.0098300,0.022709,0.032633,0.036400,0.0085628
0.079894,0.053817,0.0099297,0.023137,0.036304,0.036584,0.0083868
0.080061,0.050422,0.0099354,0.023449,0.040004,0.036359,0.0079970
0.079827,0.046644,0.0099354,0.023302,0.043095,0.036140,0.0076722
0.078786,0.042884,0.0100062,0.023546,0.046157,0.035977,0.0073648
0.077477,0.038338,0.0100426,0.023754,0.049258,0.035762,0.0071151
0.076302,0.033647,0.0099885,0.023950,0.052087,0.035631,0.0068530
0.074820,0.028930,0.0094934,0.024206,0.055018,0.035813,0.0065591
0.073640,0.025112,0.0086961,0.024095,0.057877,0.035997,0.0061827
0.072671,0.022224,0.0077794,0.023960,0.059888,0.036783,0.0060297
0.071042,0.020688,0.0070188,0.024321,0.060788,0.037027,0.0058530
0.069537,0.019167,0.0065176,0.024685,0.061612,0.036800,0.0056386
0.067811,0.017549,0.0064374,0.024844,0.062064,0.036375,0.0053580
0.066164,0.016442,0.0063199,0.024927,0.062182,0.035700,0.0051025
0.064527,0.015758,0.0062375,0.025055,0.062301,0.034871,0.0048833
0.062220,0.015313,0.0060939,0.025182,0.062285,0.034068,0.0046412
0.059312,0.014796,0.0062210,0.025225,0.061533,0.032830,0.0045173
0.057127,0.014768,0.0064665,0.025174,0.060367,0.031764,0.0043057
0.055206,0.015803,0.0068556,0.024572,0.059046,0.030623,0.0042054
0.053267,0.017664,0.0076173,0.023545,0.057620,0.029476,0.0044072
0.051533,0.019538,0.0086051,0.022576,0.056056,0.028232,0.0047583
0.049915,0.021433,0.0094632,0.022037,0.054131,0.026959,0.0050394
0.047618,0.023052,0.0104415,0.021448,0.052142,0.025495,0.0052707
0.045139,0.024407,0.0115182,0.020898,0.050210,0.023847,0.0055459
0.042806,0.025200,0.0126076,0.020258,0.048919,0.022319,0.0058194
0.040811,0.025996,0.0134814,0.019242,0.047443,0.021095,0.0060522
0.038811,0.027710,0.0141823,0.018483,0.045986,0.019970,0.0062619
0.036750,0.028927,0.0149799,0.018187,0.044643,0.018791,0.0064394
0.034806,0.030360,0.0156811,0.017975,0.043162,0.017712,0.0065852
0.032736,0.031745,0.0162932,0.017816,0.041653,0.016675,0.0067146
0.030757,0.033134,0.0169238,0.017587,0.040936,0.015439,0.0069388
0.028921,0.034129,0.0174566,0.017441,0.040311,0.014269,0.0073165
0.026635,0.034358,0.0178425,0.017461,0.039741,0.013384,0.0076464
0.024708,0.034051,0.0181001,0.017670,0.039444,0.012453,0.0080656
0.022857,0.032658,0.0182132,0.018191,0.039441,0.011642,0.0084823
0.021205,0.031037,0.0181402,0.018801,0.039539,0.011023,0.0088714
0.020003,0.029719,0.0179903,0.019486,0.039475,0.010460,0.0092803
0.019035,0.028742,0.0176183,0.020191,0.039356,0.010342,0.0095491
0.017810,0.027908,0.0171036,0.020868,0.039305,0.010366,0.0097451
0.016532,0.026973,0.0167011,0.021989,0.039011,0.010442,0.0096440
0.015507,0.025312,0.0162081,0.023501,0.038670,0.010455,0.0095499
0.014915,0.023310,0.0155911,0.025019,0.038444,0.010575,0.0094442
0.014348,0.021116,0.0150836,0.026473,0.038440,0.010598,0.0093641
0.013976,0.018980,0.0146578,0.027914,0.038343,0.010451,0.0093693
0.013662,0.017001,0.0142538,0.029292,0.038066,0.010310,0.0093867
0.013388,0.015461,0.0138812,0.030611,0.037710,0.010132,0.0093394
0.013281,0.014164,0.0135692,0.031841,0.037480,0.009833,0.0092700
0.013013,0.012575,0.0131877,0.032693,0.036935,0.009620,0.0092823
0.012737,0.011230,0.0126632,0.033005,0.036373,0.009377,0.0094825
0.012407,0.010317,0.0121659,0.033279,0.035408,0.009054,0.0096448
0.011984,0.009690,0.0117928,0.033951,0.034379,0.008695,0.0097815
0.011688,0.009142,0.0113937,0.035071,0.033263,0.008447,0.0098100
0.011589,0.008516,0.0110115,0.036237,0.032193,0.008242,0.0098119
0.011840,0.008143,0.0106932,0.037274,0.031080,0.007912,0.0099925
0.011771,0.008265,0.0102880,0.038175,0.029835,0.007739,0.0101187
0.011597,0.008906,0.0098842,0.038439,0.028368,0.007600,0.0103536
0.011232,0.009823,0.0094528,0.038532,0.026730,0.007450,0.0106438
0.010806,0.010652,0.0090301,0.038623,0.025136,0.007364,0.0109622
0.010468,0.011185,0.0085717,0.038917,0.023585,0.007294,0.0113952
0.010243,0.011601,0.0081524,0.039723,0.022110,0.007153,0.0118055
0.010047,0.011865,0.0077410,0.040698,0.020754,0.007005,0.0121528
0.009804,0.012327,0.0075041,0.041605,0.019397,0.006887,0.0123997
0.009374,0.013281,0.0075179,0.042593,0.017891,0.006815,0.0124115
0.008820,0.014399,0.0075628,0.043744,0.016362,0.006757,0.0123940
0.008322,0.015323,0.0075947,0.044703,0.014887,0.006692,0.0123666
0.007768,0.016029,0.0075834,0.045285,0.013546,0.006672,0.0123970
0.007205,0.016883,0.0075240,0.045839,0.012274,0.006640,0.0124716
0.006621,0.017749,0.0074465,0.046489,0.011060,0.006620,0.0125434
0.006239,0.018612,0.0075827,0.047182,0.010128,0.006506,0.0125628
0.005884,0.019492,0.0079247,0.047973,0.009235,0.006388,0.0124014
0.005512,0.019963,0.0084532,0.048817,0.008540,0.006281,0.0121777
0.005181,0.020442,0.0089657,0.049517,0.007836,0.006256,0.0118691
0.004856,0.021012,0.0095290,0.049880,0.007114,0.006206,0.0114338
0.004541,0.021752,0.0101331,0.050027,0.006401,0.006110,0.0109011
0.004173,0.022492,0.0106862,0.049736,0.005742,0.006055,0.0104170
0.003834,0.023023,0.0110898,0.049504,0.005109,0.005982,0.0099675
0.003646,0.023469,0.0113696,0.049578,0.004579,0.005801,0.0094579
0.003659,0.023800,0.0116144,0.049730,0.004135,0.005492,0.0089278
0.003726,0.024171,0.0118801,0.049845,0.003767,0.005152,0.0083560
0.003841,0.024597,0.0121989,0.049665,0.003465,0.004774,0.0076898
0.003923,0.024853,0.0125642,0.048962,0.003219,0.004425,0.0070285
0.003928,0.025007,0.0130595,0.048004,0.002995,0.004135,0.0064177
0.003957,0.024965,0.0134166,0.046903,0.002826,0.003843,0.0058897
0.004010,0.024646,0.0136184,0.045642,0.002747,0.003609,0.0055530
0.003947,0.024364,0.0140304,0.044057,0.002713,0.003610,0.0051965
0.003890,0.023939,0.0145355,0.042420,0.002785,0.003648,0.0048744
0.004066,0.023418,0.0151212,0.040810,0.002926,0.003620,0.0045287
0.004411,0.022811,0.0157771,0.039136,0.003034,0.003549,0.0042009
0.004848,0.022068,0.0165673,0.037345,0.003124,0.003492,0.0039351
0.005368,0.021287,0.0174269,0.035520,0.003195,0.003395,0.0036773
0.005938,0.020579,0.0183042,0.033591,0.003332,0.003293,0.0035615
0.006451,0.019830,0.0191562,0.031407,0.003613,0.003228,0.0036067
0.007196,0.018952,0.0198977,0.028866,0.003889,0.003211,0.0037934
0.008292,0.017805,0.0204945,0.026301,0.004195,0.003124,0.0042258
0.009557,0.016528,0.0207314,0.023961,0.004570,0.003002,0.0047371
0.010588,0.015488,0.0210370,0.021937,0.004856,0.002837,0.0052202
0.011484,0.014474,0.0212965,0.019932,0.005137,0.002710,0.0057361
0.012223,0.013465,0.0217166,0.018039,0.005341,0.002632,0.0062117
0.012992,0.012461,0.0222029,0.016264,0.005484,0.002570,0.0066084
0.013551,0.011431,0.0227100,0.014531,0.005679,0.002505,0.0069388
0.013854,0.010588,0.0231805,0.012995,0.005827,0.002447,0.0071946
0.014206,0.009950,0.0235302,0.011573,0.005890,0.002378,0.0074421
0.014800,0.009223,0.0236471,0.010332,0.005997,0.002263,0.0076881
0.015350,0.008705,0.0237097,0.009163,0.006096,0.002117,0.0079144
0.015983,0.008275,0.0236188,0.008192,0.006179,0.001929,0.0080914
0.016679,0.007908,0.0233639,0.007513,0.006273,0.001634,0.0082379
0.017303,0.007762,0.0229984,0.007021,0.006275,0.001352,0.0083597
0.017712,0.007760,0.0226176,0.006814,0.006218,0.001120,0.0084454
0.017878,0.007888,0.0222550,0.006676,0.006137,0.000914,0.0085525
0.017720,0.008228,0.0217198,0.006580,0.006043,0.000785,0.0086468
0.017411,0.008638,0.0210898,0.006578,0.005952,0.000741,0.0087223
0.016971,0.009018,0.0204787,0.006681,0.005799,0.000752,0.0087526
0.016621,0.009412,0.0197118,0.006869,0.005625,0.000721,0.0087434
0.016054,0.009771,0.0189815,0.007131,0.005515,0.000638,0.0087090
0.015064,0.010253,0.0182635,0.007462,0.005375,0.000697,0.0086364
0.013820,0.010911,0.0178047,0.007717,0.005149,0.000848,0.0085639
0.012830,0.011358,0.0172904,0.008109,0.005024,0.001018,0.0084596
0.011901,0.011750,0.0169428,0.008460,0.004899,0.001228,0.0083208
0.011052,0.012158,0.0165249,0.008812,0.004883,0.001437,0.0081397
0.010150,0.012554,0.0161560,0.009110,0.004881,0.001667,0.0080055
0.009418,0.013038,0.0158122,0.009386,0.004807,0.001905,0.0079474
0.009051,0.013340,0.0155046,0.009513,0.004776,0.002054,0.0079390
0.008645,0.013529,0.0152913,0.009664,0.004834,0.002216,0.0079160
0.008070,0.013814,0.0151644,0.009773,0.004845,0.002383,0.0078672
0.007610,0.014098,0.0150829,0.009805,0.004881,0.002488,0.0078295
0.007089,0.014314,0.0151063,0.009811,0.004831,0.002625,0.0079206
0.006651,0.014427,0.0150431,0.009688,0.004756,0.002759,0.0081218
0.006566,0.014304,0.0149877,0.009607,0.004768,0.002722,0.0083362
0.006497,0.014191,0.0148792,0.009591,0.004808,0.002673,0.0085446
0.006575,0.013931,0.0146754,0.009504,0.004875,0.002719,0.0087704
0.007027,0.013549,0.0143851,0.009458,0.004941,0.002813,0.0089726
0.007484,0.013208,0.0141574,0.009357,0.004951,0.002898,0.0092081
0.008023,0.012860,0.0138173,0.009158,0.005025,0.002937,0.0093615
0.008727,0.012333,0.0136229,0.008993,0.005150,0.002913,0.0095095
0.009334,0.011917,0.0133666,0.008838,0.005244,0.003110,0.0095938
0.009919,0.011553,0.0131934,0.008566,0.005311,0.003348,0.0096381
0.010493,0.011177,0.0130276,0.008324,0.005356,0.003691,0.0096483
0.010830,0.010890,0.0132602,0.007921,0.005290,0.004130,0.0096616
0.011148,0.010498,0.0135583,0.007498,0.005212,0.004593,0.0096311
0.011470,0.010048,0.0138934,0.007168,0.005068,0.005120,0.0096606
0.011580,0.009757,0.0141700,0.006924,0.004855,0.005743,0.0097074
0.011562,0.009434,0.0144619,0.006669,0.004654,0.006251,0.0097791
0.011415,0.009068,0.0148055,0.006486,0.004405,0.006974,0.0099832
0.011144,0.008669,0.0154396,0.006164,0.004115,0.007666,0.0102105
0.010889,0.008207,0.0159262,0.005864,0.003882,0.008321,0.0104929
0.010761,0.007771,0.0160351,0.005782,0.003700,0.008893,0.0107837
0.010599,0.007251,0.0161381,0.005788,0.003601,0.009432,0.0111551
0.010475,0.006842,0.0161813,0.005807,0.003565,0.009924,0.0114334
0.010054,0.006620,0.0162424,0.005836,0.003483,0.010571,0.0116393
0.009472,0.006503,0.0163208,0.005864,0.003396,0.011212,0.0118474
0.008995,0.006463,0.0160902,0.006123,0.003353,0.011635,0.0119931
0.008336,0.006511,0.0160335,0.006312,0.003338,0.011922,0.0120865
0.007692,0.006285,0.0159462,0.006548,0.003391,0.012234,0.0123650
0.007182,0.006201,0.0158122,0.006725,0.003400,0.012587,0.0124916
0.006613,0.006490,0.0156155,0.006902,0.003286,0.013180,0.0125360
0.006103,0.006796,0.0155052,0.007017,0.003197,0.013571,0.0126201
0.005676,0.007107,0.0153296,0.007164,0.003169,0.013856,0.0126088
0.005361,0.007394,0.0152410,0.007242,0.003186,0.013975,0.0125481
0.005204,0.007593,0.0148129,0.007413,0.003267,0.013946,0.0126247
0.005175,0.008175,0.0143493,0.007576,0.003299,0.013844,0.0126104
0.005146,0.008912,0.0139539,0.007662,0.003313,0.013711,0.0125537
0.005185,0.009370,0.0136699,0.007661,0.003450,0.013323,0.0125090
0.005458,0.009788,0.0133108,0.007716,0.003591,0.013127,0.0123877
0.005695,0.010370,0.0129346,0.007785,0.003748,0.012843,0.0121417
0.006122,0.010933,0.0121707,0.007966,0.003911,0.012648,0.0119031
0.006660,0.011680,0.0114637,0.008145,0.004035,0.012482,0.0114989
0.007028,0.012368,0.0111399,0.008192,0.004113,0.012377,0.0110708
0.007477,0.013135,0.0107427,0.008142,0.004189,0.012208,0.0105105
0.007888,0.013843,0.0103757,0.008110,0.004221,0.012117,0.0100061
0.008156,0.014451,0.0100242,0.008039,0.004249,0.011906,0.0096000
0.008650,0.014990,0.0096077,0.007956,0.004224,0.011767,0.0091502
0.008962,0.015520,0.0094904,0.007723,0.004146,0.011848,0.0087141
0.009207,0.015941,0.0093901,0.007497,0.004082,0.011850,0.0084073
0.009492,0.016387,0.0092267,0.007243,0.004036,0.011838,0.0078981
0.009718,0.016776,0.0090611,0.007120,0.003996,0.011948,0.0075167
0.009787,0.017027,0.0088947,0.007041,0.004025,0.011878,0.0071549
0.010147,0.017342,0.0086244,0.007008,0.004005,0.012085,0.0066948
0.011055,0.017835,0.0084256,0.006948,0.003985,0.012323,0.0063636
0.012205,0.018904,0.0082593,0.006978,0.003997,0.012510,0.0061314
0.014577,0.020342,0.0079755,0.007145,0.003910,0.013128,0.0056884
0.017732,0.022712,0.0075540,0.007447,0.003801,0.014101,0.0052603
0.020733,0.025672,0.0072790,0.008285,0.003667,0.015043,0.0049777
0.024367,0.028654,0.0072119,0.009137,0.003614,0.016190,0.0048506
0.028538,0.032674,0.0069761,0.010005,0.003599,0.017687,0.0046734
0.032982,0.036852,0.0068992,0.011500,0.003666,0.019009,0.0044684
0.037220,0.040853,0.0070152,0.012899,0.003980,0.020334,0.0043412
0.040924,0.044645,0.0073257,0.014251,0.004663,0.021334,0.0044702
0.044467,0.048128,0.0075583,0.015598,0.005549,0.022408,0.0046254
0.048310,0.051565,0.0076375,0.016349,0.007017,0.023430,0.0046981
0.053616,0.055472,0.0074204,0.017115,0.009849,0.024510,0.0046095
0.058702,0.059610,0.0072950,0.017795,0.012655,0.025364,0.0045103
0.063634,0.063360,0.0074483,0.018446,0.015556,0.025841,0.0046734
0.068345,0.066868,0.0075242,0.019122,0.018561,0.026457,0.0048392
0.073537,0.069083,0.0074279,0.019423,0.022143,0.027471,0.0049639
0.078643,0.071551,0.0070548,0.020135,0.025710,0.028662,0.0049714
0.083870,0.073728,0.0067431,0.020978,0.029207,0.029590,0.0050614
0.089238,0.076115,0.0065144,0.021799,0.032912,0.030456,0.0050441
0.094212,0.077811,0.0063887,0.022584,0.036618,0.031108,0.0051021
0.098371,0.079004,0.0062512,0.023379,0.040289,0.031892,0.0051328
0.102237,0.079850,0.0060652,0.024082,0.044042,0.032651,0.0051143
0.104540,0.079952,0.0059557,0.024740,0.047969,0.032813,0.0053009
0.106085,0.078792,0.0059557,0.025301,0.051923,0.032545,0.0056730
0.108124,0.076451,0.0057927,0.025357,0.055672,0.032364,0.0060225
0.108982,0.074092,0.0053222,0.025444,0.059128,0.032358,0.0061555
0.108375,0.071217,0.0050421,0.025455,0.062031,0.031681,0.0064216
0.107722,0.066690,0.0045609,0.024895,0.064796,0.030945,0.0067864
0.107089,0.062042,0.0040395,0.024513,0.067792,0.030067,0.0070220
0.106794,0.057794,0.0034884,0.024145,0.070579,0.029583,0.0070037
0.106440,0.055142,0.0030313,0.023724,0.072941,0.029022,0.0070051
0.105321,0.053289,0.0028268,0.023739,0.074447,0.028243,0.0071953
0.102720,0.050892,0.0028763,0.023675,0.074736,0.027343,0.0075690
0.100148,0.048344,0.0027179,0.023771,0.074926,0.026967,0.0078413
0.097478,0.046025,0.0024362,0.023857,0.074842,0.026698,0.0079815
0.095092,0.044107,0.0022922,0.023961,0.074588,0.026249,0.0081450
0.092356,0.043664,0.0022914,0.024410,0.073668,0.025600,0.0083526
0.089628,0.042948,0.0027036,0.024399,0.072602,0.024759,0.0086658
0.087226,0.041811,0.0031991,0.024271,0.071707,0.024038,0.0089395
0.084719,0.040265,0.0037067,0.024171,0.070592,0.023304,0.0095335
0.082108,0.039541,0.0042722,0.024051,0.069490,0.022407,0.0100262
0.079549,0.038792,0.0048921,0.023929,0.068240,0.021327,0.0105466
0.076794,0.037592,0.0056332,0.023822,0.066824,0.020432,0.0110005
0.074079,0.037162,0.0063924,0.023646,0.065124,0.019942,0.0112375
0.071249,0.036583,0.0068553,0.023512,0.063663,0.019529,0.0114009
0.067919,0.035760,0.0073407,0.023906,0.062109,0.018820,0.0114480
0.065203,0.034776,0.0079885,0.024343,0.060584,0.017887,0.0114547
0.063256,0.032964,0.0086541,0.024536,0.059618,0.017155,0.0114633
0.061096,0.033026,0.0093077,0.024539,0.058684,0.016656,0.0113938
0.058923,0.033437,0.0099448,0.024497,0.057406,0.016291,0.0113563
0.056636,0.033661,0.0105164,0.024446,0.055971,0.015859,0.0114164
0.054483,0.032519,0.0110510,0.024513,0.054767,0.015471,0.0113959
0.053117,0.030213,0.0115450,0.024846,0.053893,0.015152,0.0113140
0.051635,0.028035,0.0120521,0.025280,0.052849,0.014790,0.0112297
0.049742,0.026315,0.0126301,0.025659,0.051952,0.014227,0.0111199
0.047637,0.024869,0.0130844,0.026109,0.051181,0.013989,0.0108143
0.045290,0.023215,0.0137010,0.026469,0.050476,0.013748,0.0105089
0.042964,0.021510,0.0142708,0.026923,0.049693,0.013459,0.0101758
0.040840,0.019731,0.0146657,0.027484,0.048868,0.013158,0.0098724
0.038270,0.018750,0.0150327,0.028347,0.047621,0.012774,0.0095685
0.035631,0.018149,0.0153995,0.029201,0.046047,0.012482,0.0090570
0.033194,0.017264,0.0156261,0.029787,0.044633,0.012247,0.0087215
0.030912,0.016707,0.0157800,0.030896,0.043381,0.011951,0.0083469
0.028815,0.016215,0.0158302,0.032200,0.042060,0.011540,0.0080426
0.027109,0.015170,0.0158525,0.033516,0.040970,0.010896,0.0078313
0.025449,0.014320,0.0160909,0.034847,0.039590,0.010179,0.0076254
0.023968,0.014171,0.0162875,0.035690,0.038500,0.009649,0.0074325
0.022379,0.014379,0.0162640,0.036449,0.037473,0.009209,0.0073203
0.020677,0.015202,0.0161649,0.037933,0.036337,0.008821,0.0070645
0.018980,0.015591,0.0160868,0.039706,0.035007,0.008402,0.0067799
0.017374,0.015785,0.0158968,0.041498,0.033515,0.007975,0.0066106
0.016001,0.015928,0.0155491,0.043363,0.031975,0.007524,0.0065327
0.014802,0.016292,0.0150800,0.045488,0.030275,0.007016,0.0064709
0.013230,0.017130,0.0145589,0.047960,0.028466,0.006643,0.0063639
0.011690,0.017831,0.0139919,0.050274,0.026694,0.006406,0.0063081
0.010856,0.017994,0.0134273,0.052412,0.024903,0.006207,0.0063975
0.010421,0.018079,0.0128984,0.054495,0.023142,0.005884,0.0065972
0.010163,0.018245,0.0121705,0.056403,0.021369,0.005566,0.0068130
0.009862,0.018416,0.0114493,0.058239,0.019733,0.005194,0.0069634
0.009442,0.018843,0.0107845,0.060359,0.018147,0.004831,0.0072410
0.008916,0.019058,0.0100611,0.062443,0.016819,0.004570,0.0076323
0.008406,0.019077,0.0092909,0.064669,0.015817,0.004332,0.0080501
0.007922,0.019207,0.0086414,0.067215,0.014627,0.004130,0.0084056
0.007452,0.019347,0.0080194,0.069150,0.013412,0.004054,0.0087459
0.007003,0.019514,0.0073621,0.070503,0.012346,0.004028,0.0091005
0.006584,0.019975,0.0067360,0.071773,0.011223,0.004014,0.0093698
0.006136,0.020401,0.0062163,0.072984,0.010179,0.004052,0.0095760
0.005691,0.020928,0.0057257,0.074185,0.009187,0.004089,0.0097729
0.005401,0.021301,0.0053018,0.074787,0.008302,0.004041,0.0100302
0.005318,0.021466,0.0049543,0.074833,0.007506,0.003951,0.0103148
0.005273,0.021710,0.0046153,0.074717,0.006932,0.003828,0.0105669
0.005271,0.022080,0.0043237,0.074449,0.006446,0.003651,0.0107299
0.005202,0.022239,0.0041809,0.074036,0.006018,0.003517,0.0108751
0.004993,0.022083,0.0041390,0.073217,0.005732,0.003511,0.0111327
0.004765,0.021761,0.0041358,0.071253,0.005564,0.003670,0.0114244
0.004658,0.021632,0.0043133,0.069195,0.005384,0.003766,0.0114407
0.004595,0.021660,0.0044822,0.067038,0.005193,0.003898,0.0113989
0.004477,0.021671,0.0047793,0.064982,0.005029,0.004077,0.0112778
0.004358,0.021629,0.0051606,0.063487,0.004854,0.004232,0.0110631
0.004232,0.021414,0.0056149,0.062037,0.004653,0.004395,0.0108801
0.004182,0.021220,0.0061722,0.060178,0.004530,0.004489,0.0105632
0.004177,0.021007,0.0069323,0.057931,0.004458,0.004542,0.0101724
0.004128,0.020784,0.0079743,0.055359,0.004384,0.004638,0.0096591
0.004139,0.020377,0.0091554,0.052665,0.004396,0.004735,0.0091623
0.004179,0.019869,0.0104474,0.049980,0.004440,0.004854,0.0086896
0.004284,0.019360,0.0117716,0.047587,0.004510,0.004926,0.0082177
0.004386,0.018799,0.0131071,0.045304,0.004589,0.005010,0.0078109
0.004496,0.018316,0.0144677,0.042992,0.004657,0.005121,0.0074479
0.004609,0.017832,0.0159290,0.040536,0.004680,0.005309,0.0070350
0.004789,0.017442,0.0174358,0.038716,0.004667,0.005479,0.0065463
0.005081,0.016900,0.0189191,0.037003,0.004653,0.005648,0.0060783
0.005370,0.016243,0.0203680,0.035284,0.004664,0.005751,0.0056822
0.005730,0.015339,0.0216369,0.032917,0.004761,0.005815,0.0054416
0.006458,0.014402,0.0228450,0.030474,0.004866,0.005834,0.0052486
0.007460,0.013622,0.0237779,0.028211,0.004989,0.005713,0.0050192
0.008563,0.013068,0.0243575,0.026735,0.005004,0.005577,0.0047344
0.009570,0.012471,0.0248130,0.025475,0.004934,0.005476,0.0047068
0.010598,0.011779,0.0251899,0.024538,0.004844,0.005290,0.0047617
0.011569,0.011152,0.0253918,0.023504,0.004780,0.005032,0.0048941
0.012705,0.010415,0.0255421,0.022144,0.004757,0.004720,0.0051151
0.013690,0.009760,0.0257020,0.020759,0.004755,0.004405,0.0053314
0.014401,0.009249,0.0258752,0.019399,0.004752,0.004129,0.0054795
0.015012,0.008721,0.0258987,0.018132,0.004807,0.003871,0.0056292
0.015738,0.008186,0.0256775,0.016943,0.004879,0.003573,0.0058746
0.016341,0.007845,0.0252863,0.015883,0.004943,0.003282,0.0060066
0.017081,0.007596,0.0246677,0.014931,0.005004,0.002967,0.0061162
0.017990,0.007269,0.0240956,0.014060,0.005024,0.002667,0.0062062
0.018749,0.007110,0.0234328,0.013173,0.005020,0.002373,0.0063010
0.019586,0.006934,0.0225776,0.012275,0.005064,0.002078,0.0064191
0.020417,0.006720,0.0216608,0.011409,0.005122,0.001729,0.0066366
0.021081,0.006599,0.0206475,0.010520,0.005178,0.001373,0.0068760
0.021697,0.006495,0.0195808,0.009612,0.005243,0.001054,0.0071558
0.022247,0.006311,0.0186093,0.008774,0.005317,0.000818,0.0074421
0.022508,0.006606,0.0177749,0.008666,0.005278,0.000618,0.0075803
0.022380,0.007090,0.0170700,0.008689,0.005230,0.000442,0.0076634
0.021974,0.007564,0.0166548,0.008613,0.005158,0.000387,0.0078442
0.021374,0.008040,0.0165951,0.008451,0.005120,0.000331,0.0080782
0.020748,0.008495,0.0164275,0.008380,0.005187,0.000305,0.0082508
0.019952,0.009018,0.0164093,0.008331,0.005248,0.000286,0.0083284
0.019216,0.009511,0.0163966,0.008309,0.005297,0.000308,0.0084051
0.018443,0.009928,0.0163165,0.008235,0.005360,0.000360,0.0085892
0.017768,0.010248,0.0161537,0.008176,0.005432,0.000465,0.0088635
0.017298,0.010501,0.0159140,0.008154,0.005518,0.000575,0.0090994
0.017057,0.010661,0.0157164,0.008061,0.005595,0.000578,0.0092641
0.016752,0.010710,0.0154400,0.008069,0.005691,0.000578,0.0094011
0.016460,0.010727,0.0152436,0.008041,0.005738,0.000578,0.0096232
0.016008,0.010658,0.0151182,0.007941,0.005817,0.000578,0.0098905
0.015268,0.010826,0.0149874,0.007823,0.005861,0.000621,0.0101255
0.014844,0.010800,0.0149698,0.007663,0.005976,0.000621,0.0102099
0.014638,0.010778,0.0149630,0.007579,0.006057,0.000676,0.0102163
0.014325,0.010858,0.0149318,0.007611,0.006142,0.000790,0.0101465
0.014111,0.010897,0.0149432,0.007647,0.006230,0.000988,0.0100607
0.013819,0.010826,0.0149683,0.007765,0.006316,0.001197,0.0100431
0.013587,0.010929,0.0149097,0.007797,0.006342,0.001413,0.0100522
0.013560,0.010834,0.0149081,0.007836,0.006354,0.001639,0.0100746
0.013581,0.010792,0.0147950,0.008002,0.006316,0.001981,0.0100546
0.013362,0.010865,0.0146529,0.008156,0.006242,0.002444,0.0098831
0.013293,0.010815,0.0144287,0.008294,0.006171,0.002890,0.0096628
0.013343,0.010731,0.0143608,0.008328,0.006023,0.003282,0.0094788
0.013500,0.010588,0.0142258,0.008321,0.005914,0.003651,0.0094134
0.013832,0.010432,0.0140442,0.008284,0.005792,0.004137,0.0092566
0.013970,0.010453,0.0139947,0.008263,0.005611,0.004701,0.0090161
0.014166,0.010374,0.0138515,0.008234,0.005452,0.005294,0.0088130
0.014117,0.010210,0.0136546,0.008192,0.005370,0.005825,0.0087558
0.013841,0.010269,0.0134073,0.008199,0.005257,0.006391,0.0088054
0.013539,0.010302,0.0132780,0.008202,0.005127,0.006920,0.0090349
0.013299,0.010344,0.0130329,0.008209,0.005034,0.007435,0.0092304
0.013150,0.010318,0.0128187,0.008279,0.004920,0.007938,0.0093767
0.013110,0.010260,0.0124854,0.008415,0.004833,0.008447,0.0096140
0.012832,0.010181,0.0120642,0.008606,0.004708,0.009059,0.0101655
0.012227,0.010257,0.0118535,0.008712,0.004581,0.009456,0.0106189
0.011673,0.010348,0.0115953,0.008758,0.004498,0.009782,0.0111357
0.011160,0.010466,0.0113330,0.008804,0.004406,0.010022,0.0116575
0.010688,0.010880,0.0110132,0.008732,0.004268,0.010386,0.0119515
0.010237,0.011319,0.0106984,0.008672,0.004115,0.010867,0.0121560
0.009612,0.011772,0.0104204,0.008583,0.003972,0.011260,0.0124548
0.009168,0.012322,0.0102979,0.008306,0.003883,0.011263,0.0125068
0.009114,0.012709,0.0101246,0.008079,0.003825,0.011258,0.0125883
0.009079,0.012996,0.0099658,0.007885,0.003757,0.011289,0.0127496
0.009090,0.013315,0.0097847,0.007697,0.003715,0.011336,0.0128364
0.009223,0.013581,0.0095502,0.007540,0.003658,0.011538,0.0128622
0.009065,0.013862,0.0095010,0.007424,0.003658,0.011375,0.0130866
0.008990,0.014190,0.0093121,0.007349,0.003705,0.011150,0.0132098
0.008895,0.014642,0.0091987,0.007270,0.003758,0.010841,0.0131841
0.008937,0.015229,0.0091331,0.007191,0.003744,0.010640,0.0130762
0.009088,0.015845,0.0091093,0.007094,0.003739,0.010431,0.0128733
0.009237,0.016660,0.0090299,0.006971,0.003727,0.010265,0.0125103
0.009433,0.017195,0.0090588,0.006898,0.003748,0.009923,0.0122262
0.009537,0.017891,0.0091169,0.006757,0.003793,0.009507,0.0119131
0.009757,0.018549,0.0092245,0.006580,0.003782,0.009130,0.0114929
0.010068,0.019320,0.0093529,0.006502,0.003749,0.008725,0.0109434
0.010408,0.019947,0.0093613,0.006501,0.003721,0.008482,0.0105606
0.010729,0.020368,0.0093980,0.006530,0.003696,0.008178,0.0101522
0.011140,0.020659,0.0093437,0.006547,0.003647,0.008055,0.0096793
0.011482,0.020822,0.0093887,0.006632,0.003620,0.007821,0.0093643
0.011655,0.020979,0.0093980,0.006754,0.003598,0.007542,0.0090412
0.012047,0.021156,0.0092630,0.006927,0.003568,0.007450,0.0085680
0.012219,0.021020,0.0090230,0.007110,0.003564,0.007593,0.0083475
0.012354,0.020939,0.0087934,0.007208,0.003551,0.007738,0.0080528
0.012720,0.021020,0.0084851,0.007318,0.003525,0.008066,0.0075865
0.013488,0.021079,0.0081738,0.007461,0.003526,0.008375,0.0071940
0.014998,0.021403,0.0078080,0.007533,0.003403,0.009445,0.0066842
0.017109,0.021842,0.0073301,0.007626,0.003256,0.011012,0.0060634
0.019829,0.023214,0.0068974,0.007601,0.003106,0.012926,0.0054997
0.022868,0.024655,0.0064799,0.007782,0.002938,0.014681,0.0049825
0.026604,0.026530,0.0060799,0.007971,0.002789,0.016534,0.0044878
0.031451,0.029290,0.0056260,0.008309,0.002627,0.018764,0.0040603
0.036389,0.031856,0.0051548,0.009222,0.002460,0.020958,0.0037876
0.041071,0.035210,0.0046872,0.010098,0.002355,0.023089,0.0035290
0.045119,0.037919,0.0045872,0.010963,0.002537,0.024397,0.0035109
0.049200,0.040878,0.0046012,0.011855,0.003101,0.025545,0.0035912
0.052862,0.043355,0.0046308,0.012675,0.003931,0.027282,0.0033803
0.056547,0.045481,0.0047542,0.013364,0.005194,0.029145,0.0031276
0.060733,0.047031,0.0049397,0.014228,0.006795,0.031282,0.0028386
0.064757,0.047905,0.0051954,0.015189,0.008611,0.033152,0.0027925
0.068533,0.048304,0.0053751,0.016009,0.010538,0.034898,0.0026911
0.072172,0.048712,0.0056356,0.016360,0.012777,0.036470,0.0025878
0.075341,0.048393,0.0059632,0.016658,0.015561,0.037928,0.0024786
0.078533,0.048981,0.0062585,0.016996,0.018257,0.039474,0.0023398
0.081489,0.049920,0.0070839,0.017559,0.020976,0.040899,0.0022144
0.083973,0.051031,0.0079935,0.018280,0.023704,0.042165,0.0021757
0.086072,0.051294,0.0087980,0.019045,0.026783,0.043470,0.0020977
0.087143,0.051067,0.0094140,0.019902,0.030011,0.043441,0.0021517
0.087826,0.051102,0.0101487,0.020699,0.033288,0.042770,0.0023283
0.088272,0.050104,0.0107692,0.021535,0.036361,0.041640,0.0026374
0.088411,0.048841,0.0111129,0.022180,0.039311,0.040937,0.0030221
0.087331,0.047121,0.0115015,0.022815,0.042418,0.039913,0.0032408
0.084735,0.044415,0.0118001,0.023426,0.045660,0.038588,0.0034110
0.081990,0.041925,0.0120206,0.023427,0.048795,0.037436,0.0035179
0.079490,0.038541,0.0122460,0.023441,0.051509,0.036600,0.0036473
0.077790,0.035077,0.0122468,0.023540,0.053894,0.036587,0.0036364
0.075949,0.031499,0.0118013,0.023730,0.055945,0.036389,0.0036396
0.074309,0.028494,0.0113216,0.024112,0.057609,0.035569,0.0038897
0.072379,0.025678,0.0107880,0.024629,0.058852,0.034588,0.0042450
0.069755,0.023247,0.0101729,0.024978,0.059778,0.033382,0.0046364
0.066754,0.021412,0.0095922,0.025205,0.060385,0.032292,0.0048266
0.063562,0.020365,0.0091992,0.025529,0.060619,0.030998,0.0050338
0.060093,0.019306,0.0087760,0.026276,0.060592,0.029707,0.0054928
0.056981,0.018759,0.0084915,0.027000,0.059863,0.028484,0.0060308
0.053822,0.017565,0.0083080,0.027723,0.059028,0.027261,0.0066336
0.050812,0.016086,0.0076920,0.028292,0.058097,0.025941,0.0071811
0.047977,0.014269,0.0072288,0.028758,0.057371,0.024506,0.0077022
0.045084,0.013070,0.0068707,0.029618,0.056350,0.022891,0.0082125
0.042411,0.012154,0.0068752,0.029905,0.055163,0.021698,0.0087001
0.039820,0.010808,0.0068418,0.030135,0.053765,0.020806,0.0090541
0.036957,0.009511,0.0069592,0.030473,0.052315,0.019979,0.0093252
0.034100,0.008419,0.0073786,0.030831,0.050928,0.018854,0.0095517
0.031744,0.007222,0.0077282,0.031262,0.049370,0.017934,0.0099834
0.029681,0.006014,0.0081125,0.031569,0.047667,0.017164,0.0105371
0.027683,0.004693,0.0086600,0.031898,0.045985,0.016131,0.0108510
0.025628,0.003684,0.0090050,0.032239,0.044600,0.014950,0.0111929
0.023387,0.003355,0.0091473,0.032542,0.043124,0.013859,0.0116182
0.020988,0.002930,0.0098215,0.032736,0.041410,0.013116,0.0120024
0.018578,0.002372,0.0102715,0.032851,0.039666,0.012483,0.0124370
0.016240,0.001947,0.0105441,0.033081,0.037860,0.012021,0.0129570
0.014104,0.001823,0.0107590,0.033305,0.035982,0.011598,0.0134871
0.012337,0.001964,0.0109408,0.033555,0.034195,0.011185,0.0140258
0.011038,0.001640,0.0109858,0.033845,0.032626,0.011079,0.0146278
0.010289,0.001253,0.0110404,0.034037,0.031009,0.011060,0.0150113
0.009622,0.001075,0.0110066,0.034283,0.029547,0.010932,0.0152775
0.008995,0.000957,0.0109876,0.034519,0.028199,0.010623,0.0153882
0.008392,0.000682,0.0109619,0.034701,0.026882,0.010304,0.0156408
0.007828,0.000475,0.0107887,0.034985,0.025456,0.010024,0.0159149
0.007254,0.000582,0.0105654,0.034851,0.023934,0.009849,0.0161347
0.006733,0.000786,0.0101361,0.035434,0.022562,0.009638,0.0163398
0.006119,0.001127,0.0095952,0.036078,0.021318,0.009477,0.0165213
0.005406,0.001440,0.0089894,0.036517,0.020298,0.009386,0.0167470
0.004657,0.001593,0.0083275,0.036869,0.019397,0.009346,0.0170288
0.004028,0.001763,0.0077286,0.037167,0.018492,0.009272,0.0172505
0.003447,0.001913,0.0072023,0.037551,0.017613,0.009063,0.0173727
0.002916,0.002127,0.0065841,0.038026,0.016732,0.008964,0.0176692
0.002377,0.002415,0.0061250,0.038513,0.015806,0.008950,0.0178735
0.001824,0.002614,0.0056732,0.039224,0.014971,0.008968,0.0180662
0.001424,0.002930,0.0050820,0.040419,0.014287,0.008856,0.0181005
0.001250,0.003408,0.0047830,0.041467,0.013749,0.008613,0.0180085
0.001286,0.003923,0.0046791,0.042378,0.013258,0.008222,0.0177010
0.001374,0.004270,0.0046343,0.042674,0.012825,0.007823,0.0173962
0.001597,0.004618,0.0046763,0.042817,0.012444,0.007344,0.0169472
0.001819,0.005219,0.0047373,0.043106,0.012047,0.006857,0.0164864
0.002036,0.005893,0.0047700,0.043551,0.011641,0.006389,0.0160511
0.002295,0.006741,0.0047970,0.044013,0.011155,0.005968,0.0157652
0.002539,0.007391,0.0046918,0.044585,0.010688,0.005746,0.0157560
0.002771,0.008052,0.0044943,0.045291,0.010310,0.005738,0.0157985
0.002990,0.008768,0.0043080,0.045828,0.009842,0.005764,0.0158614
0.003268,0.009508,0.0041959,0.046187,0.009418,0.005760,0.0158705
0.003442,0.010085,0.0042235,0.045805,0.009028,0.005847,0.0159181
0.003590,0.010421,0.0042736,0.045483,0.008646,0.005970,0.0160359
0.003704,0.010769,0.0043449,0.045382,0.008285,0.006106,0.0160999
0.003824,0.011264,0.0044313,0.045554,0.007845,0.006234,0.0161160
0.003962,0.011810,0.0044831,0.045925,0.007405,0.006351,0.0161278
0.004143,0.012605,0.0045814,0.046189,0.006943,0.006417,0.0159659
0.004299,0.013156,0.0046692,0.046333,0.006591,0.006490,0.0157949
0.004430,0.013617,0.0047455,0.046402,0.006294,0.006540,0.0155218
0.004625,0.014298,0.0049020,0.046219,0.005983,0.006478,0.0149717
0.004759,0.014881,0.0050595,0.045422,0.005754,0.006368,0.0145423
0.004861,0.015287,0.0051770,0.044678,0.005545,0.006287,0.0141884
0.004932,0.015605,0.0052941,0.043819,0.005346,0.006207,0.0138968
0.005012,0.016093,0.0054252,0.043521,0.005125,0.006106,0.0135601
0.005021,0.016456,0.0055161,0.043432,0.004928,0.006051,0.0133627
0.005026,0.016721,0.0056318,0.043047,0.004794,0.005996,0.0131451
0.005050,0.016935,0.0057765,0.042514,0.004699,0.005923,0.0128674
0.005015,0.016830,0.0058874,0.041500,0.004765,0.005870,0.0125726
0.004998,0.016578,0.0060571,0.040413,0.004846,0.005747,0.0121312
0.004965,0.016378,0.0063232,0.039205,0.004949,0.005522,0.0115805
0.004902,0.016125,0.0066992,0.037916,0.005122,0.005315,0.0109927
0.004733,0.015778,0.0070814,0.036729,0.005301,0.005185,0.0105013
0.004732,0.015454,0.0075452,0.035973,0.005435,0.004997,0.0099151
0.004861,0.015180,0.0081295,0.035131,0.005600,0.004761,0.0093122
0.005013,0.014952,0.0087266,0.034252,0.005771,0.004559,0.0086455
0.005436,0.014591,0.0093559,0.033039,0.005980,0.004362,0.0079477
0.006059,0.014068,0.0100118,0.031510,0.006249,0.004122,0.0072984
0.006733,0.013339,0.0106532,0.030034,0.006548,0.003880,0.0068645
0.007421,0.012720,0.0113986,0.028512,0.006811,0.003721,0.0064748
0.008257,0.012208,0.0121498,0.026883,0.007015,0.003718,0.0061614
0.009188,0.011578,0.0127268,0.025301,0.007194,0.003717,0.0060600
0.009843,0.011086,0.0131029,0.023924,0.007394,0.003871,0.0059325
0.010168,0.010725,0.0134434,0.022530,0.007573,0.003967,0.0058308
0.010333,0.010564,0.0136626,0.021472,0.007659,0.004129,0.0056545
0.010473,0.010462,0.0137927,0.020604,0.007704,0.004214,0.0054738
0.010532,0.010360,0.0138842,0.019665,0.007714,0.004156,0.0053676
0.010599,0.010235,0.0139586,0.018887,0.007724,0.004107,0.0052725
0.010645,0.010013,0.0140593,0.018160,0.007696,0.004087,0.0052235
0.010681,0.009875,0.0142610,0.017851,0.007590,0.004067,0.0051744
0.010689,0.009821,0.0144544,0.017346,0.007506,0.004058,0.0051522
0.010703,0.009758,0.0146211,0.016833,0.007400,0.004058,0.0052470
0.011022,0.009619,0.0147421,0.016346,0.007249,0.003965,0.0054072
0.011965,0.009302,0.0149401,0.015756,0.007080,0.003959,0.0055500
0.013254,0.008883,0.0153122,0.015196,0.006882,0.004062,0.0057108
0.014742,0.008479,0.0156545,0.014647,0.006691,0.004078,0.0058322
0.016304,0.008047,0.0160076,0.013904,0.006544,0.004045,0.0059891
0.017551,0.007825,0.0162934,0.013270,0.006385,0.004031,0.0060445
0.018412,0.007745,0.0165042,0.012785,0.006180,0.004023,0.0060678
0.018362,0.007877,0.0168079,0.012274,0.005940,0.004047,0.0060613
0.017804,0.008273,0.0168321,0.011884,0.005722,0.004010,0.0060112
0.016860,0.008659,0.0167189,0.011694,0.005573,0.003957,0.0059599
0.015934,0.008926,0.0169168,0.011438,0.005472,0.003905,0.0058798
0.015334,0.009061,0.0172908,0.011094,0.005311,0.003760,0.0058586
0.015112,0.009118,0.0176804,0.010647,0.005175,0.003654,0.0058665
0.015186,0.009041,0.0179776,0.010136,0.005158,0.003395,0.0059873
0.015242,0.008819,0.0183222,0.009460,0.005167,0.003239,0.0061985
0.015357,0.008682,0.0187677,0.008800,0.005138,0.003195,0.0063840
0.015300,0.008687,0.0190359,0.008239,0.005063,0.003228,0.0065683
0.015222,0.008740,0.0192743,0.007708,0.005036,0.003272,0.0067257
0.015285,0.008743,0.0194906,0.007279,0.005033,0.003248,0.0068450
0.015635,0.008675,0.0196894,0.007006,0.005043,0.003100,0.0070147
0.016079,0.008741,0.0198415,0.006785,0.005043,0.002938,0.0070296
0.016330,0.008990,0.0199193,0.006548,0.005021,0.002830,0.0070085
0.016157,0.009439,0.0199852,0.006408,0.004987,0.002651,0.0069902
0.015398,0.010036,0.0197558,0.006457,0.004980,0.002480,0.0069320
0.014454,0.010698,0.0194354,0.006528,0.004965,0.002359,0.0069166
0.013445,0.011446,0.0190129,0.006760,0.004868,0.002412,0.0068290
0.012581,0.012097,0.0186890,0.007038,0.004759,0.002427,0.0068428
0.011863,0.012713,0.0184036,0.007276,0.004670,0.002483,0.0068932
0.011912,0.013074,0.0178644,0.007591,0.004628,0.002410,0.0070254
0.012435,0.013208,0.0174696,0.007822,0.004570,0.002309,0.0072307
0.013003,0.013186,0.0171531,0.008078,0.004503,0.002215,0.0075351
0.013105,0.013491,0.0166534,0.008457,0.004428,0.002104,0.0078495
0.013072,0.013644,0.0160616,0.008783,0.004399,0.002097,0.0082088
0.012990,0.013611,0.0154486,0.009213,0.004423,0.002106,0.0085508
0.013033,0.013419,0.0151455,0.009423,0.004431,0.002074,0.0088777
0.013123,0.013428,0.0150031,0.009548,0.004420,0.002010,0.0090829
0.013392,0.013281,0.0148729,0.009612,0.004483,0.001964,0.0092065
0.013935,0.012821,0.0148852,0.009494,0.004559,0.001961,0.0092816
0.014827,0.012401,0.0149646,0.009346,0.004599,0.001829,0.0093688
0.015580,0.012112,0.0150242,0.009104,0.004603,0.001743,0.0094253
0.015755,0.012088,0.0150631,0.008881,0.004576,0.001971,0.0093957
0.015824,0.011972,0.0149788,0.008652,0.004513,0.002532,0.0093917
0.015740,0.011774,0.0149634,0.008437,0.004448,0.003105,0.0094770
0.015576,0.011522,0.0149608,0.008295,0.004408,0.003487,0.0096337
0.015160,0.011215,0.0150210,0.008035,0.004381,0.003951,0.0099126
0.014699,0.010788,0.0149742,0.007871,0.004355,0.004646,0.0101441
0.014552,0.010225,0.0149599,0.007745,0.004352,0.005055,0.0104728
0.014235,0.009648,0.0148844,0.007572,0.004420,0.005190,0.0108428
0.014049,0.009143,0.0146528,0.007446,0.004450,0.005533,0.0110411
0.013779,0.008640,0.0145011,0.007259,0.004483,0.005979,0.0112004
0.013618,0.008318,0.0143438,0.007140,0.004510,0.006407,0.0111706
0.013494,0.008057,0.0143059,0.006902,0.004542,0.006664,0.0111274
0.013421,0.007641,0.0142582,0.006686,0.004583,0.007147,0.0110687
0.013419,0.007190,0.0142508,0.006570,0.004598,0.007589,0.0111552
0.013390,0.006825,0.0142417,0.006467,0.004609,0.008046,0.0112511
0.012940,0.006423,0.0139281,0.006572,0.004581,0.008835,0.0118800
0.012410,0.005879,0.0134586,0.006791,0.004538,0.009628,0.0127379
0.011967,0.005499,0.0128735,0.007109,0.004449,0.010473,0.0135387
0.011496,0.005251,0.0122616,0.007422,0.004399,0.011133,0.0143825
0.010728,0.005202,0.0116226,0.007728,0.004358,0.011844,0.0150852
0.009955,0.005218,0.0110510,0.008072,0.004309,0.012421,0.0157755
0.009760,0.005517,0.0105965,0.008345,0.004273,0.012664,0.0158625
0.009556,0.005585,0.0102595,0.008666,0.004308,0.012618,0.0160629
0.009531,0.005657,0.0099030,0.008946,0.004369,0.012463,0.0162111
0.009616,0.005581,0.0093855,0.009239,0.004462,0.012448,0.0163802
0.010098,0.005544,0.0088375,0.009500,0.004563,0.012245,0.0164571
0.010342,0.005693,0.0084941,0.009578,0.004664,0.011793,0.0165910
0.010220,0.005922,0.0082517,0.009653,0.004764,0.011394,0.0166649
0.010288,0.006331,0.0080273,0.009707,0.004770,0.011239,0.0165480
0.009980,0.006704,0.0078308,0.009804,0.004795,0.011075,0.0164762
0.009776,0.007456,0.0077166,0.009902,0.004728,0.011017,0.0162267
0.009454,0.008146,0.0076721,0.009977,0.004653,0.010990,0.0161224
0.009403,0.008739,0.0075079,0.010106,0.004594,0.011008,0.0159305
0.009645,0.009333,0.0073272,0.010099,0.004535,0.010923,0.0156522
0.009925,0.010019,0.0071626,0.010027,0.004478,0.010826,0.0151961
0.010289,0.010802,0.0070592,0.009961,0.004387,0.010697,0.0147095
0.010828,0.011618,0.0070968,0.009758,0.004375,0.010306,0.0136359
0.011580,0.012436,0.0070590,0.009595,0.004373,0.010104,0.0123451
0.012479,0.013491,0.0069947,0.009443,0.004397,0.009947,0.0112133
0.014007,0.015802,0.0070468,0.009430,0.004389,0.010080,0.0101736
0.016065,0.019180,0.0071511,0.009550,0.004223,0.011159,0.0091999
0.019275,0.022349,0.0072443,0.009925,0.004143,0.012539,0.0082833
0.023358,0.025470,0.0071637,0.010474,0.003989,0.014831,0.0078995
0.027877,0.030568,0.0068729,0.010986,0.003871,0.017593,0.0075024
0.032626,0.035040,0.0066320,0.011615,0.003725,0.020296,0.0071673
0.036569,0.038242,0.0064291,0.012206,0.004090,0.022576,0.0068658
0.040454,0.040281,0.0060917,0.012566,0.005695,0.024567,0.0065838
0.044402,0.042181,0.0056653,0.012897,0.007447,0.026841,0.0061684
0.049067,0.044159,0.0051909,0.013175,0.009222,0.029053,0.0058132
0.053479,0.046512,0.0047119,0.013474,0.011147,0.030865,0.0057066
0.058170,0.048245,0.0043676,0.013670,0.013558,0.032038,0.0058083
0.063846,0.049136,0.0039727,0.014221,0.016297,0.032984,0.0060640
0.069305,0.049170,0.0038107,0.014872,0.019407,0.033366,0.0063393
0.074507,0.048516,0.0039665,0.015502,0.022473,0.033524,0.0066739
0.079708,0.048257,0.0041406,0.016175,0.025570,0.033694,0.0070222
0.085006,0.047909,0.0050704,0.016569,0.028922,0.033683,0.0072702
0.089849,0.047357,0.0059464,0.016919,0.032599,0.033976,0.0074842
0.094725,0.046541,0.0068725,0.017296,0.036437,0.034340,0.0077240
0.099575,0.045886,0.0078867,0.017596,0.040418,0.034415,0.0080541
0.104128,0.045142,0.0089917,0.017757,0.044262,0.034315,0.0083396
0.107998,0.043003,0.0100525,0.017837,0.048073,0.033949,0.0085184
0.111107,0.040121,0.0109930,0.017835,0.051841,0.032696,0.0087377
0.113045,0.037937,0.0118361,0.017578,0.055448,0.031270,0.0089037
0.113516,0.035182,0.0130164,0.017187,0.059120,0.028797,0.0092078
0.113221,0.030563,0.0146426,0.016740,0.062867,0.025521,0.0095274
0.111511,0.026405,0.0160884,0.016313,0.066748,0.022537,0.0096939
0.110184,0.023288,0.0172277,0.015988,0.070017,0.020383,0.0096692
0.108409,0.021901,0.0183908,0.015969,0.071571,0.018759,0.0095522
0.106057,0.021081,0.0195153,0.015730,0.072791,0.016904,0.0095592
0.103161,0.019858,0.0206608,0.015370,0.073810,0.015075,0.0095889
0.100444,0.017977,0.0216540,0.015039,0.074769,0.013655,0.0095471
0.097611,0.016434,0.0226521,0.014744,0.075261,0.012629,0.0093679
0.093599,0.015740,0.0230179,0.014372,0.075310,0.011643,0.0091505
0.089819,0.016419,0.0231179,0.014315,0.074625,0.011052,0.0088182
0.085981,0.018240,0.0229193,0.014399,0.073733,0.010772,0.0084054
0.081832,0.019594,0.0227265,0.014569,0.072802,0.010603,0.0080666
0.077304,0.021204,0.0217994,0.015045,0.071657,0.010723,0.0078052
0.073094,0.023171,0.0209391,0.015499,0.070058,0.010544,0.0075981
0.068802,0.025267,0.0200798,0.015900,0.068126,0.010381,0.0074803
0.064322,0.026562,0.0192207,0.016354,0.066057,0.010363,0.0074111
0.059734,0.027741,0.0182450,0.016928,0.063769,0.010399,0.0073720
0.055056,0.029248,0.0171981,0.017511,0.061231,0.010451,0.0074015
0.050576,0.030507,0.0161465,0.018161,0.058880,0.010447,0.0074963
0.045911,0.030951,0.0151871,0.018846,0.056798,0.010197,0.0077197
0.041427,0.031331,0.0140268,0.019732,0.054756,0.010120,0.0079309
0.036911,0.031742,0.0126025,0.020776,0.052627,0.010499,0.0080043
0.033298,0.032502,0.0111936,0.021784,0.050359,0.010920,0.0080570
0.029891,0.033712,0.0100909,0.022687,0.048094,0.010958,0.0081813
0.027004,0.034168,0.0091661,0.023837,0.046163,0.010745,0.0083726
0.024798,0.034183,0.0082864,0.025654,0.044401,0.010560,0.0085176
0.022437,0.034040,0.0073765,0.027285,0.043079,0.010454,0.0087214
0.020020,0.034004,0.0066084,0.028786,0.041711,0.010391,0.0089224
0.017794,0.033879,0.0057932,0.030264,0.040227,0.010328,0.0091114
0.015857,0.033251,0.0055565,0.031558,0.038872,0.010274,0.0093148
0.013928,0.031756,0.0053358,0.032510,0.037854,0.010350,0.0096534
0.012349,0.030163,0.0051940,0.033587,0.036896,0.010240,0.0099728
0.011150,0.028803,0.0050642,0.035020,0.035708,0.009913,0.0102805
0.010245,0.027410,0.0049327,0.036614,0.034409,0.009449,0.0105732
0.009398,0.025896,0.0047315,0.038297,0.033251,0.009023,0.0108832
0.008585,0.024530,0.0045083,0.040014,0.032058,0.008601,0.0111954
0.007834,0.023982,0.0043042,0.041753,0.030741,0.008142,0.0114590
0.007137,0.023373,0.0042141,0.043680,0.029710,0.007691,0.0116180
0.006526,0.022635,0.0042006,0.045630,0.028957,0.007213,0.0117336
0.005881,0.021648,0.0042324,0.047609,0.028193,0.006728,0.0118769
0.005467,0.020743,0.0041577,0.049611,0.027228,0.006510,0.0119152
0.005139,0.020134,0.0040055,0.051177,0.026266,0.006426,0.0119432
0.005190,0.019625,0.0039299,0.052558,0.025191,0.006188,0.0120097
0.005423,0.019264,0.0039773,0.054386,0.023874,0.005749,0.0120353
0.005696,0.018850,0.0040085,0.056456,0.022563,0.005291,0.0120851
0.005891,0.018504,0.0039799,0.058550,0.021351,0.004889,0.0121950
0.006070,0.018017,0.0039515,0.060392,0.020143,0.004497,0.0123201
0.006275,0.018046,0.0039544,0.062609,0.018689,0.004110,0.0122497
0.006448,0.018133,0.0040054,0.064638,0.017221,0.003744,0.0121330
0.006479,0.018628,0.0042188,0.066236,0.015872,0.003464,0.0119620
0.006454,0.019290,0.0045581,0.067573,0.014558,0.003278,0.0117352
0.006454,0.020210,0.0049455,0.068820,0.013233,0.003115,0.0113665
0.006358,0.020865,0.0053409,0.069790,0.012062,0.003027,0.0109607
0.006206,0.021188,0.0057462,0.070303,0.011143,0.002980,0.0104869
0.006008,0.021364,0.0061262,0.070306,0.010354,0.002962,0.0100578
0.005838,0.021440,0.0065392,0.070132,0.009458,0.002923,0.0096639
0.005682,0.021551,0.0069575,0.069882,0.008710,0.002859,0.0092095
0.005539,0.021488,0.0073816,0.069526,0.008111,0.002794,0.0087287
0.005363,0.021323,0.0077670,0.068936,0.007559,0.002767,0.0083167
0.005172,0.021087,0.0081334,0.068032,0.007039,0.002782,0.0079430
0.004994,0.020754,0.0084911,0.066577,0.006595,0.002886,0.0075596
0.004803,0.020638,0.0089433,0.064851,0.006173,0.002988,0.0071129
0.004685,0.020520,0.0094484,0.063152,0.005708,0.003046,0.0066002
0.004579,0.020431,0.0099651,0.061400,0.005260,0.003099,0.0061130
0.004467,0.020045,0.0104521,0.059076,0.005080,0.003181,0.0057721
0.004345,0.019535,0.0109079,0.056523,0.004967,0.003278,0.0054440
0.004283,0.019134,0.0113079,0.053602,0.004897,0.003341,0.0051093
0.004212,0.018790,0.0116776,0.050601,0.004846,0.003402,0.0047901
0.004091,0.018370,0.0121124,0.047512,0.004839,0.003496,0.0045503
0.003922,0.017830,0.0127370,0.044563,0.004895,0.003641,0.0043020
0.003772,0.017314,0.0134423,0.041859,0.004871,0.003849,0.0041392
0.003703,0.016806,0.0141635,0.039267,0.004828,0.004160,0.0040387
0.003736,0.016310,0.0149036,0.036668,0.004837,0.004469,0.0039888
0.003832,0.015826,0.0156472,0.034023,0.004866,0.004832,0.0040209
0.003962,0.015371,0.0163742,0.031388,0.004884,0.005215,0.0041087
0.004176,0.014968,0.0171440,0.029071,0.004857,0.005584,0.0041489
0.004346,0.014558,0.0179653,0.026771,0.004942,0.005969,0.0041287
0.004502,0.014217,0.0187849,0.024432,0.005045,0.006366,0.0040964
0.004684,0.013780,0.0195613,0.022032,0.005172,0.006748,0.0040979
0.004840,0.013407,0.0204465,0.019604,0.005307,0.007135,0.0040903
0.004989,0.013070,0.0214743,0.017462,0.005431,0.007533,0.0040362
0.005136,0.012792,0.0225596,0.015773,0.005503,0.007934,0.0039359
0.005357,0.012420,0.0235650,0.014282,0.005589,0.008301,0.0039152
0.005721,0.012012,0.0245514,0.013072,0.005642,0.008580,0.0039777
0.006595,0.011529,0.0249762,0.012118,0.005687,0.008660,0.0041250
0.007384,0.011133,0.0253207,0.011378,0.005732,0.008538,0.0042261
0.008022,0.010848,0.0256962,0.010639,0.005747,0.008414,0.0043796
0.008649,0.010663,0.0260628,0.009998,0.005751,0.008271,0.0045172
0.009512,0.010359,0.0262204,0.009360,0.005789,0.008085,0.0046975
0.010342,0.010195,0.0262744,0.008804,0.005747,0.007880,0.0048493
0.011262,0.009984,0.0261428,0.008342,0.005694,0.007581,0.0050093
0.012047,0.009729,0.0258914,0.007995,0.005685,0.007194,0.0051602
0.012844,0.009396,0.0256664,0.007573,0.005693,0.006710,0.0053216
0.013540,0.009094,0.0253435,0.007217,0.005725,0.006249,0.0054858
0.014021,0.008838,0.0249785,0.007011,0.005745,0.005759,0.0056476
0.014596,0.008716,0.0245366,0.006814,0.005716,0.005265,0.0058665
0.015050,0.008569,0.0240274,0.006562,0.005698,0.004788,0.0061117
0.015528,0.008579,0.0234100,0.006506,0.005609,0.004321,0.0063569
0.015838,0.008663,0.0227853,0.006572,0.005494,0.003905,0.0065666
0.016044,0.008822,0.0221151,0.006820,0.005359,0.003536,0.0067214
0.016236,0.008867,0.0213851,0.007061,0.005239,0.003199,0.0069538
0.016582,0.008780,0.0205796,0.007234,0.005195,0.002650,0.0072661
0.016941,0.008733,0.0196976,0.007462,0.005191,0.002066,0.0075592
0.017168,0.008965,0.0188187,0.007748,0.005169,0.001507,0.0077872
0.017176,0.009204,0.0178725,0.008014,0.005194,0.001040,0.0079325
0.016716,0.009522,0.0174313,0.008109,0.005294,0.000766,0.0079833
0.016440,0.009738,0.0170809,0.008101,0.005387,0.000686,0.0080387
0.016337,0.009956,0.0167213,0.008121,0.005523,0.000602,0.0080230
0.015982,0.010217,0.0164176,0.008093,0.005611,0.000550,0.0080384
0.015415,0.010541,0.0162964,0.008067,0.005653,0.000550,0.0080226
0.014918,0.010720,0.0162074,0.008069,0.005742,0.000550,0.0080431
0.014454,0.011070,0.0160810,0.008135,0.005769,0.000550,0.0080840
0.014112,0.011443,0.0158605,0.008309,0.005790,0.000569,0.0081584
0.013451,0.011973,0.0154739,0.008598,0.005819,0.000702,0.0081999
0.012866,0.012415,0.0151344,0.008851,0.005843,0.000788,0.0082625
0.012606,0.012771,0.0148411,0.009054,0.005896,0.000788,0.0083458
0.012313,0.012873,0.0146505,0.009234,0.006041,0.000788,0.0083683
0.012079,0.013055,0.0145159,0.009457,0.006184,0.000763,0.0083582
0.011878,0.013013,0.0144201,0.009544,0.006407,0.000705,0.0083638
0.011875,0.012983,0.0143653,0.009620,0.006590,0.000581,0.0084109
0.011915,0.012935,0.0143736,0.009606,0.006786,0.000434,0.0084645
0.011906,0.013100,0.0142709,0.009644,0.006959,0.000238,0.0084358
0.011509,0.013565,0.0140390,0.009720,0.007007,0.000331,0.0083410
0.011192,0.014049,0.0136944,0.009767,0.006959,0.000689,0.0082275
0.011065,0.014278,0.0133993,0.009784,0.006847,0.001014,0.0081877
0.011018,0.014491,0.0131815,0.009799,0.006721,0.001333,0.0082048
0.011053,0.014361,0.0130023,0.009865,0.006735,0.001580,0.0082008
0.011327,0.014095,0.0129119,0.009883,0.006810,0.001659,0.0082562
0.011574,0.013810,0.0128901,0.009854,0.006844,0.001750,0.0082883
0.012032,0.013278,0.0129393,0.009857,0.006951,0.001750,0.0083206
0.012278,0.012722,0.0131041,0.009913,0.007107,0.001750,0.0084079
0.012613,0.012326,0.0131126,0.009859,0.007227,0.001895,0.0084366
0.012949,0.011993,0.0130794,0.009786,0.007319,0.002143,0.0083936
0.013236,0.011772,0.0129995,0.009649,0.007229,0.002460,0.0083632
0.013760,0.011402,0.0129149,0.009533,0.007136,0.002663,0.0083991
0.014112,0.011124,0.0127670,0.009390,0.007032,0.002940,0.0084488
0.014277,0.010834,0.0125236,0.009209,0.006921,0.003307,0.0085660
0.014272,0.010743,0.0122403,0.009058,0.006728,0.003652,0.0087086
0.014355,0.010634,0.0118959,0.008982,0.006516,0.004093,0.0088422
0.014373,0.010673,0.0116349,0.008948,0.006281,0.004462,0.0089750
0.014155,0.010737,0.0112537,0.008930,0.006067,0.004993,0.0090302
0.013953,0.010975,0.0108854,0.008959,0.005834,0.005561,0.0091185
0.013748,0.010987,0.0106239,0.009019,0.005641,0.006206,0.0092751
0.013780,0.010995,0.0104443,0.009003,0.005558,0.006725,0.0093745
0.013686,0.010825,0.0104316,0.008979,0.005596,0.006794,0.0096320
0.013364,0.010614,0.0104383,0.008911,0.005706,0.006765,0.0099408
0.013053,0.010531,0.0104478,0.008826,0.005784,0.006857,0.0101970
0.012698,0.010684,0.0104664,0.008669,0.005683,0.007001,0.0104659
0.012083,0.011119,0.0103576,0.008582,0.005490,0.007367,0.0106167
0.011522,0.011627,0.0101506,0.008495,0.005291,0.007693,0.0108156
0.011017,0.012339,0.0099603,0.008327,0.005062,0.008089,0.0108885
0.010655,0.013146,0.0096607,0.008104,0.004756,0.008612,0.0109504
0.010220,0.013713,0.0093660,0.007911,0.004497,0.009111,0.0111549
0.009765,0.014173,0.0091302,0.007782,0.004264,0.009502,0.0115254
0.009342,0.014468,0.0089502,0.007686,0.004229,0.009735,0.0118733
0.008885,0.014835,0.0089305,0.007490,0.004185,0.009933,0.0121506
0.008513,0.015228,0.0089586,0.007381,0.004109,0.010081,0.0123812
0.008236,0.015663,0.0089033,0.007320,0.003991,0.010402,0.0124814
0.008032,0.016085,0.0088914,0.007262,0.003899,0.010643,0.0125262
0.007894,0.016499,0.0089736,0.007118,0.003855,0.010592,0.0125137
0.007868,0.016965,0.0090418,0.006973,0.003758,0.010557,0.0123862
0.008080,0.017364,0.0091813,0.006763,0.003710,0.010411,0.0123134
0.008301,0.017404,0.0092007,0.006575,0.003715,0.010259,0.0122634
0.008544,0.017573,0.0092102,0.006378,0.003705,0.009962,0.0122424
0.008694,0.017701,0.0092915,0.006252,0.003656,0.009526,0.0123118
0.008908,0.018090,0.0093170,0.006115,0.003574,0.009240,0.0122500
0.009027,0.018642,0.0092288,0.006049,0.003496,0.009163,0.0120504
0.009181,0.019198,0.0090591,0.006031,0.003400,0.009126,0.0118652
0.009313,0.019939,0.0089034,0.006080,0.003269,0.009059,0.0116634
0.009482,0.020596,0.0087875,0.006086,0.003136,0.008922,0.0114113
0.009663,0.021099,0.0086282,0.006192,0.003055,0.008924,0.0110894
0.009989,0.021400,0.0083875,0.006376,0.002972,0.008995,0.0108462
0.010701,0.021681,0.0081254,0.006582,0.002875,0.009193,0.0104485
0.011694,0.022068,0.0078987,0.006786,0.002713,0.009618,0.0098645
0.013231,0.022502,0.0078491,0.006784,0.002585,0.010230,0.0091149
0.014982,0.023050,0.0078483,0.006727,0.002453,0.011060,0.0083597
0.016687,0.024375,0.0078347,0.006671,0.002377,0.011967,0.0076455
0.018838,0.026204,0.0079879,0.006487,0.002267,0.013113,0.0069723
0.022275,0.029160,0.0082350,0.006309,0.002175,0.014271,0.0063696
0.025222,0.031955,0.0084924,0.006212,0.002191,0.015255,0.0060652
0.028271,0.035283,0.0090385,0.006039,0.002288,0.016180,0.0059616
0.032096,0.038041,0.0092437,0.005940,0.002383,0.017505,0.0058662
0.037378,0.040640,0.0098439,0.005827,0.002689,0.018690,0.0057329
0.042926,0.043250,0.0105897,0.005679,0.003145,0.019791,0.0055673
0.048645,0.045282,0.0116117,0.005439,0.003769,0.021014,0.0053137
0.054599,0.046987,0.0125906,0.005217,0.004460,0.022681,0.0049467
0.060266,0.047753,0.0135642,0.004968,0.005373,0.024285,0.0046767
0.065044,0.048006,0.0146155,0.004657,0.006554,0.025606,0.0045436
0.069657,0.047718,0.0157252,0.004323,0.007764,0.026837,0.0043852
0.074539,0.047237,0.0167244,0.003953,0.009107,0.028154,0.0042253
0.079336,0.046762,0.0177192,0.003580,0.010657,0.029419,0.0040687
0.084386,0.046574,0.0188617,0.003127,0.012306,0.030518,0.0038121
0.089271,0.046496,0.0198377,0.002666,0.014012,0.031543,0.0035630
0.093571,0.045814,0.0208188,0.002284,0.016034,0.032369,0.0034059
0.096977,0.045234,0.0217738,0.001981,0.018247,0.032777,0.0033414
0.099299,0.044626,0.0226603,0.001824,0.020895,0.032802,0.0033795
0.101238,0.043729,0.0235071,0.001760,0.023989,0.032612,0.0034955
0.102448,0.042068,0.0239563,0.001921,0.027204,0.032584,0.0035680
0.103015,0.039373,0.0241934,0.002210,0.030478,0.032061,0.0038657
0.102003,0.035496,0.0243861,0.002496,0.033610,0.031416,0.0042524
0.101122,0.032201,0.0244178,0.002737,0.036419,0.031157,0.0043633
0.099807,0.028610,0.0240432,0.003128,0.039166,0.030940,0.0044313
0.097665,0.025318,0.0242035,0.003363,0.042091,0.030442,0.0045686
0.094275,0.022357,0.0239567,0.003650,0.044721,0.030137,0.0046900
0.090483,0.019527,0.0237120,0.003955,0.047169,0.029887,0.0047705
0.086323,0.016862,0.0233046,0.004393,0.049421,0.029477,0.0048821
0.081766,0.014680,0.0229371,0.004818,0.051533,0.028705,0.0050950
0.077309,0.013313,0.0225788,0.005262,0.053382,0.027986,0.0052310
0.073765,0.012106,0.0221387,0.005726,0.055079,0.027538,0.0052810
0.070570,0.011256,0.0218164,0.006165,0.056790,0.026897,0.0054250
0.067234,0.010457,0.0215841,0.006618,0.058313,0.026221,0.0056178
0.063874,0.009639,0.0212830,0.007155,0.059495,0.025537,0.0059325
0.060011,0.008852,0.0208904,0.007723,0.059964,0.024820,0.0063823
0.056086,0.008231,0.0207069,0.008301,0.060457,0.024050,0.0068197
0.052230,0.008134,0.0206088,0.009121,0.060650,0.023182,0.0071477
0.048809,0.008107,0.0206464,0.010037,0.060740,0.022405,0.0072835
0.045860,0.007892,0.0205129,0.011040,0.060580,0.021763,0.0074149
0.043250,0.007522,0.0201119,0.012096,0.060030,0.021072,0.0074972
0.041299,0.007698,0.0197825,0.013140,0.058986,0.019988,0.0076874
0.039246,0.008500,0.0193527,0.014229,0.057973,0.019062,0.0076903
0.037286,0.009065,0.0189586,0.015291,0.057195,0.017994,0.0076755
0.035627,0.009074,0.0185239,0.016310,0.056723,0.016796,0.0078951
0.034127,0.008737,0.0181257,0.017392,0.056173,0.015781,0.0080597
0.032601,0.008603,0.0174791,0.019032,0.055530,0.014710,0.0081703
0.030826,0.008069,0.0169188,0.021033,0.054898,0.013496,0.0082887
0.029102,0.007780,0.0163102,0.023069,0.054067,0.012288,0.0083965
0.027339,0.008310,0.0154978,0.025066,0.053078,0.011250,0.0084444
0.025754,0.008639,0.0146283,0.027028,0.052171,0.010241,0.0085176
0.024344,0.008932,0.0137445,0.028979,0.051310,0.009281,0.0085987
0.023076,0.009434,0.0128928,0.030849,0.050251,0.008293,0.0086930
0.021473,0.010082,0.0119296,0.032608,0.048931,0.007491,0.0087272
0.019605,0.010701,0.0109209,0.034163,0.047721,0.006747,0.0087673
0.017764,0.011146,0.0099722,0.035568,0.046558,0.006079,0.0088117
0.016112,0.011326,0.0090526,0.036962,0.045880,0.005500,0.0088948
0.014515,0.011234,0.0081174,0.038332,0.045123,0.004999,0.0089728
0.013094,0.011138,0.0071735,0.039446,0.044281,0.004528,0.0091325
0.011787,0.011062,0.0062235,0.040518,0.043298,0.004060,0.0094330
0.010584,0.011394,0.0053436,0.041703,0.041956,0.003626,0.0095923
0.009332,0.012288,0.0047584,0.043245,0.040461,0.003275,0.0096349
0.008250,0.012546,0.0044140,0.044675,0.039146,0.003103,0.0096690
0.007429,0.012433,0.0041710,0.045609,0.037687,0.003101,0.0098449
0.006677,0.012554,0.0039375,0.046365,0.036124,0.003207,0.0100317
0.005955,0.012737,0.0038630,0.047103,0.034490,0.003333,0.0099963
0.005258,0.012959,0.0038290,0.047805,0.032789,0.003491,0.0099275
0.004595,0.013194,0.0038257,0.048154,0.030978,0.003637,0.0098971
0.003948,0.013682,0.0037948,0.048141,0.029216,0.003806,0.0099061
0.003394,0.013992,0.0037620,0.048055,0.027657,0.003971,0.0099572
0.003172,0.013901,0.0037939,0.047875,0.026214,0.004067,0.0100900
0.003138,0.014003,0.0038520,0.047985,0.024536,0.004150,0.0101113
0.003160,0.014254,0.0039429,0.048501,0.022788,0.004193,0.0100741
0.003265,0.014634,0.0040408,0.049525,0.021052,0.004173,0.0100499
0.003441,0.015073,0.0041265,0.050772,0.019558,0.004110,0.0100578
0.003687,0.015520,0.0042304,0.052129,0.018023,0.004007,0.0101009
0.003926,0.016093,0.0043424,0.053509,0.016515,0.003908,0.0100906
0.004125,0.016449,0.0044532,0.054349,0.015197,0.003829,0.0100613
0.004265,0.016770,0.0045377,0.054893,0.014001,0.003775,0.0100681
0.004420,0.017314,0.0046667,0.055286,0.012906,0.003695,0.0099938
0.004666,0.017859,0.0048344,0.055593,0.011875,0.003537,0.0098403
0.004905,0.018231,0.0049719,0.055947,0.010944,0.003390,0.0097714
0.005122,0.018374,0.0050836,0.055874,0.010114,0.003268,0.0097531
0.005311,0.018632,0.0051942,0.055729,0.009408,0.003151,0.0096668
0.005527,0.019124,0.0053455,0.056003,0.008794,0.002977,0.0094154
0.005759,0.019691,0.0055314,0.056544,0.008179,0.002758,0.0090661
0.006006,0.020388,0.0057282,0.057106,0.007545,0.002519,0.0086880
0.006219,0.021146,0.0059224,0.057547,0.006997,0.002292,0.0083047
0.006349,0.021685,0.0060659,0.057279,0.006618,0.002129,0.0080170
0.006394,0.021994,0.0061591,0.056564,0.006361,0.002035,0.0078011
0.006426,0.022236,0.0063016,0.055665,0.006103,0.001938,0.0075481
0.006444,0.022522,0.0064649,0.054803,0.005916,0.001827,0.0072149
0.006347,0.022556,0.0065731,0.053662,0.005970,0.001794,0.0069574
0.006203,0.022492,0.0066940,0.052126,0.006045,0.001792,0.0067621
0.006020,0.022390,0.0068590,0.050172,0.006112,0.001811,0.0065479
0.005834,0.022214,0.0070492,0.048100,0.006189,0.001839,0.0063135
0.005630,0.021969,0.0072555,0.046065,0.006393,0.001873,0.0060181
0.005418,0.021700,0.0074535,0.043864,0.006725,0.001912,0.0057785
0.005190,0.021607,0.0077408,0.042063,0.007035,0.001972,0.0055558
0.004976,0.021626,0.0081040,0.040481,0.007246,0.002022,0.0053291
0.004730,0.021448,0.0084135,0.038931,0.007488,0.002128,0.0052147
0.004427,0.021048,0.0086806,0.037302,0.007787,0.002305,0.0052324
0.004110,0.020574,0.0089480,0.035384,0.008133,0.002527,0.0052988
0.003775,0.020026,0.0092359,0.033457,0.008495,0.002827,0.0054242
0.003517,0.019387,0.0095488,0.031598,0.008851,0.003171,0.0055636
0.003363,0.018682,0.0099189,0.029712,0.009172,0.003512,0.0057077
0.003352,0.017790,0.0103184,0.027742,0.009498,0.003860,0.0058788
0.003657,0.016681,0.0106991,0.025730,0.009813,0.004251,0.0061277
0.004029,0.015643,0.0111935,0.023639,0.010027,0.004611,0.0063731
0.004560,0.014879,0.0116067,0.022128,0.010047,0.004878,0.0065508
0.005721,0.014221,0.0119843,0.021033,0.009930,0.005209,0.0066276
0.007300,0.013485,0.0125081,0.019979,0.009808,0.005295,0.0067367
0.008851,0.012767,0.0130131,0.018898,0.009661,0.005352,0.0068024
0.010336,0.012117,0.0135626,0.017844,0.009453,0.005341,0.0068231
0.011869,0.011438,0.0139549,0.016810,0.009265,0.005339,0.0068547
0.013413,0.010616,0.0142735,0.015814,0.009156,0.005345,0.0069060
0.014617,0.009742,0.0146336,0.014832,0.009075,0.005220,0.0069839
0.015246,0.009174,0.0148158,0.013904,0.008895,0.005200,0.0070622
0.015639,0.008741,0.0149562,0.013140,0.008664,0.005193,0.0071287
0.016141,0.008379,0.0149907,0.012504,0.008383,0.005170,0.0071825
0.016594,0.008094,0.0150047,0.011988,0.008062,0.005075,0.0072732
0.017072,0.007960,0.0149937,0.011576,0.007726,0.004924,0.0073469
0.017632,0.007884,0.0149817,0.011198,0.007370,0.004705,0.0074229
0.018155,0.007815,0.0149577,0.010905,0.007008,0.004484,0.0075731
0.018692,0.007786,0.0149135,0.010565,0.006612,0.004203,0.0076736
0.019135,0.007791,0.0149017,0.010212,0.006251,0.003885,0.0077749
0.019442,0.007820,0.0148764,0.009866,0.005977,0.003513,0.0078687
0.019638,0.007933,0.0148033,0.009369,0.005770,0.003143,0.0079574
0.019496,0.008260,0.0147542,0.008862,0.005555,0.002752,0.0080260
0.019330,0.008604,0.0146167,0.008540,0.005420,0.002377,0.0079981
0.019081,0.008908,0.0145577,0.008317,0.005401,0.002040,0.0078979
0.018296,0.009252,0.0145299,0.008128,0.005443,0.001582,0.0078291
0.017051,0.009822,0.0143108,0.008245,0.005413,0.001368,0.0077245
0.015756,0.010414,0.0140123,0.008454,0.005354,0.001232,0.0077377
0.014536,0.010821,0.0136968,0.008740,0.005357,0.001161,0.0078072
0.013475,0.011076,0.0135528,0.008943,0.005411,0.001055,0.0078980
0.012414,0.011447,0.0134921,0.009131,0.005455,0.000946,0.0079936
0.011736,0.011825,0.0133558,0.009341,0.005456,0.000946,0.0080540
0.011701,0.012062,0.0134038,0.009514,0.005437,0.000812,0.0081100
0.011797,0.012265,0.0135070,0.009676,0.005416,0.000658,0.0081636
0.011916,0.012389,0.0136295,0.009871,0.005429,0.000478,0.0082015
0.012036,0.012584,0.0136578,0.010097,0.005430,0.000356,0.0081899
0.012124,0.012633,0.0136664,0.010209,0.005463,0.000273,0.0081923
0.012172,0.012660,0.0136920,0.010336,0.005474,0.000242,0.0082135
0.012193,0.012838,0.0137657,0.010506,0.005478,0.000188,0.0081205
0.012194,0.013041,0.0138021,0.010707,0.005535,0.000124,0.0080701
0.012176,0.013267,0.0137222,0.010894,0.005613,0.000058,0.0080041
0.012052,0.013682,0.0136214,0.010988,0.005592,0.000075,0.0079204
0.011920,0.014192,0.0135407,0.011184,0.005522,0.000082,0.0078213
0.011862,0.014498,0.0134754,0.011408,0.005530,0.000082,0.0076921
0.011810,0.014472,0.0133209,0.011585,0.005600,0.000082,0.0077477
0.011725,0.014338,0.0132870,0.011656,0.005612,0.000082,0.0079388
0.011630,0.014234,0.0133046,0.011706,0.005583,0.000082,0.0081237
0.011563,0.013910,0.0133149,0.011685,0.005628,0.000096,0.0084221
0.011466,0.013445,0.0133823,0.011629,0.005684,0.000156,0.0087594
0.011178,0.013141,0.0134144,0.011497,0.005700,0.000318,0.0090622
0.010766,0.013026,0.0133946,0.011410,0.005664,0.000541,0.0092868
0.010478,0.012839,0.0134100,0.011185,0.005640,0.000708,0.0095133
0.010296,0.012744,0.0133492,0.010901,0.005607,0.000996,0.0096857
0.010068,0.012670,0.0133029,0.010592,0.005564,0.001281,0.0097937
0.010124,0.012467,0.0132275,0.010309,0.005573,0.001516,0.0098701
0.010267,0.012352,0.0130644,0.010025,0.005510,0.001881,0.0099235
0.010524,0.012237,0.0128997,0.009660,0.005445,0.002286,0.0100507
0.010556,0.012185,0.0126513,0.009402,0.005416,0.002823,0.0101017
0.010807,0.012039,0.0124078,0.009167,0.005457,0.003247,0.0101082
0.011195,0.011820,0.0121360,0.008945,0.005540,0.003568,0.0101463
0.011499,0.011669,0.0118483,0.008743,0.005569,0.003952,0.0101203
0.011711,0.011705,0.0116748,0.008588,0.005561,0.004221,0.0103092
0.011895,0.011609,0.0115726,0.008514,0.005657,0.004310,0.0104553
0.012097,0.011640,0.0114721,0.008457,0.005706,0.004386,0.0106007
0.012019,0.012085,0.0113202,0.008414,0.005653,0.004513,0.0108545
0.011832,0.012764,0.0111439,0.008358,0.005534,0.004789,0.0110574
0.011712,0.013624,0.0108821,0.008295,0.005399,0.005116,0.0112109
0.011564,0.014750,0.0105910,0.008214,0.005274,0.005444,0.0113744
0.011454,0.015837,0.0102981,0.008021,0.005151,0.005782,0.0114303
0.011450,0.016986,0.0100478,0.007808,0.005052,0.006029,0.0114474
0.011575,0.018122,0.0097922,0.007640,0.004964,0.006198,0.0116555
0.011605,0.019494,0.0096171,0.007488,0.004854,0.006271,0.0118325
0.011348,0.020789,0.0093703,0.007447,0.004812,0.006300,0.0121777
0.011024,0.022092,0.0091668,0.007501,0.004760,0.006339,0.0126140
0.010764,0.023324,0.0089492,0.007593,0.004732,0.006425,0.0130267
0.010659,0.024678,0.0086418,0.007755,0.004645,0.006651,0.0134238
0.010444,0.026174,0.0084484,0.007866,0.004576,0.006713,0.0137939
0.010333,0.027378,0.0082580,0.007930,0.004567,0.006745,0.0139522
0.010643,0.028434,0.0082228,0.007916,0.004473,0.006575,0.0140937
0.010680,0.029641,0.0082932,0.007817,0.004324,0.006320,0.0141614
0.010777,0.030555,0.0083311,0.007666,0.004126,0.006288,0.0141926
0.010739,0.031874,0.0084969,0.007499,0.003944,0.006107,0.0143524
0.010707,0.032751,0.0085982,0.007352,0.003755,0.006031,0.0143477
0.010870,0.033480,0.0085737,0.007206,0.003543,0.006193,0.0143778
0.010879,0.034177,0.0085692,0.007084,0.003374,0.006376,0.0144105
0.011268,0.034575,0.0085044,0.007068,0.003230,0.006674,0.0142627
0.011727,0.035221,0.0085641,0.006964,0.003120,0.006737,0.0140877
0.012140,0.035734,0.0086809,0.006822,0.003071,0.006643,0.0138259
0.012568,0.035889,0.0087903,0.006732,0.003042,0.006547,0.0134952
0.013039,0.036129,0.0088581,0.006691,0.002997,0.006528,0.0131662
0.013860,0.036166,0.0088620,0.006658,0.002968,0.006590,0.0127946
0.014680,0.036127,0.0089057,0.006583,0.002958,0.006623,0.0123327
0.015862,0.035593,0.0087479,0.006540,0.002967,0.007002,0.0120447
0.018528,0.035061,0.0083037,0.006682,0.002800,0.008259,0.0115532
0.021975,0.035076,0.0079560,0.006763,0.002656,0.009614,0.0109303
0.025461,0.035657,0.0076576,0.006877,0.002519,0.010966,0.0104392
0.028636,0.036594,0.0075395,0.006930,0.002440,0.012012,0.0100098
0.032575,0.037402,0.0075790,0.007248,0.002501,0.012805,0.0095997
0.036678,0.037994,0.0079482,0.007757,0.002575,0.013406,0.0092347
0.040493,0.038253,0.0085282,0.008227,0.003257,0.013442,0.0089926
0.044364,0.038142,0.0090790,0.008669,0.003959,0.013784,0.0087171
0.047962,0.037989,0.0098998,0.008964,0.004645,0.014105,0.0084410
0.051314,0.036961,0.0107716,0.009218,0.005390,0.014368,0.0081441
0.054847,0.036584,0.0115949,0.009415,0.006206,0.014850,0.0077093
0.058699,0.035842,0.0124776,0.009612,0.006962,0.015316,0.0072312
0.062924,0.034395,0.0137513,0.009665,0.007787,0.015844,0.0067880
0.067079,0.033048,0.0151588,0.009597,0.009026,0.016269,0.0064250
0.070614,0.031908,0.0163560,0.009676,0.010422,0.017154,0.0059598
0.073944,0.030932,0.0173762,0.009715,0.011901,0.018296,0.0055634
0.077301,0.030400,0.0182315,0.009556,0.013694,0.019510,0.0052332
0.080611,0.030398,0.0191695,0.009377,0.015650,0.020605,0.0049367
0.084072,0.030569,0.0198779,0.009306,0.017615,0.022086,0.0046340
0.087448,0.030534,0.0203857,0.009322,0.019665,0.023754,0.0043089
0.089855,0.031277,0.0210953,0.009292,0.021538,0.024833,0.0040193
0.090940,0.032115,0.0218932,0.009140,0.023939,0.025150,0.0037704
0.091265,0.032230,0.0222768,0.009137,0.026502,0.025346,0.0035924
0.091472,0.031570,0.0224549,0.009185,0.029052,0.025492,0.0033856
0.091527,0.030174,0.0228408,0.009160,0.031657,0.025779,0.0031962
0.090698,0.028540,0.0236042,0.008690,0.034272,0.026412,0.0030579
0.089651,0.027367,0.0237766,0.008173,0.037170,0.027090,0.0031094
0.088805,0.026725,0.0236892,0.007718,0.039164,0.028243,0.0031797
0.087739,0.026259,0.0235193,0.007392,0.040972,0.029154,0.0034212
0.086552,0.025828,0.0230488,0.007259,0.043085,0.030044,0.0036450
0.085854,0.025269,0.0225553,0.007102,0.044931,0.030874,0.0038814
0.084974,0.024144,0.0220749,0.006873,0.046580,0.031486,0.0042207
0.083017,0.023984,0.0216754,0.006574,0.048465,0.031681,0.0046168
0.080661,0.024898,0.0208928,0.006395,0.050214,0.031707,0.0048474
0.078149,0.025508,0.0200525,0.006315,0.051529,0.031670,0.0050271
0.075775,0.025680,0.0193794,0.006207,0.052305,0.031275,0.0053186
0.073436,0.025566,0.0188895,0.006177,0.053164,0.030502,0.0057238
0.071380,0.025257,0.0186345,0.006332,0.053821,0.029458,0.0061903
0.069243,0.024310,0.0182437,0.006561,0.054316,0.028305,0.0066926
0.066317,0.023573,0.0176295,0.006913,0.054738,0.026638,0.0071997
0.063170,0.023474,0.0170565,0.007243,0.054856,0.024930,0.0075102
0.060419,0.022527,0.0163350,0.007657,0.055187,0.023649,0.0076644
0.057618,0.021561,0.0157944,0.007993,0.055088,0.022356,0.0078068
0.054658,0.020978,0.0156376,0.008160,0.054617,0.020932,0.0079964
0.051458,0.020814,0.0155879,0.008426,0.054157,0.019620,0.0081685
0.048227,0.020471,0.0152222,0.009292,0.053908,0.018471,0.0083371
0.044963,0.019757,0.0143428,0.010440,0.053439,0.017220,0.0085804
0.041590,0.018794,0.0138246,0.011468,0.052549,0.016072,0.0087538
0.038123,0.018024,0.0133322,0.012451,0.051869,0.015079,0.0088932
0.034816,0.017669,0.0128329,0.013513,0.051424,0.014219,0.0089385
0.031595,0.017403,0.0124201,0.014514,0.050903,0.013380,0.0089813
0.028124,0.017602,0.0118465,0.015626,0.050420,0.012805,0.0089330
0.024769,0.017916,0.0111500,0.016920,0.050078,0.012167,0.0088844
0.022138,0.017737,0.0102631,0.018289,0.049512,0.011824,0.0088676
0.019648,0.016990,0.0093909,0.020166,0.048841,0.011502,0.0089737
0.017225,0.016605,0.0085316,0.022203,0.048056,0.011177,0.0091352
0.015303,0.016136,0.0076342,0.024358,0.047603,0.010858,0.0093764
0.013553,0.015525,0.0066983,0.026557,0.046845,0.010776,0.0094967
0.011501,0.014853,0.0057260,0.028591,0.045874,0.010879,0.0095401
0.009514,0.014750,0.0049515,0.030149,0.044553,0.010974,0.0095396
0.007813,0.014351,0.0046290,0.031584,0.043316,0.011104,0.0096746
0.006475,0.013402,0.0044044,0.033013,0.042442,0.011108,0.0099959
0.005365,0.012374,0.0042204,0.034447,0.041743,0.011001,0.0103300
0.004287,0.011344,0.0040587,0.035900,0.040939,0.010884,0.0106669
0.003293,0.010038,0.0038402,0.037618,0.040010,0.010800,0.0111133
0.002570,0.008609,0.0036721,0.039579,0.039040,0.010595,0.0115397
0.002005,0.007887,0.0034974,0.041232,0.037629,0.010324,0.0120454
0.001541,0.007765,0.0032641,0.042831,0.036255,0.010100,0.0125196
0.001096,0.007554,0.0029637,0.043966,0.035004,0.009939,0.0130659
0.000652,0.007098,0.0026512,0.045063,0.033899,0.009786,0.0136083
0.000241,0.006348,0.0023264,0.046017,0.032709,0.009635,0.0142429
0.000000,0.005754,0.0019710,0.046857,0.031319,0.009393,0.0149366
0.000000,0.005198,0.0016666,0.047631,0.030069,0.009089,0.0156376
0.000000,0.004648,0.0015252,0.048335,0.028849,0.008847,0.0162903
0.000051,0.004305,0.0015448,0.049001,0.027482,0.008605,0.0167254
0.000159,0.004341,0.0015494,0.049612,0.026086,0.008395,0.0170767
0.000320,0.004528,0.0015543,0.050116,0.024587,0.008157,0.0174616
0.000495,0.004853,0.0016156,0.050390,0.023054,0.007882,0.0177331
0.000732,0.005711,0.0017202,0.050492,0.021587,0.007530,0.0178501
0.000963,0.006307,0.0018023,0.050429,0.020229,0.007218,0.0180485
0.001198,0.006386,0.0018154,0.050598,0.019238,0.007040,0.0182513
0.001415,0.006576,0.0018614,0.050662,0.018239,0.006906,0.0183371
0.001616,0.006998,0.0019465,0.050694,0.017150,0.006758,0.0183396
0.001821,0.007815,0.0020586,0.050563,0.015826,0.006592,0.0183177
0.002062,0.008814,0.0022102,0.050301,0.014588,0.006387,0.0181562
0.002291,0.009816,0.0024267,0.049871,0.013690,0.006158,0.0178040
0.002522,0.010704,0.0026357,0.049116,0.012816,0.005940,0.0174824
0.002738,0.011269,0.0028622,0.048119,0.012061,0.005736,0.0171403
0.002944,0.011824,0.0031043,0.047030,0.011342,0.005527,0.0167619
0.003105,0.012615,0.0033538,0.045978,0.010668,0.005319,0.0163429
0.003286,0.013401,0.0036239,0.045280,0.009947,0.005084,0.0158132
0.003475,0.014215,0.0038699,0.044830,0.009210,0.004867,0.0153227
0.003655,0.014997,0.0041226,0.044538,0.008516,0.004664,0.0148652
0.003843,0.015855,0.0044397,0.044257,0.007854,0.004443,0.0143508
0.004058,0.016871,0.0048062,0.043952,0.007156,0.004201,0.0137472
0.004265,0.017678,0.0051244,0.043680,0.006620,0.003987,0.0132575
0.004420,0.018161,0.0054002,0.042976,0.006338,0.003816,0.0128434
0.004531,0.018386,0.0056778,0.042170,0.006325,0.003670,0.0123873
0.004625,0.018566,0.0059438,0.041539,0.006395,0.003543,0.0119150
0.004678,0.018469,0.0061609,0.040993,0.006535,0.003489,0.0116188
0.004722,0.018534,0.0064190,0.040639,0.006631,0.003419,0.0112681
0.004928,0.018809,0.0067305,0.040461,0.006710,0.003245,0.0108389
0.005197,0.018999,0.0070614,0.040321,0.006770,0.003041,0.0103822
0.005563,0.018974,0.0074297,0.040125,0.006838,0.002849,0.0099405
0.006003,0.018708,0.0078473,0.039566,0.007040,0.002723,0.0095984
0.006466,0.018222,0.0082605,0.038899,0.007274,0.002671,0.0092939
0.006978,0.017757,0.0086755,0.038034,0.007514,0.002605,0.0089894
0.007472,0.017202,0.0090813,0.036908,0.007773,0.002582,0.0087013
0.008037,0.016880,0.0095514,0.035733,0.007902,0.002527,0.0083223
0.008580,0.016522,0.0100989,0.034492,0.008056,0.002506,0.0079520
0.009102,0.016232,0.0106189,0.033614,0.008117,0.002606,0.0075297
0.009872,0.015923,0.0111340,0.032325,0.008130,0.002671,0.0072502
0.010780,0.015674,0.0116077,0.030793,0.008082,0.002737,0.0069370
0.011785,0.015300,0.0120549,0.029144,0.008028,0.002757,0.0065916
0.012742,0.014820,0.0125549,0.027375,0.007973,0.002782,0.0063355
0.013756,0.014146,0.0129872,0.025623,0.007917,0.002851,0.0062146
0.014852,0.013506,0.0133517,0.023909,0.007870,0.002867,0.0061743
0.015903,0.012891,0.0138840,0.022145,0.007769,0.002922,0.0062045
0.016724,0.012327,0.0144194,0.020347,0.007652,0.003026,0.0062008
0.017456,0.011725,0.0149828,0.018457,0.007577,0.003028,0.0062404
0.018368,0.011042,0.0156343,0.016584,0.007503,0.003026,0.0062721
0.019339,0.010371,0.0162475,0.014933,0.007428,0.003020,0.0062729
0.020091,0.009709,0.0168481,0.013303,0.007341,0.003079,0.0063388
0.020907,0.009171,0.0173329,0.011674,0.007231,0.003148,0.0064132
0.021523,0.008830,0.0177402,0.010130,0.007051,0.003129,0.0064750
0.021823,0.008794,0.0180609,0.009095,0.006767,0.003054,0.0064959
0.021893,0.008966,0.0181829,0.008365,0.006428,0.003022,0.0065799
0.021820,0.009156,0.0182107,0.007831,0.006113,0.002947,0.0067379
0.021733,0.009458,0.0181924,0.007480,0.005793,0.002852,0.0068900
0.021341,0.009649,0.0180751,0.007331,0.005603,0.002815,0.0070382
0.020891,0.009960,0.0178031,0.007453,0.005374,0.002794,0.0071911
0.020519,0.010294,0.0176927,0.007603,0.005141,0.002610,0.0073505
0.019893,0.010706,0.0175784,0.008037,0.004939,0.002487,0.0074778
