"1 Chan 1","2 Chan 2","3 Chan 3","4 Chan 4","5 Chan 5","6 Chan 6","7 Chan 7"
0.000800,0.010470,0.011606,0.036876,0.019578,0.0169659,0.007103
0.000905,0.010840,0.011366,0.032853,0.019072,0.0176374,0.006726
0.001123,0.011114,0.011187,0.029321,0.018668,0.0180332,0.006274
0.001367,0.011345,0.011083,0.026036,0.018449,0.0182382,0.005808
0.001622,0.011595,0.011021,0.022743,0.018323,0.0184413,0.005346
0.001941,0.011815,0.010928,0.019864,0.018213,0.0184467,0.004826
0.002248,0.012022,0.010819,0.017193,0.018130,0.0183358,0.004335
0.002526,0.012316,0.010757,0.014401,0.018092,0.0182455,0.003931
0.002654,0.012622,0.010764,0.012171,0.018051,0.0181065,0.003702
0.002693,0.013004,0.010806,0.010452,0.018053,0.0179694,0.003535
0.002680,0.013418,0.010847,0.008827,0.018059,0.0178487,0.003418
0.002631,0.013886,0.010892,0.007762,0.017832,0.0177205,0.003320
0.002752,0.014531,0.010886,0.007480,0.017581,0.0174457,0.003078
0.002939,0.015325,0.010911,0.007583,0.017486,0.0171709,0.002816
0.003173,0.016117,0.010880,0.008013,0.017479,0.0167923,0.002551
0.003420,0.016867,0.010870,0.008630,0.017446,0.0161972,0.002268
0.003657,0.017980,0.010862,0.009154,0.017359,0.0158085,0.002009
0.003892,0.018977,0.010787,0.009614,0.017348,0.0154888,0.001792
0.004119,0.019870,0.010717,0.010144,0.017295,0.0150967,0.001573
0.004386,0.020725,0.010660,0.010842,0.017226,0.0145537,0.001316
0.004599,0.021491,0.010642,0.011050,0.017113,0.0142138,0.001115
0.004865,0.022230,0.010589,0.011460,0.016999,0.0138769,0.000896
0.005043,0.023021,0.010596,0.011937,0.016865,0.0136046,0.000740
0.005067,0.023812,0.010561,0.012320,0.016654,0.0136800,0.000708
0.005079,0.024325,0.010500,0.012758,0.016339,0.0136726,0.000680
0.005095,0.024780,0.010428,0.013280,0.015884,0.0137180,0.000640
0.005024,0.025310,0.010363,0.013633,0.015360,0.0141370,0.000663
0.004967,0.026049,0.010285,0.013962,0.014837,0.0146135,0.000692
0.004890,0.026795,0.010206,0.014456,0.014259,0.0151934,0.000740
0.004780,0.027434,0.010082,0.014915,0.013661,0.0158871,0.000836
0.004642,0.027911,0.009916,0.015197,0.013036,0.0167104,0.000978
0.004622,0.028907,0.009732,0.015668,0.012418,0.0175096,0.001038
0.004666,0.029989,0.009566,0.016064,0.012015,0.0182171,0.001049
0.004632,0.030817,0.009429,0.016257,0.011697,0.0190181,0.001121
0.004653,0.031574,0.009298,0.016539,0.011406,0.0196124,0.001160
0.004595,0.032138,0.009168,0.016676,0.011149,0.0202292,0.001246
0.004558,0.033286,0.009027,0.016825,0.010898,0.0208042,0.001320
0.004526,0.034174,0.008938,0.017034,0.010754,0.0209326,0.001366
0.004457,0.035329,0.008928,0.017133,0.010542,0.0211422,0.001418
0.004324,0.036708,0.008955,0.017075,0.010356,0.0213438,0.001515
0.004144,0.037635,0.009015,0.016731,0.010235,0.0215606,0.001655
0.004050,0.038911,0.009082,0.016553,0.010139,0.0216614,0.001740
0.003860,0.040429,0.009158,0.016012,0.010040,0.0218226,0.001916
0.003638,0.042358,0.009241,0.015447,0.009933,0.0219806,0.002107
0.003445,0.043971,0.009343,0.014838,0.009829,0.0220429,0.002290
0.003205,0.045979,0.009433,0.014171,0.009592,0.0225419,0.002528
0.002947,0.048170,0.009489,0.013561,0.009414,0.0228351,0.002775
0.002735,0.050277,0.009559,0.012975,0.009341,0.0229013,0.002988
0.002554,0.051949,0.009636,0.012489,0.009268,0.0229515,0.003182
0.002416,0.053602,0.009670,0.012038,0.009205,0.0228515,0.003342
0.002305,0.055681,0.009710,0.011713,0.009255,0.0226740,0.003457
0.002254,0.057539,0.009744,0.011617,0.009257,0.0225907,0.003522
0.002103,0.058675,0.009821,0.011253,0.009320,0.0224428,0.003641
0.002010,0.059989,0.009914,0.010928,0.009429,0.0220581,0.003725
0.001988,0.061135,0.010003,0.010727,0.009587,0.0216019,0.003773
0.001933,0.062154,0.010058,0.010488,0.009727,0.0213958,0.003850
0.001867,0.063365,0.010165,0.010172,0.009855,0.0211583,0.003938
0.001696,0.063956,0.010286,0.009588,0.010002,0.0211590,0.004106
0.001527,0.064768,0.010351,0.009057,0.010044,0.0215449,0.004286
0.001411,0.065406,0.010379,0.008614,0.010045,0.0215978,0.004444
0.001381,0.065570,0.010400,0.008227,0.010118,0.0217113,0.004538
0.001365,0.066820,0.010421,0.007896,0.010159,0.0218202,0.004649
0.001299,0.067251,0.010433,0.007427,0.010300,0.0220812,0.004770
0.001291,0.067804,0.010462,0.007048,0.010402,0.0222122,0.004835
0.001331,0.068763,0.010468,0.006612,0.010480,0.0222147,0.004883
0.001423,0.069928,0.010460,0.006335,0.010726,0.0222120,0.004880
0.001557,0.071169,0.010498,0.006127,0.011093,0.0216969,0.004841
0.001675,0.071967,0.010573,0.005808,0.011508,0.0212076,0.004806
0.001771,0.073290,0.010618,0.005507,0.011890,0.0207225,0.004791
0.001867,0.074202,0.010625,0.005163,0.012320,0.0202902,0.004754
0.002005,0.075280,0.010644,0.005120,0.012727,0.0198440,0.004682
0.002167,0.076120,0.010629,0.005230,0.013047,0.0193960,0.004591
0.002316,0.077132,0.010636,0.005273,0.013412,0.0186371,0.004507
0.002477,0.077925,0.010696,0.005407,0.013609,0.0178683,0.004390
0.002662,0.078416,0.010707,0.005560,0.013839,0.0173163,0.004264
0.002773,0.078908,0.010750,0.005568,0.014005,0.0167482,0.004186
0.002856,0.079063,0.010824,0.005551,0.014160,0.0160710,0.004121
0.002965,0.079146,0.010889,0.005642,0.014264,0.0153907,0.004027
0.003059,0.079579,0.010957,0.005612,0.014425,0.0144570,0.003966
0.003137,0.079934,0.011125,0.005259,0.014654,0.0132961,0.003919
0.003198,0.079961,0.011312,0.004990,0.014990,0.0123569,0.003874
0.003239,0.080137,0.011438,0.004796,0.015291,0.0113825,0.003848
0.003304,0.078847,0.011534,0.004710,0.015640,0.0104304,0.003768
0.003359,0.077891,0.011701,0.005053,0.016026,0.0095125,0.003715
0.003291,0.076499,0.011938,0.005814,0.016471,0.0087135,0.003773
0.003190,0.074095,0.012203,0.007571,0.016993,0.0080152,0.003856
0.003048,0.071367,0.012515,0.011237,0.017355,0.0072446,0.003954
0.002899,0.067756,0.013865,0.015817,0.018004,0.0067198,0.004105
0.004080,0.064243,0.015798,0.020619,0.018904,0.0063542,0.004518
0.005949,0.060181,0.017733,0.025181,0.019929,0.0061972,0.004963
0.008455,0.056603,0.019870,0.029690,0.020872,0.0061642,0.005756
0.011601,0.052736,0.022337,0.033832,0.021785,0.0062376,0.006715
0.015566,0.048714,0.024672,0.037463,0.022545,0.0064131,0.007929
0.019703,0.044757,0.026930,0.040708,0.023232,0.0066821,0.009255
0.024075,0.041160,0.029037,0.044151,0.023944,0.0070110,0.010729
0.028803,0.037515,0.031079,0.047444,0.024518,0.0074058,0.012483
0.034169,0.034148,0.033400,0.050399,0.025003,0.0078207,0.014115
0.039938,0.031150,0.035687,0.053180,0.025502,0.0082803,0.015761
0.046268,0.028115,0.037793,0.055374,0.026032,0.0087926,0.017496
0.053166,0.024678,0.039719,0.057469,0.026407,0.0094502,0.019242
0.060500,0.020998,0.041833,0.059311,0.026686,0.0103629,0.020761
0.068353,0.017616,0.044895,0.060387,0.026939,0.0113889,0.022156
0.076766,0.014412,0.048079,0.061002,0.027128,0.0125332,0.023372
0.085294,0.012101,0.050970,0.061259,0.027137,0.0136979,0.024583
0.094320,0.009988,0.053664,0.060739,0.026534,0.0148132,0.025877
0.103941,0.007954,0.056203,0.059910,0.025621,0.0158955,0.027252
0.112763,0.006098,0.058166,0.058122,0.024642,0.0169886,0.028966
0.121640,0.004753,0.059944,0.054451,0.023632,0.0180066,0.030955
0.130635,0.004072,0.060625,0.050074,0.022295,0.0189858,0.033260
0.138115,0.003560,0.060698,0.045818,0.020637,0.0199001,0.035776
0.144408,0.003107,0.060843,0.042025,0.018827,0.0206711,0.038483
0.149874,0.002823,0.060690,0.038340,0.017001,0.0212984,0.040752
0.154032,0.002588,0.059832,0.035276,0.015239,0.0217795,0.042692
0.156690,0.002414,0.059237,0.033061,0.013629,0.0220489,0.044195
0.159050,0.002315,0.058725,0.031335,0.012072,0.0222871,0.045451
0.161005,0.002233,0.058356,0.029276,0.010586,0.0225206,0.046452
0.162357,0.002230,0.058113,0.027792,0.009172,0.0227633,0.046812
0.162992,0.002219,0.057097,0.027576,0.007853,0.0229555,0.047248
0.162712,0.002197,0.056128,0.027935,0.006550,0.0230733,0.047810
0.161478,0.002164,0.055430,0.028722,0.005289,0.0231720,0.048270
0.159259,0.002188,0.055060,0.029869,0.004152,0.0231253,0.048441
0.156320,0.002191,0.054107,0.031257,0.003202,0.0227200,0.049020
0.152360,0.002183,0.051510,0.033486,0.002277,0.0220866,0.049955
0.147218,0.002097,0.048251,0.036698,0.001479,0.0212579,0.051241
0.141694,0.001978,0.044960,0.040593,0.000886,0.0203414,0.052737
0.135008,0.001835,0.041835,0.045301,0.000914,0.0193251,0.054291
0.126880,0.001713,0.038774,0.050452,0.001327,0.0183467,0.055485
0.119548,0.001640,0.036083,0.055583,0.001723,0.0173957,0.056179
0.111650,0.001639,0.033698,0.060480,0.002191,0.0165955,0.056242
0.103384,0.001772,0.031404,0.065094,0.002703,0.0158850,0.055470
0.095384,0.002016,0.029102,0.069662,0.003179,0.0152358,0.053803
0.087905,0.002285,0.026718,0.074200,0.003652,0.0145373,0.051681
0.080351,0.002530,0.024562,0.078767,0.004174,0.0137884,0.049895
0.073387,0.002774,0.022804,0.083041,0.004704,0.0130236,0.048325
0.066929,0.002982,0.021023,0.086911,0.005270,0.0122926,0.046981
0.060575,0.003167,0.019254,0.090678,0.005872,0.0114530,0.045781
0.054385,0.003351,0.017443,0.094638,0.006485,0.0105906,0.044713
0.048624,0.003508,0.015508,0.098985,0.007068,0.0096926,0.043863
0.042533,0.003645,0.014192,0.102114,0.007742,0.0088488,0.043083
0.037157,0.003817,0.012784,0.104367,0.008395,0.0080697,0.041918
0.032421,0.004027,0.011189,0.107165,0.009017,0.0072694,0.040553
0.028284,0.004196,0.009429,0.110121,0.009625,0.0064928,0.039275
0.024503,0.004386,0.007976,0.113676,0.010144,0.0058518,0.037678
0.021319,0.004593,0.007162,0.117327,0.010619,0.0053107,0.035792
0.018717,0.004836,0.006942,0.120095,0.011059,0.0048652,0.033817
0.016117,0.005084,0.007144,0.122374,0.011479,0.0044829,0.031795
0.014144,0.005381,0.007295,0.124162,0.011747,0.0041546,0.029558
0.013028,0.005694,0.007487,0.125557,0.011919,0.0037787,0.027425
0.011967,0.005985,0.007849,0.127503,0.012106,0.0033920,0.025277
0.011508,0.006254,0.008039,0.130244,0.012211,0.0029743,0.023319
0.011296,0.006457,0.008163,0.133231,0.012268,0.0025174,0.021796
0.010942,0.006602,0.008348,0.135445,0.012381,0.0020595,0.020756
0.010705,0.006750,0.008512,0.137063,0.012473,0.0016618,0.019821
0.010858,0.006946,0.008502,0.138489,0.012497,0.0013623,0.018419
0.011083,0.007148,0.008446,0.139656,0.012530,0.0011372,0.016924
0.011418,0.007344,0.008343,0.141000,0.012527,0.0009467,0.015409
0.011791,0.007530,0.008231,0.142472,0.012483,0.0008666,0.013864
0.012166,0.007703,0.008088,0.143893,0.012433,0.0008215,0.012335
0.011925,0.007827,0.008127,0.143287,0.012475,0.0008450,0.011261
0.011865,0.007924,0.008092,0.142606,0.012436,0.0008489,0.010467
0.011516,0.007972,0.008161,0.142518,0.012435,0.0008076,0.010049
0.010938,0.008001,0.008355,0.141918,0.012473,0.0007792,0.009846
0.010262,0.008035,0.008544,0.141228,0.012506,0.0007625,0.009781
0.009534,0.008041,0.008738,0.140183,0.012586,0.0007784,0.009862
0.008713,0.008059,0.009045,0.138684,0.012768,0.0008206,0.009959
0.007940,0.008114,0.009365,0.137397,0.012970,0.0008685,0.009901
0.007400,0.008178,0.009595,0.136215,0.013137,0.0009293,0.009707
0.006960,0.008242,0.009752,0.135078,0.013333,0.0010151,0.009545
0.006669,0.008276,0.009850,0.133801,0.013554,0.0011565,0.009410
0.006240,0.008306,0.009984,0.131682,0.013838,0.0012984,0.009507
0.005719,0.008303,0.010148,0.128717,0.014142,0.0014337,0.009778
0.005202,0.008319,0.010309,0.125778,0.014465,0.0015651,0.010073
0.004766,0.008332,0.010450,0.123278,0.014772,0.0016869,0.010325
0.004190,0.008301,0.010616,0.121271,0.015112,0.0017745,0.010790
0.003670,0.008271,0.010785,0.120044,0.015417,0.0018315,0.011394
0.003185,0.008228,0.010981,0.118727,0.015665,0.0019042,0.012030
0.002848,0.008213,0.011137,0.116663,0.015914,0.0020062,0.012552
0.002297,0.008191,0.011364,0.114395,0.016246,0.0020922,0.013228
0.001591,0.008164,0.011676,0.112097,0.016671,0.0021667,0.013996
0.001248,0.008144,0.011912,0.110915,0.017044,0.0022128,0.014502
0.001158,0.008206,0.012050,0.109943,0.017397,0.0022831,0.014584
0.001227,0.008335,0.012115,0.108578,0.017748,0.0024311,0.014406
0.001304,0.008474,0.012124,0.106940,0.018124,0.0026058,0.014215
0.001304,0.008634,0.012171,0.104697,0.018565,0.0028439,0.014039
0.001304,0.008834,0.012217,0.102075,0.018984,0.0031563,0.013831
0.001304,0.009013,0.012154,0.099479,0.019289,0.0035674,0.013640
0.001430,0.009171,0.011993,0.096858,0.019523,0.0040319,0.013380
0.001652,0.009356,0.011809,0.094220,0.019831,0.0045508,0.013020
0.001831,0.009536,0.011691,0.091753,0.020136,0.0050329,0.012643
0.001971,0.009727,0.011598,0.089371,0.020380,0.0055022,0.012271
0.002184,0.009918,0.011472,0.087182,0.020585,0.0060023,0.011839
0.002184,0.010080,0.011362,0.084243,0.020742,0.0067618,0.011598
0.002184,0.010400,0.011325,0.080102,0.020897,0.0077992,0.011200
0.002184,0.010831,0.011219,0.075634,0.020939,0.0091746,0.010790
0.002234,0.011302,0.011038,0.070858,0.021077,0.0106391,0.010227
0.002081,0.011722,0.010890,0.065372,0.021191,0.0122486,0.009781
0.001872,0.012105,0.010756,0.060107,0.021290,0.0138717,0.009362
0.001506,0.012475,0.010668,0.055329,0.021236,0.0154760,0.009080
0.001356,0.012896,0.010513,0.050639,0.021133,0.0170210,0.008642
0.001387,0.013322,0.010325,0.045930,0.021058,0.0183935,0.008077
0.001461,0.013694,0.010121,0.041306,0.020988,0.0196089,0.007468
0.001566,0.013937,0.009945,0.036881,0.020923,0.0205724,0.006912
0.001602,0.014108,0.009828,0.032629,0.020649,0.0214158,0.006488
0.001600,0.014362,0.009755,0.028667,0.020336,0.0221428,0.006096
0.001725,0.014751,0.009658,0.025378,0.019888,0.0227925,0.005630
0.001857,0.015142,0.009561,0.022533,0.019432,0.0233621,0.005179
0.001970,0.015530,0.009479,0.019933,0.018968,0.0238059,0.004754
0.001898,0.015998,0.009462,0.017423,0.018449,0.0243328,0.004510
0.001738,0.016413,0.009470,0.015031,0.017923,0.0246883,0.004355
0.001663,0.017031,0.009460,0.012883,0.017369,0.0251573,0.004162
0.001649,0.018842,0.009404,0.011070,0.016739,0.0255458,0.003939
0.001667,0.020560,0.009323,0.009567,0.016159,0.0258092,0.003692
0.001898,0.022851,0.009233,0.008898,0.015625,0.0255794,0.003258
0.002135,0.025330,0.009055,0.009593,0.015017,0.0250159,0.002978
0.002381,0.027842,0.008918,0.010909,0.014495,0.0240265,0.002695
0.002580,0.030408,0.008890,0.012530,0.013845,0.0228766,0.002475
0.002785,0.033205,0.008888,0.014524,0.013192,0.0215829,0.002258
0.002998,0.036373,0.008880,0.016338,0.012552,0.0201986,0.002040
0.003290,0.038725,0.008869,0.018071,0.012084,0.0189567,0.001778
0.003615,0.041097,0.008884,0.019635,0.011600,0.0178044,0.001531
0.003909,0.042822,0.008856,0.021286,0.011067,0.0170775,0.001320
0.004154,0.044575,0.008871,0.022577,0.010551,0.0165937,0.001147
0.004345,0.046266,0.008911,0.023586,0.010071,0.0164308,0.001035
0.004561,0.047908,0.008920,0.024700,0.009801,0.0164084,0.000909
0.004740,0.049232,0.008910,0.025320,0.009614,0.0165329,0.000835
0.004892,0.050139,0.008884,0.025815,0.009530,0.0167699,0.000782
0.004970,0.050732,0.008858,0.026166,0.009487,0.0169241,0.000785
0.005049,0.051166,0.008814,0.026604,0.009428,0.0171092,0.000768
0.005163,0.051617,0.008777,0.027034,0.009406,0.0169232,0.000725
0.005294,0.052050,0.008751,0.027415,0.009322,0.0167594,0.000670
0.005355,0.052302,0.008740,0.027487,0.009288,0.0164092,0.000697
0.005397,0.051451,0.008737,0.027464,0.009257,0.0163425,0.000736
0.005404,0.050770,0.008746,0.027256,0.009151,0.0164204,0.000806
0.005347,0.049578,0.008748,0.027057,0.009007,0.0167752,0.000924
0.005263,0.048022,0.008752,0.026449,0.008909,0.0174217,0.001063
0.005148,0.046261,0.008790,0.025468,0.008850,0.0182315,0.001223
0.005010,0.044563,0.008803,0.024435,0.008810,0.0191806,0.001393
0.004797,0.042720,0.008813,0.022985,0.008804,0.0204664,0.001609
0.004556,0.040454,0.008824,0.021570,0.008791,0.0219534,0.001830
0.004261,0.038897,0.008854,0.019914,0.008816,0.0231581,0.002090
0.003936,0.037037,0.008861,0.018410,0.008812,0.0243922,0.002353
0.003634,0.035797,0.008888,0.016945,0.008789,0.0252124,0.002590
0.003361,0.034541,0.008871,0.015768,0.008761,0.0259044,0.002805
0.003070,0.033396,0.008816,0.014856,0.008712,0.0265152,0.003044
0.002811,0.031971,0.008801,0.013862,0.008706,0.0269978,0.003253
0.002668,0.030704,0.008753,0.013489,0.008696,0.0272065,0.003353
0.002525,0.029746,0.008710,0.013227,0.008679,0.0271544,0.003436
0.002427,0.029071,0.008670,0.013189,0.008639,0.0270524,0.003466
0.002378,0.028648,0.008681,0.013090,0.008715,0.0268233,0.003471
0.002333,0.028108,0.008695,0.013001,0.008827,0.0270603,0.003473
0.002281,0.027605,0.008723,0.012962,0.008917,0.0273702,0.003469
0.002252,0.027081,0.008768,0.012986,0.008982,0.0276472,0.003427
0.002201,0.026794,0.008825,0.012853,0.009106,0.0276063,0.003428
0.002130,0.026426,0.008885,0.012691,0.009237,0.0277063,0.003447
0.002095,0.025948,0.008941,0.012554,0.009411,0.0278566,0.003438
0.002165,0.025449,0.009000,0.012542,0.009569,0.0278148,0.003359
0.002272,0.025046,0.009023,0.012770,0.009681,0.0277156,0.003238
0.002445,0.024398,0.009041,0.013145,0.009827,0.0271590,0.003068
0.002701,0.023720,0.009045,0.013820,0.010012,0.0263335,0.002852
0.002982,0.023163,0.009042,0.014483,0.010272,0.0253729,0.002632
0.003290,0.022360,0.009006,0.015350,0.010502,0.0245157,0.002371
0.003600,0.021879,0.008982,0.016277,0.010759,0.0234021,0.002108
0.003895,0.021491,0.008969,0.017139,0.010991,0.0223538,0.001872
0.004172,0.021162,0.008991,0.017934,0.011208,0.0212319,0.001656
0.004472,0.020827,0.009050,0.018671,0.011411,0.0201036,0.001418
0.004720,0.020809,0.009113,0.019261,0.011589,0.0190147,0.001208
0.004860,0.020794,0.009195,0.019442,0.011720,0.0180912,0.001083
0.004950,0.020768,0.009280,0.019453,0.011835,0.0173872,0.000995
0.005055,0.020736,0.009361,0.019329,0.011912,0.0168310,0.000910
0.005099,0.020559,0.009420,0.019183,0.011934,0.0164075,0.000875
0.005183,0.020351,0.009459,0.019120,0.011973,0.0157790,0.000817
0.005214,0.020220,0.009476,0.018978,0.012022,0.0151667,0.000797
0.005188,0.020046,0.009479,0.018635,0.012080,0.0146255,0.000839
0.005102,0.019599,0.009478,0.018286,0.012160,0.0141602,0.000918
0.005080,0.019180,0.009492,0.018030,0.012265,0.0134879,0.000939
0.005122,0.018775,0.009501,0.017937,0.012338,0.0126421,0.000909
0.005091,0.018404,0.009528,0.017791,0.012469,0.0117342,0.000907
0.005067,0.017980,0.009590,0.017461,0.012632,0.0107744,0.000910
0.004980,0.017648,0.009665,0.016917,0.012779,0.0101799,0.000964
0.004857,0.017202,0.009747,0.016205,0.012944,0.0095192,0.001027
0.004738,0.016683,0.009849,0.015664,0.013059,0.0088596,0.001071
0.004637,0.016448,0.009959,0.015197,0.013126,0.0082321,0.001114
0.004547,0.016145,0.010038,0.014715,0.013166,0.0078125,0.001141
0.004411,0.015754,0.010108,0.014202,0.013168,0.0075249,0.001192
0.004225,0.015314,0.010141,0.014243,0.013155,0.0073289,0.001294
0.003952,0.014873,0.010173,0.015487,0.013167,0.0072807,0.001471
0.003642,0.014409,0.010950,0.018090,0.013383,0.0072075,0.001736
0.003392,0.013960,0.012037,0.021736,0.013657,0.0073413,0.002217
0.003167,0.013362,0.013651,0.025817,0.014142,0.0075068,0.003454
0.003226,0.012697,0.015219,0.029739,0.014677,0.0077655,0.005206
0.003474,0.012082,0.016744,0.033965,0.015247,0.0080150,0.006888
0.003863,0.011509,0.018272,0.038391,0.015864,0.0082968,0.008492
0.004574,0.010858,0.019789,0.043122,0.016483,0.0085488,0.010182
0.005899,0.010249,0.021857,0.047626,0.017053,0.0088836,0.011729
0.008273,0.009586,0.023858,0.051395,0.017571,0.0092786,0.013391
0.011003,0.008897,0.025728,0.054801,0.018025,0.0096745,0.015125
0.013597,0.008271,0.027633,0.057666,0.018528,0.0100536,0.017015
0.016482,0.007674,0.029438,0.059679,0.018906,0.0104654,0.018703
0.019516,0.007114,0.030839,0.061339,0.019171,0.0109860,0.020299
0.022698,0.006569,0.031538,0.062583,0.019297,0.0115872,0.021950
0.026303,0.006093,0.032079,0.063482,0.019279,0.0122413,0.023607
0.029857,0.005679,0.032929,0.063948,0.019259,0.0128890,0.025159
0.034010,0.005405,0.033594,0.064136,0.019100,0.0135288,0.026104
0.037830,0.005133,0.034261,0.064480,0.018973,0.0140588,0.026952
0.041624,0.004893,0.034915,0.064961,0.018924,0.0144933,0.027718
0.046056,0.004683,0.035374,0.065334,0.018719,0.0149336,0.028454
0.050907,0.004524,0.035698,0.064555,0.018437,0.0152243,0.029186
0.055578,0.004392,0.035318,0.062515,0.017951,0.0155044,0.030158
0.060379,0.004276,0.034566,0.059833,0.017299,0.0155216,0.031080
0.065270,0.004281,0.033238,0.056467,0.016485,0.0154603,0.031203
0.069397,0.004322,0.031371,0.053517,0.015657,0.0152488,0.031142
0.072545,0.004395,0.029592,0.050910,0.014855,0.0149855,0.030895
0.075384,0.004474,0.027881,0.047993,0.013999,0.0146422,0.030864
0.077963,0.004563,0.026189,0.044790,0.013151,0.0143028,0.030726
0.079763,0.004627,0.023998,0.042414,0.012352,0.0138948,0.030841
0.080658,0.004682,0.021879,0.040866,0.011597,0.0133825,0.030926
0.080981,0.004727,0.019950,0.039636,0.010958,0.0127585,0.030974
0.081106,0.004793,0.018083,0.038841,0.010364,0.0121309,0.030871
0.080704,0.004814,0.015930,0.038870,0.009876,0.0114742,0.031092
0.080319,0.004858,0.014061,0.039695,0.009398,0.0107333,0.031285
0.079821,0.004888,0.012890,0.040982,0.009056,0.0099359,0.031417
0.078488,0.004974,0.011891,0.043028,0.008784,0.0090876,0.031406
0.076503,0.005047,0.010597,0.045274,0.008625,0.0082460,0.031499
0.073678,0.005014,0.009560,0.047683,0.008647,0.0074658,0.032307
0.071225,0.004968,0.008500,0.049659,0.008650,0.0068303,0.033163
0.068478,0.004902,0.007547,0.051227,0.008651,0.0062793,0.034098
0.064910,0.004849,0.006832,0.052881,0.008777,0.0057215,0.034952
0.060838,0.004789,0.006286,0.054869,0.008951,0.0051565,0.035694
0.056767,0.004743,0.005738,0.056601,0.009143,0.0046516,0.036304
0.052645,0.004736,0.005206,0.058248,0.009393,0.0042728,0.036465
0.048544,0.004721,0.004711,0.060152,0.009579,0.0038905,0.036640
0.045242,0.004760,0.004693,0.062076,0.009680,0.0035318,0.036403
0.042662,0.004770,0.004676,0.063501,0.009761,0.0032321,0.036385
0.040069,0.004764,0.004656,0.065060,0.009872,0.0029927,0.036346
0.037439,0.004763,0.004641,0.066607,0.009981,0.0028346,0.036300
0.035265,0.004806,0.004506,0.068283,0.010024,0.0027106,0.035893
0.032862,0.004843,0.004448,0.069514,0.010206,0.0026660,0.035398
0.030662,0.004897,0.004337,0.071174,0.010322,0.0027279,0.034861
0.028493,0.004859,0.004216,0.072702,0.010412,0.0028890,0.034758
0.026741,0.004834,0.004424,0.074879,0.010468,0.0030390,0.034499
0.024942,0.004789,0.004680,0.076880,0.010598,0.0031581,0.034304
0.023182,0.004761,0.004912,0.078822,0.010687,0.0033465,0.034051
0.022046,0.004722,0.005058,0.080897,0.010771,0.0035489,0.033747
0.021678,0.004686,0.005146,0.082751,0.010749,0.0037683,0.033479
0.021811,0.004721,0.005064,0.085086,0.010663,0.0039353,0.032824
0.021831,0.004752,0.005024,0.088006,0.010605,0.0040529,0.032210
0.021744,0.004745,0.005006,0.091362,0.010540,0.0041732,0.031855
0.021674,0.004721,0.004981,0.094312,0.010554,0.0043286,0.031613
0.021557,0.004702,0.004984,0.096305,0.010611,0.0045207,0.031374
0.021710,0.004736,0.004891,0.098988,0.010593,0.0046660,0.030777
0.021872,0.004791,0.004831,0.102120,0.010595,0.0047140,0.030214
0.021835,0.004828,0.004829,0.106075,0.010645,0.0047160,0.029659
0.021096,0.004811,0.005042,0.109360,0.010801,0.0047600,0.029404
0.020167,0.004781,0.005284,0.112585,0.010907,0.0047781,0.029388
0.019324,0.004758,0.005563,0.115509,0.011026,0.0047465,0.029284
0.018599,0.004785,0.005735,0.118813,0.011095,0.0046670,0.028909
0.017501,0.004784,0.006010,0.121094,0.011231,0.0046717,0.028735
0.016519,0.004819,0.006276,0.123703,0.011272,0.0046867,0.028292
0.015520,0.004860,0.006598,0.125877,0.011362,0.0046826,0.027756
0.014790,0.004998,0.006880,0.127816,0.011457,0.0047348,0.026714
0.013866,0.005145,0.007283,0.129051,0.011618,0.0048616,0.025522
0.012803,0.005271,0.007843,0.129466,0.011862,0.0050407,0.024447
0.011677,0.005403,0.008408,0.129707,0.012097,0.0051701,0.023408
0.010354,0.005530,0.008929,0.129914,0.012311,0.0052498,0.022492
0.008948,0.005654,0.009374,0.131304,0.012467,0.0052875,0.021552
0.007281,0.005782,0.009868,0.132410,0.012661,0.0053238,0.020900
0.005674,0.005936,0.010412,0.132723,0.012866,0.0053962,0.020270
0.004532,0.006131,0.010855,0.132676,0.012989,0.0054642,0.019362
0.003599,0.006373,0.011185,0.132591,0.013011,0.0054871,0.018387
0.002886,0.006624,0.011408,0.133042,0.013011,0.0054652,0.017447
0.002303,0.006854,0.011557,0.132913,0.013009,0.0054878,0.016516
0.001814,0.007086,0.011647,0.131951,0.012984,0.0056501,0.015620
0.001285,0.007312,0.011743,0.129567,0.012950,0.0058747,0.014842
0.001144,0.007570,0.011729,0.127296,0.012886,0.0059964,0.013908
0.001307,0.007849,0.011641,0.124705,0.012848,0.0061073,0.012783
0.001661,0.008151,0.011432,0.122226,0.012763,0.0061956,0.011564
0.002019,0.008414,0.011329,0.119312,0.012754,0.0062198,0.010576
0.002549,0.008694,0.011184,0.116750,0.012732,0.0061181,0.009566
0.003206,0.008971,0.010954,0.114120,0.012698,0.0060105,0.008642
0.003860,0.009286,0.010660,0.111470,0.012647,0.0059351,0.007824
0.004376,0.009627,0.010374,0.108651,0.012582,0.0058306,0.007236
0.004678,0.009987,0.010108,0.105038,0.012573,0.0056832,0.007039
0.004926,0.010342,0.009752,0.101888,0.012536,0.0055223,0.006832
0.005459,0.010741,0.009337,0.098820,0.012488,0.0053583,0.006405
0.005970,0.011124,0.009060,0.094691,0.012564,0.0052617,0.006066
0.006334,0.011480,0.008925,0.089005,0.012740,0.0052408,0.005848
0.006681,0.011827,0.008822,0.083187,0.012914,0.0052988,0.005633
0.007012,0.012187,0.008662,0.077732,0.013038,0.0054120,0.005429
0.007365,0.012556,0.008482,0.072397,0.013194,0.0056269,0.005213
0.007694,0.012888,0.008369,0.067070,0.013398,0.0059223,0.005002
0.007951,0.013211,0.008338,0.061850,0.013611,0.0062826,0.004739
0.008049,0.013703,0.008398,0.056839,0.013757,0.0069128,0.004561
0.007838,0.014235,0.008558,0.051981,0.013922,0.0076930,0.004608
0.007783,0.014801,0.008638,0.047483,0.014027,0.0086538,0.004517
0.007684,0.015391,0.008690,0.043135,0.014059,0.0099127,0.004362
0.007536,0.016031,0.008781,0.039020,0.014098,0.0112420,0.004175
0.007288,0.016653,0.008889,0.035220,0.014130,0.0126268,0.004048
0.006914,0.017308,0.009008,0.031566,0.014093,0.0138923,0.003988
0.006477,0.018040,0.009090,0.027991,0.014087,0.0151540,0.003953
0.005849,0.018861,0.009237,0.024248,0.014083,0.0165140,0.004127
0.005247,0.019603,0.009349,0.020731,0.013985,0.0179004,0.004299
0.004770,0.020400,0.009417,0.017864,0.013850,0.0191245,0.004346
0.004530,0.021211,0.009418,0.015919,0.013591,0.0202528,0.004185
0.004311,0.022140,0.009404,0.014058,0.013294,0.0215037,0.004010
0.003778,0.023096,0.009476,0.012195,0.013008,0.0228286,0.004103
0.003346,0.024054,0.009526,0.011054,0.012747,0.0242283,0.004116
0.003058,0.025116,0.009568,0.010723,0.012411,0.0255428,0.004022
0.002895,0.026008,0.009589,0.010868,0.012115,0.0264740,0.003814
0.002840,0.027101,0.009583,0.011308,0.011827,0.0272623,0.003532
0.002760,0.028068,0.009529,0.011940,0.011480,0.0281635,0.003260
0.002760,0.029025,0.009435,0.012949,0.011116,0.0289289,0.002996
0.002944,0.029891,0.009243,0.013996,0.010682,0.0296325,0.002786
0.003122,0.030876,0.009011,0.015518,0.010315,0.0299669,0.002645
0.003414,0.031855,0.008751,0.017201,0.009886,0.0300795,0.002448
0.003688,0.032759,0.008501,0.019090,0.009486,0.0300315,0.002283
0.004021,0.033627,0.008302,0.020842,0.009151,0.0299195,0.002113
0.004379,0.034384,0.008088,0.022431,0.008799,0.0296937,0.001947
0.004722,0.035251,0.007895,0.023883,0.008450,0.0293762,0.001796
0.004975,0.036120,0.007722,0.024831,0.008186,0.0294555,0.001692
0.005115,0.036723,0.007624,0.025695,0.007934,0.0295471,0.001602
0.005231,0.036827,0.007546,0.026372,0.007736,0.0293894,0.001534
0.005288,0.036844,0.007512,0.026665,0.007640,0.0291597,0.001516
0.005263,0.036924,0.007459,0.026802,0.007504,0.0292889,0.001557
0.005244,0.037213,0.007406,0.026971,0.007384,0.0293643,0.001601
0.005252,0.037250,0.007364,0.027116,0.007370,0.0293057,0.001625
0.005342,0.037245,0.007310,0.027519,0.007357,0.0292432,0.001585
0.005381,0.037036,0.007287,0.027692,0.007310,0.0289000,0.001568
0.005498,0.036771,0.007218,0.027919,0.007309,0.0285112,0.001485
0.005463,0.036893,0.007151,0.027749,0.007230,0.0287717,0.001546
0.005317,0.036772,0.007102,0.027341,0.007124,0.0292300,0.001685
0.005235,0.036607,0.007118,0.026787,0.007111,0.0291775,0.001762
0.005069,0.036301,0.007148,0.025813,0.007110,0.0292852,0.001852
0.004788,0.036022,0.007221,0.024691,0.007088,0.0295498,0.001945
0.004426,0.035232,0.007349,0.022886,0.007183,0.0297007,0.002088
0.004137,0.034420,0.007453,0.021402,0.007314,0.0298192,0.002182
0.003784,0.033627,0.007589,0.019926,0.007443,0.0300121,0.002310
0.003431,0.032698,0.007715,0.018817,0.007553,0.0298362,0.002424
0.003101,0.031875,0.007767,0.017953,0.007587,0.0300585,0.002547
0.002781,0.030926,0.007814,0.017113,0.007643,0.0303732,0.002671
0.002573,0.029761,0.007825,0.016830,0.007641,0.0306813,0.002738
0.002498,0.028893,0.007795,0.016746,0.007581,0.0309537,0.002794
0.002564,0.028474,0.007719,0.017173,0.007476,0.0313220,0.002731
0.002645,0.028093,0.007665,0.017576,0.007415,0.0316711,0.002651
0.002809,0.027638,0.007637,0.017948,0.007397,0.0317667,0.002517
0.003022,0.026828,0.007595,0.018322,0.007417,0.0318827,0.002350
0.003252,0.026056,0.007612,0.018730,0.007408,0.0315555,0.002160
0.003406,0.025311,0.007614,0.018952,0.007401,0.0313762,0.002025
0.003515,0.024853,0.007622,0.018997,0.007399,0.0312285,0.001930
0.003541,0.024216,0.007645,0.018847,0.007449,0.0310658,0.001894
0.003568,0.023264,0.007713,0.018555,0.007529,0.0305190,0.001851
0.003627,0.022360,0.007770,0.018321,0.007615,0.0298425,0.001788
0.003671,0.021618,0.007791,0.018217,0.007681,0.0293400,0.001757
0.003720,0.021020,0.007846,0.017982,0.007785,0.0287420,0.001762
0.003761,0.020490,0.007889,0.017810,0.007996,0.0279411,0.001761
0.003895,0.020088,0.007943,0.017818,0.008212,0.0271530,0.001684
0.003993,0.019610,0.008022,0.017633,0.008504,0.0262257,0.001639
0.004164,0.019210,0.008095,0.017476,0.008842,0.0250929,0.001549
0.004329,0.018953,0.008141,0.017240,0.009201,0.0241614,0.001468
0.004432,0.018655,0.008252,0.016807,0.009613,0.0230707,0.001415
0.004500,0.018454,0.008380,0.016207,0.010048,0.0219733,0.001384
0.004550,0.018422,0.008531,0.015507,0.010505,0.0206800,0.001329
0.004573,0.018242,0.008711,0.014735,0.010943,0.0194657,0.001295
0.004545,0.017983,0.008887,0.013844,0.011340,0.0182796,0.001313
0.004522,0.017736,0.009027,0.013058,0.011664,0.0172237,0.001331
0.004473,0.017433,0.009170,0.012397,0.011969,0.0162473,0.001368
0.004357,0.017311,0.009334,0.011627,0.012254,0.0154239,0.001464
0.004262,0.017258,0.009440,0.010996,0.012481,0.0148829,0.001565
0.004186,0.016970,0.009558,0.010404,0.012749,0.0140851,0.001637
0.004121,0.016563,0.009652,0.009932,0.013006,0.0134297,0.001692
0.004071,0.016305,0.009775,0.009419,0.013243,0.0129550,0.001745
0.004056,0.016099,0.009881,0.009112,0.013490,0.0124939,0.001756
0.003968,0.015846,0.010007,0.008843,0.013770,0.0119600,0.001818
0.003871,0.015514,0.010109,0.008620,0.013961,0.0116797,0.001875
0.003790,0.015089,0.010162,0.008663,0.014087,0.0114977,0.001885
0.003737,0.014661,0.010245,0.008697,0.014191,0.0114107,0.001870
0.003694,0.014327,0.010299,0.008958,0.014163,0.0115647,0.001856
0.003582,0.014005,0.010347,0.009161,0.014009,0.0121809,0.001905
0.003432,0.013674,0.010387,0.009385,0.013797,0.0128140,0.001974
0.003383,0.013355,0.010395,0.010231,0.013502,0.0136558,0.001964
0.003405,0.013019,0.010392,0.011247,0.013181,0.0145422,0.001894
0.003277,0.012582,0.010463,0.012409,0.012908,0.0151886,0.001955
0.003094,0.012118,0.010616,0.013592,0.012721,0.0157003,0.002098
0.002913,0.011668,0.010870,0.015365,0.012651,0.0161336,0.002270
0.002729,0.011220,0.011226,0.017533,0.012815,0.0165023,0.002436
0.002563,0.010848,0.011648,0.020884,0.013113,0.0164726,0.002583
0.002436,0.010407,0.012103,0.024261,0.013534,0.0163733,0.002913
0.002294,0.009846,0.012637,0.027092,0.014075,0.0160454,0.003445
0.002122,0.009325,0.013179,0.029631,0.014720,0.0156524,0.004133
0.001954,0.008895,0.013637,0.032041,0.015319,0.0152707,0.005413
0.001920,0.008494,0.014038,0.034369,0.015833,0.0148954,0.006836
0.002628,0.008123,0.014175,0.036023,0.016175,0.0144729,0.008128
0.003651,0.007758,0.014200,0.037364,0.016451,0.0140895,0.009467
0.004713,0.007382,0.014174,0.038470,0.016664,0.0137798,0.010924
0.005664,0.007085,0.014211,0.038835,0.016906,0.0133576,0.012582
0.006641,0.006893,0.014289,0.038589,0.017179,0.0128989,0.014264
0.007487,0.006673,0.014386,0.038279,0.017440,0.0124108,0.016178
0.008222,0.006424,0.014436,0.037764,0.017757,0.0118863,0.018213
0.008978,0.006191,0.014427,0.037290,0.018088,0.0110824,0.020250
0.009717,0.005926,0.014394,0.036965,0.018409,0.0103558,0.022296
0.010445,0.005674,0.014354,0.036349,0.018736,0.0094171,0.024284
0.011253,0.005472,0.014277,0.035774,0.019083,0.0082539,0.026168
0.012483,0.005297,0.013971,0.035489,0.019299,0.0072950,0.027845
0.013775,0.005143,0.013551,0.035400,0.019385,0.0064432,0.029516
0.015244,0.004975,0.012959,0.034833,0.019329,0.0056511,0.031269
0.016704,0.004818,0.012276,0.033884,0.019098,0.0049421,0.033023
0.018220,0.004684,0.011520,0.031790,0.018748,0.0045937,0.034547
0.019671,0.004562,0.010717,0.029749,0.018370,0.0042722,0.036022
0.021045,0.004424,0.009822,0.028436,0.017939,0.0041406,0.037523
0.022723,0.004285,0.008824,0.027524,0.017384,0.0042472,0.038849
0.024445,0.004219,0.007915,0.026856,0.016874,0.0043719,0.039580
0.026237,0.004145,0.007012,0.026271,0.016488,0.0044921,0.040224
0.027158,0.004044,0.006370,0.026540,0.016280,0.0045454,0.041000
0.027600,0.003958,0.005882,0.027362,0.016136,0.0045605,0.041652
0.028279,0.003900,0.005378,0.028656,0.016021,0.0045714,0.042095
0.028928,0.003824,0.004887,0.030778,0.015979,0.0045252,0.042469
0.029565,0.003756,0.004375,0.033375,0.015926,0.0044182,0.042780
0.030369,0.003726,0.003801,0.036016,0.015860,0.0042994,0.042752
0.031397,0.003719,0.003257,0.039163,0.015746,0.0041251,0.042637
0.032652,0.003695,0.002774,0.042411,0.015633,0.0039375,0.042504
0.033912,0.003680,0.002323,0.045314,0.015584,0.0037592,0.042392
0.035101,0.003648,0.001926,0.047919,0.015577,0.0035880,0.042463
0.036247,0.003566,0.001573,0.050452,0.015572,0.0034148,0.042689
0.036875,0.003483,0.001359,0.052362,0.015686,0.0032625,0.043042
0.037412,0.003400,0.001190,0.053921,0.015880,0.0030880,0.043423
0.037578,0.003361,0.001135,0.055183,0.016173,0.0029164,0.043632
0.037618,0.003310,0.001109,0.056436,0.016393,0.0027351,0.043963
0.037313,0.003190,0.001189,0.057853,0.016654,0.0025369,0.044718
0.037190,0.003153,0.001214,0.059236,0.016734,0.0023781,0.044988
0.037069,0.003187,0.001247,0.060296,0.016704,0.0022521,0.044864
0.036357,0.003209,0.001448,0.060979,0.016696,0.0021420,0.044770
0.035432,0.003235,0.001681,0.061524,0.016687,0.0020475,0.044699
0.034086,0.003282,0.002021,0.062251,0.016569,0.0019740,0.044473
0.032817,0.003343,0.002351,0.063072,0.016410,0.0019176,0.044163
0.031741,0.003408,0.002620,0.063897,0.016247,0.0018892,0.043866
0.030212,0.003477,0.003010,0.064263,0.016105,0.0018694,0.043546
0.028842,0.003612,0.003355,0.064444,0.015881,0.0018883,0.042989
0.027601,0.003754,0.003678,0.065101,0.015645,0.0019155,0.042347
0.026395,0.003889,0.004000,0.065886,0.015414,0.0019436,0.041830
0.024898,0.004032,0.004393,0.065694,0.015229,0.0020366,0.041254
0.022823,0.004166,0.004913,0.065383,0.015178,0.0021405,0.040741
0.020710,0.004285,0.005517,0.065264,0.015179,0.0022292,0.040142
0.018578,0.004405,0.006178,0.065252,0.015250,0.0023506,0.039426
0.016381,0.004549,0.006848,0.065397,0.015349,0.0024959,0.038626
0.014454,0.004683,0.007502,0.065969,0.015365,0.0026234,0.037702
0.012626,0.004822,0.008039,0.067248,0.015295,0.0027602,0.036639
0.010991,0.004965,0.008494,0.068880,0.015168,0.0028999,0.035524
0.009491,0.005149,0.008883,0.070493,0.015057,0.0030576,0.034200
0.008402,0.005380,0.009144,0.071942,0.014849,0.0031933,0.032560
0.007074,0.005539,0.009490,0.073451,0.014757,0.0032632,0.031286
0.005822,0.005689,0.009867,0.075121,0.014702,0.0033148,0.030105
0.004868,0.005850,0.010161,0.076985,0.014626,0.0033719,0.028884
0.004157,0.006015,0.010386,0.079509,0.014523,0.0034408,0.027628
0.003589,0.006139,0.010593,0.082383,0.014501,0.0035353,0.026575
0.003057,0.006256,0.010867,0.085076,0.014524,0.0036462,0.025527
0.002509,0.006344,0.011167,0.087058,0.014564,0.0037651,0.024630
0.002196,0.006417,0.011389,0.089091,0.014594,0.0038824,0.023850
0.001827,0.006448,0.011626,0.091481,0.014673,0.0039571,0.023252
0.001321,0.006464,0.011894,0.093172,0.014786,0.0040630,0.022779
0.000733,0.006505,0.012177,0.094585,0.014877,0.0042302,0.022267
0.000290,0.006516,0.012385,0.096433,0.014950,0.0044261,0.021831
0.000226,0.006561,0.012424,0.098166,0.014910,0.0046743,0.021279
0.000280,0.006610,0.012319,0.099827,0.014721,0.0049364,0.020835
0.000484,0.006669,0.012124,0.100803,0.014437,0.0051601,0.020473
0.000690,0.006713,0.011926,0.101242,0.014154,0.0053530,0.020209
0.000805,0.006761,0.011784,0.101295,0.013909,0.0055686,0.020065
0.000805,0.006793,0.011827,0.100113,0.013759,0.0058167,0.020083
0.000805,0.006798,0.011945,0.098502,0.013681,0.0060723,0.020173
0.000803,0.006795,0.012136,0.096881,0.013671,0.0063154,0.020277
0.000682,0.006790,0.012322,0.095262,0.013677,0.0065862,0.020434
0.000682,0.006804,0.012425,0.093624,0.013641,0.0068913,0.020535
0.000682,0.006799,0.012395,0.092645,0.013584,0.0071816,0.020694
0.000669,0.006799,0.012337,0.091941,0.013504,0.0074343,0.020886
0.000606,0.006800,0.012310,0.090129,0.013459,0.0076219,0.021018
0.000710,0.006849,0.012222,0.087345,0.013408,0.0077279,0.020910
0.000959,0.006923,0.012009,0.084389,0.013308,0.0078549,0.020764
0.001188,0.007015,0.011792,0.081896,0.013210,0.0079892,0.020493
0.001464,0.007107,0.011575,0.079434,0.013133,0.0081393,0.020121
0.001796,0.007222,0.011346,0.075884,0.013041,0.0083539,0.019637
0.002119,0.007340,0.011136,0.072346,0.012964,0.0085491,0.019192
0.002486,0.007421,0.010939,0.068948,0.012938,0.0086517,0.018800
0.002751,0.007522,0.010809,0.065663,0.012981,0.0086378,0.018449
0.002938,0.007598,0.010752,0.062604,0.013103,0.0085353,0.018172
0.002994,0.007701,0.010795,0.059673,0.013329,0.0084221,0.017775
0.002843,0.007803,0.010908,0.057275,0.013636,0.0083187,0.017280
0.002658,0.007935,0.011028,0.055206,0.013977,0.0082128,0.016699
0.002593,0.008080,0.011094,0.053355,0.014306,0.0080840,0.016023
0.002744,0.008271,0.011030,0.052157,0.014574,0.0080185,0.015159
0.003040,0.008527,0.010845,0.051296,0.014722,0.0080895,0.014205
0.003412,0.008806,0.010589,0.050529,0.014791,0.0081730,0.013262
0.003764,0.009072,0.010369,0.049779,0.014871,0.0083260,0.012404
0.004094,0.009335,0.010187,0.048912,0.014951,0.0085944,0.011575
0.004177,0.009571,0.010134,0.046558,0.015100,0.0092180,0.010977
0.004254,0.009883,0.010082,0.044113,0.015199,0.0101475,0.010347
0.004232,0.010274,0.010078,0.042179,0.015249,0.0112972,0.009728
0.004337,0.010699,0.009979,0.040479,0.015133,0.0126127,0.008975
0.004284,0.011098,0.009927,0.038927,0.015010,0.0139046,0.008358
0.004198,0.011556,0.009938,0.037043,0.014907,0.0149351,0.007828
0.004025,0.012098,0.010003,0.034989,0.014795,0.0156719,0.007392
0.003796,0.012658,0.010113,0.033659,0.014734,0.0159152,0.007026
0.003591,0.013202,0.010203,0.032570,0.014640,0.0161555,0.006608
0.003514,0.013745,0.010209,0.032091,0.014528,0.0163773,0.006066
0.003546,0.014347,0.010109,0.032187,0.014286,0.0166837,0.005456
0.003664,0.014905,0.009927,0.032138,0.014005,0.0170976,0.004797
0.003854,0.015372,0.009707,0.031810,0.013655,0.0178144,0.004196
0.004098,0.015827,0.009420,0.031536,0.013247,0.0185568,0.003686
0.004376,0.016148,0.009116,0.031236,0.012857,0.0192304,0.003221
0.004611,0.016489,0.008864,0.030348,0.012454,0.0198282,0.002786
0.004639,0.016842,0.008689,0.029184,0.012096,0.0203556,0.002508
0.004568,0.017156,0.008588,0.027985,0.011807,0.0206742,0.002312
0.004372,0.017429,0.008487,0.026685,0.011524,0.0210239,0.002230
0.004259,0.017777,0.008332,0.025661,0.011187,0.0214788,0.002081
0.004195,0.018208,0.008149,0.025037,0.010803,0.0219884,0.001882
0.004508,0.018724,0.007866,0.025272,0.010299,0.0222055,0.001497
0.004759,0.019127,0.007649,0.025006,0.009843,0.0222287,0.001233
0.005120,0.019484,0.007376,0.024806,0.009360,0.0222456,0.001022
0.005344,0.019775,0.007222,0.025048,0.009064,0.0220186,0.001008
0.005602,0.020117,0.007127,0.025267,0.008847,0.0214925,0.000958
0.005866,0.020459,0.006995,0.025542,0.008616,0.0211269,0.000916
0.006083,0.020646,0.006858,0.026094,0.008458,0.0209698,0.000795
0.006252,0.020704,0.006711,0.026578,0.008279,0.0213391,0.000665
0.006382,0.020804,0.006575,0.027053,0.008166,0.0215757,0.000545
0.006363,0.021050,0.006512,0.027061,0.008044,0.0219155,0.000545
0.006334,0.021199,0.006480,0.026577,0.008020,0.0221496,0.000545
0.006314,0.021290,0.006496,0.026060,0.008005,0.0223406,0.000545
0.006314,0.021536,0.006511,0.025820,0.008015,0.0222571,0.000545
0.006325,0.021756,0.006545,0.025412,0.008017,0.0224719,0.000545
0.006318,0.022000,0.006596,0.024909,0.007996,0.0226479,0.000571
0.006267,0.022243,0.006631,0.024856,0.007969,0.0228450,0.000632
0.006270,0.022428,0.006666,0.024846,0.007886,0.0230567,0.000675
0.006165,0.022574,0.006681,0.024574,0.007769,0.0234207,0.000817
0.006057,0.022651,0.006711,0.024163,0.007700,0.0237433,0.000936
0.005899,0.022654,0.006823,0.023545,0.007756,0.0234240,0.001085
0.005722,0.022628,0.006973,0.022629,0.007870,0.0228819,0.001246
0.005413,0.022438,0.007153,0.021771,0.008052,0.0224002,0.001377
0.005199,0.022251,0.007301,0.021270,0.008250,0.0218394,0.001413
0.004968,0.021925,0.007476,0.020707,0.008552,0.0211264,0.001461
0.004679,0.021645,0.007650,0.019980,0.008817,0.0205252,0.001573
0.004395,0.021514,0.007752,0.019335,0.009007,0.0202437,0.001702
0.004183,0.021298,0.007808,0.019001,0.009207,0.0201012,0.001780
0.004023,0.021078,0.007851,0.018353,0.009372,0.0201395,0.001946
0.003876,0.020985,0.007854,0.017680,0.009496,0.0202362,0.002157
0.003807,0.020942,0.007867,0.017055,0.009580,0.0203110,0.002307
0.003721,0.020780,0.007900,0.016266,0.009655,0.0203992,0.002456
0.003690,0.020469,0.007965,0.015466,0.009713,0.0205856,0.002562
0.003637,0.020290,0.008021,0.014658,0.009751,0.0207585,0.002662
0.003550,0.020131,0.008079,0.013828,0.009778,0.0208827,0.002756
0.003466,0.020039,0.008108,0.013155,0.009849,0.0207506,0.002828
0.003405,0.020003,0.008099,0.012647,0.009879,0.0207475,0.002875
0.003411,0.019863,0.008066,0.012311,0.010001,0.0206299,0.002858
0.003471,0.019776,0.008006,0.012179,0.010162,0.0204649,0.002783
0.003556,0.019743,0.007975,0.012132,0.010366,0.0202307,0.002692
0.003730,0.019825,0.007982,0.012306,0.010542,0.0199505,0.002563
0.003909,0.019722,0.007943,0.012333,0.010641,0.0202372,0.002477
0.004092,0.019613,0.007913,0.012377,0.010744,0.0204853,0.002403
0.004302,0.019617,0.007910,0.012374,0.010852,0.0206324,0.002323
0.004443,0.019696,0.007924,0.012279,0.010930,0.0208919,0.002309
0.004534,0.019830,0.007922,0.012040,0.010994,0.0212815,0.002323
0.004591,0.019826,0.007937,0.011683,0.011083,0.0216025,0.002360
0.004613,0.019637,0.007972,0.011318,0.011257,0.0217124,0.002382
0.004699,0.019502,0.008046,0.010984,0.011503,0.0215444,0.002341
0.004760,0.019504,0.008089,0.010775,0.011699,0.0214810,0.002298
0.004843,0.019559,0.008121,0.010563,0.011870,0.0213832,0.002254
0.004865,0.019487,0.008160,0.010372,0.012050,0.0212705,0.002273
0.004922,0.019597,0.008210,0.010258,0.012334,0.0209980,0.002272
0.004860,0.019912,0.008327,0.009960,0.012573,0.0207357,0.002356
0.004773,0.020204,0.008489,0.009734,0.012755,0.0204028,0.002464
0.004726,0.020571,0.008654,0.009484,0.013024,0.0200842,0.002563
0.004712,0.020877,0.008872,0.009214,0.013328,0.0194060,0.002663
0.004662,0.021253,0.009111,0.008823,0.013599,0.0189727,0.002772
0.004582,0.021912,0.009309,0.008528,0.013658,0.0186713,0.002925
0.004534,0.023105,0.009510,0.008380,0.013671,0.0183353,0.003045
0.004525,0.024704,0.009654,0.008247,0.013687,0.0180590,0.003121
0.004437,0.026735,0.009775,0.008080,0.013639,0.0178926,0.003218
0.004306,0.029199,0.009899,0.008081,0.013558,0.0175470,0.003300
0.004229,0.031695,0.010018,0.008124,0.013534,0.0170773,0.003337
0.004141,0.034395,0.010145,0.008200,0.013480,0.0165511,0.003362
0.004044,0.036602,0.010199,0.008227,0.013497,0.0161862,0.003405
0.003969,0.038721,0.010251,0.008341,0.013534,0.0157514,0.003445
0.003907,0.040632,0.010292,0.008599,0.013578,0.0153149,0.003488
0.003849,0.042253,0.010318,0.008806,0.013538,0.0151675,0.003539
0.003680,0.043522,0.010344,0.008961,0.013439,0.0152028,0.003677
0.003708,0.044635,0.010327,0.009772,0.013301,0.0152188,0.003644
0.003849,0.045297,0.010300,0.011196,0.013177,0.0150042,0.003478
0.003958,0.045257,0.010252,0.012612,0.013034,0.0150701,0.003309
0.003967,0.044613,0.010215,0.014307,0.012832,0.0152624,0.003203
0.003893,0.043899,0.010142,0.016646,0.012750,0.0154555,0.003185
0.003748,0.043151,0.010187,0.019612,0.013040,0.0156027,0.003250
0.003582,0.042204,0.010428,0.022731,0.013763,0.0156218,0.003332
0.003370,0.041214,0.011368,0.026313,0.014803,0.0158206,0.003419
0.003191,0.040121,0.012451,0.030147,0.016092,0.0155261,0.003838
0.003030,0.038810,0.013847,0.034331,0.017739,0.0151046,0.004412
0.003426,0.036955,0.015026,0.038133,0.019304,0.0147599,0.005000
0.003866,0.034640,0.016201,0.041907,0.020823,0.0143522,0.005736
0.004788,0.031847,0.017470,0.045657,0.022389,0.0138330,0.006496
0.006279,0.028797,0.018871,0.048631,0.024314,0.0133117,0.007197
0.007963,0.025688,0.020130,0.051384,0.026211,0.0129736,0.007914
0.009326,0.022313,0.021478,0.054163,0.028129,0.0126702,0.009012
0.010935,0.019377,0.022833,0.056797,0.030322,0.0120795,0.010040
0.012805,0.016579,0.024082,0.059056,0.032342,0.0114054,0.011033
0.014909,0.014116,0.025105,0.060710,0.034296,0.0108538,0.011934
0.016986,0.011924,0.025949,0.062090,0.035981,0.0102139,0.013008
0.019573,0.010038,0.026190,0.062813,0.037507,0.0096207,0.014333
0.022784,0.008334,0.026250,0.062763,0.038950,0.0088527,0.015348
0.026454,0.006968,0.026853,0.062577,0.040337,0.0081976,0.016544
0.030336,0.006321,0.027549,0.062223,0.041811,0.0074262,0.017811
0.034180,0.006068,0.028065,0.061167,0.043144,0.0066543,0.019254
0.038066,0.005836,0.028365,0.059533,0.044324,0.0058887,0.020637
0.041710,0.005632,0.028619,0.057045,0.045599,0.0052304,0.021805
0.045330,0.005440,0.028682,0.053999,0.046654,0.0047113,0.023001
0.049092,0.005273,0.027801,0.050109,0.047250,0.0042829,0.024541
0.052340,0.005166,0.026625,0.046530,0.047308,0.0040852,0.025784
0.055673,0.005099,0.025141,0.042697,0.046958,0.0040585,0.026652
0.058817,0.005067,0.023801,0.038987,0.046710,0.0040277,0.027116
0.061862,0.005060,0.022530,0.035436,0.046282,0.0039930,0.027447
0.064465,0.005052,0.021184,0.031932,0.045739,0.0040088,0.027797
0.066532,0.005038,0.019729,0.029280,0.044791,0.0040879,0.028254
0.068614,0.004989,0.018328,0.027071,0.043908,0.0041744,0.028823
0.070847,0.005039,0.017566,0.025032,0.043053,0.0042828,0.028578
0.072626,0.005092,0.017018,0.023363,0.041926,0.0043979,0.028210
0.073805,0.005167,0.016035,0.021742,0.041025,0.0045389,0.027806
0.074839,0.005228,0.015075,0.021042,0.040006,0.0046244,0.027354
0.075996,0.005290,0.014283,0.020912,0.039250,0.0046758,0.026645
0.076573,0.005377,0.014084,0.021471,0.038606,0.0046930,0.025680
0.076289,0.005364,0.014131,0.022416,0.037821,0.0046789,0.025347
0.075412,0.005354,0.013693,0.023172,0.036752,0.0046863,0.025093
0.074172,0.005466,0.013243,0.024657,0.035624,0.0046918,0.024250
0.073045,0.005616,0.012946,0.026705,0.034606,0.0046729,0.023051
0.072133,0.005777,0.012806,0.028510,0.033659,0.0046287,0.021842
0.071600,0.005934,0.012503,0.030392,0.032281,0.0045879,0.020832
0.071076,0.006080,0.012111,0.032700,0.030501,0.0045328,0.019901
0.070276,0.006273,0.011980,0.035572,0.028724,0.0044870,0.018671
0.069918,0.006468,0.012024,0.038501,0.027281,0.0044054,0.017426
0.069384,0.006616,0.012133,0.041051,0.025930,0.0043293,0.016368
0.068144,0.006690,0.011758,0.043996,0.024636,0.0042078,0.015946
0.066873,0.006756,0.011353,0.046859,0.023546,0.0040715,0.015554
0.065396,0.006830,0.010931,0.049607,0.022528,0.0039492,0.015109
0.063623,0.006909,0.010508,0.051855,0.021649,0.0038582,0.014683
0.061468,0.006996,0.010193,0.053582,0.020700,0.0038036,0.014229
0.059458,0.007034,0.009150,0.055566,0.019706,0.0037049,0.014291
0.057765,0.007092,0.007927,0.057845,0.018691,0.0035780,0.014317
0.056334,0.007162,0.007276,0.060511,0.017579,0.0034408,0.014161
0.054476,0.007170,0.006918,0.062553,0.016649,0.0033087,0.014401
0.052496,0.007166,0.006594,0.064110,0.015705,0.0031948,0.014908
0.050478,0.007133,0.006285,0.065477,0.014769,0.0031348,0.015468
0.048581,0.007123,0.005938,0.067285,0.014024,0.0030711,0.015683
0.046699,0.007156,0.005562,0.069103,0.013634,0.0030141,0.015598
0.044975,0.007105,0.005105,0.070358,0.013222,0.0029637,0.015911
0.043361,0.007064,0.004598,0.071324,0.012771,0.0029435,0.016157
0.041363,0.007050,0.004205,0.072598,0.012334,0.0029184,0.016283
0.039326,0.007112,0.004098,0.074805,0.012130,0.0030965,0.016285
0.037239,0.007209,0.004346,0.077156,0.012342,0.0035978,0.016277
0.035278,0.007298,0.004569,0.079486,0.012660,0.0041184,0.016288
0.033511,0.007413,0.004737,0.082026,0.012927,0.0046721,0.016194
0.031842,0.007522,0.004868,0.085498,0.013284,0.0051551,0.016190
0.030464,0.007650,0.005538,0.088387,0.013591,0.0056812,0.015914
0.029073,0.007786,0.006236,0.091052,0.013900,0.0062311,0.015651
0.027947,0.008030,0.006923,0.093792,0.014253,0.0067614,0.015327
0.027408,0.008336,0.007506,0.097155,0.014532,0.0072816,0.014714
0.026920,0.008688,0.008068,0.101008,0.014810,0.0077824,0.013935
0.026494,0.009180,0.008574,0.104950,0.015089,0.0082742,0.012911
0.025922,0.009699,0.009160,0.108076,0.015373,0.0087950,0.012067
0.025365,0.010146,0.009775,0.111057,0.015666,0.0093003,0.011599
0.025104,0.010654,0.010302,0.114235,0.015927,0.0098310,0.010856
0.024791,0.011175,0.010851,0.117344,0.016224,0.0103606,0.009992
0.024635,0.011722,0.011365,0.120454,0.016521,0.0108642,0.009014
0.024402,0.012240,0.011718,0.122262,0.016757,0.0111902,0.008141
0.024135,0.012737,0.011807,0.122996,0.016713,0.0112070,0.007385
0.023889,0.013368,0.011893,0.123633,0.016636,0.0111931,0.006647
0.023344,0.013982,0.012070,0.123751,0.016623,0.0111417,0.006198
0.022928,0.014607,0.012213,0.123052,0.016643,0.0111231,0.005750
0.022443,0.015163,0.012140,0.121356,0.016523,0.0109153,0.005318
0.021925,0.015738,0.011806,0.119168,0.016213,0.0104235,0.004787
0.021413,0.016234,0.011490,0.116672,0.015924,0.0099298,0.004207
0.020716,0.016671,0.011239,0.112931,0.015737,0.0094642,0.003702
0.020031,0.017096,0.011013,0.108037,0.015683,0.0090660,0.003119
0.019322,0.017439,0.010841,0.102767,0.015648,0.0086912,0.002702
0.018699,0.017725,0.010652,0.097612,0.015664,0.0083652,0.002242
0.018021,0.017937,0.010442,0.092253,0.015712,0.0080935,0.001764
0.017047,0.018143,0.010333,0.086585,0.015791,0.0078557,0.001501
0.016186,0.018319,0.010189,0.080635,0.015843,0.0076617,0.001358
0.015291,0.018411,0.010075,0.074034,0.015908,0.0075690,0.001411
0.014474,0.018454,0.009860,0.067644,0.015913,0.0077250,0.001514
0.013674,0.018525,0.009591,0.061209,0.015912,0.0081107,0.001521
0.012869,0.018484,0.009327,0.054661,0.015891,0.0086153,0.001572
0.012203,0.018567,0.009017,0.048437,0.015839,0.0092165,0.001530
0.011525,0.018670,0.008690,0.042316,0.015729,0.0099835,0.001527
0.010883,0.018827,0.008522,0.036895,0.015718,0.0110776,0.001579
0.010281,0.018991,0.008638,0.032280,0.015900,0.0125480,0.001674
0.009639,0.019021,0.008746,0.027648,0.016080,0.0143037,0.001911
0.009164,0.019102,0.008801,0.023663,0.016213,0.0161922,0.002072
0.008787,0.019324,0.008777,0.020571,0.016212,0.0181826,0.002291
0.008425,0.019617,0.008727,0.017780,0.016129,0.0202243,0.002508
0.008173,0.019969,0.008666,0.015509,0.015913,0.0222280,0.002681
0.007874,0.020475,0.008589,0.013470,0.015661,0.0242217,0.002832
0.007635,0.021182,0.008522,0.012135,0.015392,0.0258043,0.002906
0.007394,0.022079,0.008467,0.011227,0.015016,0.0271013,0.002972
0.007222,0.022997,0.008387,0.011082,0.014681,0.0280511,0.002912
0.007118,0.023991,0.008261,0.011229,0.014301,0.0287373,0.002799
0.007026,0.024964,0.008161,0.011668,0.013867,0.0291418,0.002763
0.006935,0.025861,0.008060,0.012294,0.013434,0.0292461,0.002731
0.006772,0.026727,0.007997,0.012718,0.013021,0.0293396,0.002698
0.006574,0.027680,0.007966,0.013004,0.012634,0.0293021,0.002646
0.006385,0.028410,0.007960,0.013461,0.012319,0.0290387,0.002525
0.006261,0.029185,0.007935,0.014157,0.011976,0.0285776,0.002357
0.006199,0.029872,0.007832,0.015341,0.011666,0.0281253,0.002147
0.006084,0.030677,0.007734,0.016464,0.011320,0.0276906,0.001978
0.005944,0.031430,0.007672,0.017487,0.011061,0.0270746,0.001817
0.005832,0.032053,0.007637,0.018526,0.010850,0.0262580,0.001638
0.005732,0.032542,0.007583,0.019728,0.010705,0.0254108,0.001443
0.005683,0.032759,0.007556,0.021036,0.010613,0.0244123,0.001206
0.005647,0.033012,0.007521,0.022677,0.010500,0.0232948,0.000964
0.005655,0.033324,0.007517,0.024049,0.010486,0.0220493,0.000719
0.005703,0.033492,0.007544,0.024898,0.010501,0.0209203,0.000502
0.005737,0.033417,0.007604,0.025446,0.010539,0.0196737,0.000330
0.005808,0.032989,0.007675,0.025803,0.010586,0.0184064,0.000178
0.005874,0.032479,0.007725,0.025845,0.010545,0.0177308,0.000104
0.005856,0.031883,0.007767,0.025639,0.010490,0.0173896,0.000088
0.005823,0.031354,0.007792,0.025329,0.010388,0.0172629,0.000086
0.005621,0.030746,0.007888,0.024412,0.010300,0.0172668,0.000219
0.005391,0.029882,0.008016,0.023330,0.010248,0.0174779,0.000361
0.005127,0.029000,0.008131,0.022049,0.010202,0.0180710,0.000535
0.004890,0.028144,0.008238,0.021027,0.010157,0.0185502,0.000703
0.004658,0.027141,0.008348,0.020140,0.010145,0.0190963,0.000883
0.004472,0.026371,0.008483,0.019282,0.010154,0.0194179,0.001031
0.004316,0.025446,0.008660,0.018425,0.010184,0.0196612,0.001149
0.004163,0.024730,0.008958,0.017250,0.010241,0.0198465,0.001246
0.003995,0.023809,0.009265,0.016053,0.010364,0.0199893,0.001354
0.003838,0.022880,0.009551,0.014958,0.010470,0.0201087,0.001464
0.003741,0.021934,0.009880,0.013954,0.010608,0.0200561,0.001519
0.003657,0.021095,0.010243,0.012820,0.010781,0.0198726,0.001557
0.003597,0.020607,0.010579,0.011641,0.010964,0.0195527,0.001579
0.003515,0.020034,0.010891,0.010183,0.011148,0.0192309,0.001621
0.003369,0.019200,0.011202,0.008686,0.011273,0.0192006,0.001721
0.003249,0.018431,0.011479,0.007626,0.011406,0.0188896,0.001815
0.003143,0.017736,0.011701,0.006620,0.011649,0.0186939,0.001895
0.003045,0.017335,0.011895,0.005717,0.011923,0.0184990,0.001973
0.002943,0.016859,0.012055,0.004941,0.012278,0.0181391,0.002060
0.002911,0.016310,0.012214,0.004387,0.012594,0.0177311,0.002096
0.002812,0.015782,0.012370,0.003849,0.012917,0.0174686,0.002182
0.002827,0.015371,0.012565,0.003640,0.013195,0.0174529,0.002182
0.002899,0.015186,0.012712,0.003651,0.013498,0.0172957,0.002139
0.003026,0.015040,0.012864,0.003886,0.013803,0.0168968,0.002037
0.003152,0.014871,0.013007,0.004082,0.014059,0.0165546,0.001944
0.003307,0.014696,0.013106,0.004431,0.014224,0.0161933,0.001831
0.003449,0.014510,0.013202,0.004790,0.014320,0.0160325,0.001717
0.003525,0.014415,0.013263,0.005053,0.014399,0.0160013,0.001666
0.003642,0.014309,0.013263,0.005433,0.014446,0.0159104,0.001598
0.003792,0.013968,0.013200,0.005960,0.014485,0.0157433,0.001496
0.003826,0.013656,0.013164,0.006570,0.014538,0.0156568,0.001480
0.003751,0.013459,0.013085,0.007054,0.014574,0.0159377,0.001545
0.003699,0.013304,0.012913,0.007938,0.014524,0.0164438,0.001605
0.003567,0.013054,0.012799,0.009372,0.014519,0.0169730,0.001747
0.003351,0.012749,0.012780,0.011127,0.014675,0.0176196,0.001966
0.003205,0.012476,0.012959,0.013030,0.014877,0.0181011,0.002134
0.003052,0.012219,0.013150,0.015105,0.015073,0.0185113,0.002307
0.002885,0.012032,0.013399,0.017146,0.015169,0.0188537,0.002516
0.002721,0.011807,0.013648,0.019211,0.015250,0.0190354,0.002720
0.002570,0.011578,0.013930,0.021253,0.015326,0.0190389,0.002913
0.002416,0.011349,0.014219,0.022920,0.015466,0.0188592,0.003114
0.002312,0.011100,0.014453,0.024268,0.015553,0.0185919,0.003267
0.002208,0.010813,0.014607,0.025038,0.015626,0.0180519,0.003386
0.002061,0.010550,0.014578,0.025668,0.015596,0.0175019,0.003513
0.001923,0.010294,0.014513,0.026062,0.015579,0.0170601,0.003626
0.001806,0.010055,0.014432,0.026275,0.015620,0.0166487,0.003718
0.001835,0.009862,0.014316,0.026343,0.015702,0.0162664,0.003682
0.001865,0.009687,0.014203,0.026435,0.015769,0.0158880,0.003653
0.001895,0.009520,0.014120,0.026586,0.015842,0.0154149,0.003615
0.001915,0.009346,0.014035,0.026746,0.015925,0.0149494,0.003586
0.001920,0.009374,0.014000,0.026867,0.015995,0.0144842,0.003580
0.001996,0.009387,0.013939,0.026799,0.016050,0.0139508,0.003526
0.002031,0.009381,0.013865,0.026795,0.016099,0.0132807,0.003501
0.002047,0.009361,0.013893,0.026349,0.016224,0.0124753,0.003491
0.002145,0.009371,0.013884,0.025455,0.016201,0.0117040,0.003380
0.002382,0.009426,0.013842,0.024167,0.016086,0.0108004,0.003134
0.002642,0.009542,0.013559,0.023078,0.015955,0.0097719,0.002866
0.002898,0.009660,0.013276,0.021679,0.015824,0.0089111,0.002598
0.003134,0.009771,0.012979,0.020264,0.015677,0.0080863,0.002319
0.003366,0.009928,0.012686,0.018852,0.015533,0.0074505,0.002038
0.003593,0.010080,0.012393,0.017451,0.015331,0.0069554,0.001769
0.003729,0.010249,0.012080,0.016497,0.015096,0.0066453,0.001573
0.003731,0.010371,0.011867,0.016116,0.014922,0.0063879,0.001508
0.003737,0.010475,0.011647,0.016474,0.014812,0.0062024,0.001452
0.003737,0.010525,0.011738,0.017447,0.014834,0.0061596,0.001424
0.003702,0.010542,0.012134,0.018872,0.014914,0.0061032,0.001490
0.004067,0.010527,0.013502,0.020495,0.015067,0.0060454,0.001487
0.004885,0.010469,0.016374,0.021972,0.015458,0.0059784,0.001468
0.006365,0.010384,0.019986,0.023571,0.015947,0.0059712,0.001463
0.008234,0.010281,0.023977,0.024965,0.016581,0.0059816,0.001434
0.010825,0.010168,0.028585,0.025864,0.017302,0.0059264,0.001434
0.013829,0.010034,0.033167,0.026669,0.017977,0.0058952,0.001434
0.017351,0.009930,0.037694,0.026921,0.019019,0.0059249,0.001394
0.021025,0.009843,0.042267,0.027273,0.020090,0.0059589,0.001300
0.025025,0.009746,0.046891,0.027525,0.021129,0.0060518,0.001211
0.029755,0.009635,0.051721,0.027852,0.022179,0.0061395,0.001158
0.034686,0.009507,0.056520,0.028439,0.023127,0.0062752,0.001143
0.039636,0.009326,0.061549,0.028755,0.024067,0.0064214,0.001143
0.044934,0.009160,0.065760,0.029045,0.024903,0.0066539,0.001143
0.050363,0.009015,0.069085,0.029365,0.025706,0.0069624,0.001135
0.055775,0.008853,0.072119,0.029766,0.026292,0.0072637,0.001133
0.061504,0.008700,0.074861,0.030025,0.026748,0.0075438,0.001226
0.066884,0.008503,0.077005,0.030281,0.027170,0.0077867,0.001539
0.072427,0.008327,0.078966,0.030565,0.027487,0.0079852,0.001819
0.077950,0.008137,0.080445,0.031150,0.027740,0.0081709,0.002297
0.083439,0.007984,0.081623,0.031191,0.027809,0.0083830,0.002948
0.088554,0.007856,0.082141,0.031036,0.027767,0.0085929,0.003700
0.093328,0.007786,0.081558,0.030755,0.027572,0.0088185,0.004326
0.097551,0.007725,0.079583,0.030455,0.027130,0.0090741,0.005135
0.101080,0.007658,0.076860,0.029988,0.026655,0.0092764,0.006063
0.104413,0.007641,0.073610,0.029962,0.025889,0.0094507,0.006903
0.106967,0.007637,0.069722,0.030438,0.024772,0.0096917,0.007704
0.109091,0.007629,0.065865,0.030824,0.023645,0.0099174,0.008534
0.110675,0.007589,0.061865,0.031853,0.022047,0.0100997,0.009520
0.111794,0.007536,0.057606,0.032798,0.020390,0.0102251,0.010647
0.111532,0.007456,0.053052,0.033629,0.018805,0.0102707,0.012008
0.110115,0.007362,0.048056,0.034064,0.017329,0.0102562,0.013431
0.108038,0.007263,0.042680,0.034347,0.015908,0.0101702,0.015066
0.105605,0.007171,0.037113,0.034878,0.014621,0.0099709,0.016631
0.102750,0.007070,0.032368,0.035706,0.013489,0.0096448,0.018120
0.099918,0.006979,0.028485,0.036847,0.012387,0.0092855,0.019471
0.096939,0.006920,0.024899,0.038029,0.011509,0.0089412,0.020449
0.093612,0.006877,0.021588,0.039631,0.010795,0.0085945,0.021189
0.090507,0.006859,0.018915,0.040914,0.010161,0.0082759,0.021652
0.087041,0.006838,0.016479,0.041647,0.009682,0.0079988,0.022117
0.083348,0.006834,0.014610,0.042135,0.009290,0.0077486,0.022273
0.079667,0.006840,0.012941,0.042528,0.009028,0.0075087,0.022264
0.076225,0.006853,0.011639,0.042804,0.008821,0.0072880,0.022130
0.072534,0.006857,0.010407,0.043482,0.008678,0.0070238,0.022121
0.068470,0.006851,0.009217,0.044903,0.008570,0.0066828,0.022125
0.064309,0.006855,0.008025,0.046161,0.008443,0.0063184,0.022111
0.059923,0.006846,0.006992,0.047489,0.008474,0.0059346,0.022112
0.055409,0.006812,0.006031,0.048768,0.008791,0.0055515,0.022248
0.050722,0.006803,0.005125,0.049995,0.009197,0.0051693,0.022442
0.046068,0.006821,0.004424,0.051277,0.009718,0.0047932,0.022465
0.041910,0.006858,0.003906,0.052737,0.010261,0.0044633,0.022252
0.038868,0.006940,0.003568,0.054479,0.010760,0.0041612,0.021804
0.036276,0.007051,0.003450,0.056455,0.011208,0.0039019,0.021256
0.034117,0.007181,0.003691,0.058294,0.011623,0.0036804,0.020458
0.032207,0.007322,0.003930,0.059876,0.011871,0.0035650,0.019709
0.030225,0.007454,0.004204,0.061128,0.012065,0.0034918,0.019048
0.028070,0.007588,0.004491,0.062388,0.012267,0.0034134,0.018430
0.025753,0.007630,0.004873,0.063465,0.012490,0.0033379,0.018509
0.023376,0.007634,0.005295,0.064320,0.012701,0.0032970,0.018814
0.021233,0.007644,0.005691,0.065593,0.012844,0.0032425,0.019090
0.019459,0.007690,0.005973,0.067494,0.012908,0.0031785,0.019182
0.017663,0.007693,0.006259,0.069703,0.012980,0.0030970,0.019603
0.015856,0.007695,0.006585,0.072235,0.013081,0.0030007,0.020053
0.014182,0.007704,0.006952,0.074640,0.013165,0.0029068,0.020508
0.012814,0.007729,0.007329,0.076264,0.013206,0.0028738,0.020947
0.011727,0.007794,0.007640,0.077289,0.013259,0.0029002,0.021235
0.010614,0.007891,0.007992,0.078046,0.013339,0.0029271,0.021493
0.009658,0.008081,0.008281,0.078585,0.013396,0.0029489,0.021664
0.008933,0.008362,0.008473,0.079369,0.013410,0.0029184,0.021577
0.008516,0.008668,0.008574,0.080803,0.013378,0.0028729,0.021282
0.008106,0.009074,0.008685,0.082097,0.013311,0.0028433,0.021012
0.007527,0.009563,0.008861,0.083309,0.013254,0.0028176,0.020826
0.006790,0.010026,0.009082,0.084543,0.013228,0.0027935,0.020653
0.005978,0.010475,0.009336,0.085806,0.013208,0.0027711,0.020494
0.005134,0.011003,0.009634,0.087120,0.013249,0.0027354,0.020372
0.004330,0.011582,0.009955,0.088353,0.013312,0.0027113,0.020271
0.003618,0.012162,0.010257,0.089420,0.013375,0.0027121,0.020222
0.003234,0.012767,0.010473,0.090311,0.013390,0.0027200,0.019960
0.003313,0.013506,0.010538,0.091270,0.013333,0.0027152,0.019226
0.003567,0.014301,0.010522,0.092072,0.013267,0.0027211,0.018303
0.003739,0.015079,0.010515,0.092357,0.013218,0.0027456,0.017416
0.004113,0.015861,0.010446,0.092001,0.013138,0.0027833,0.016415
0.004757,0.016690,0.010258,0.090911,0.012979,0.0028497,0.015163
0.005301,0.017506,0.010029,0.089353,0.012850,0.0029297,0.013873
0.005766,0.018318,0.009803,0.087776,0.012779,0.0030099,0.012549
0.006032,0.019081,0.009655,0.086584,0.012757,0.0031452,0.011329
0.006273,0.019785,0.009479,0.085402,0.012701,0.0033661,0.010216
0.006619,0.020407,0.009299,0.084309,0.012688,0.0036550,0.009044
0.006865,0.020854,0.009207,0.082724,0.012822,0.0040222,0.008032
0.007039,0.021190,0.009196,0.080129,0.013236,0.0044402,0.007190
0.007128,0.021407,0.009215,0.076943,0.013742,0.0049089,0.006466
0.007206,0.021434,0.009199,0.073636,0.014254,0.0055815,0.005765
0.007372,0.021454,0.009143,0.070083,0.014728,0.0063740,0.005057
0.007591,0.021494,0.009054,0.066360,0.015168,0.0073265,0.004348
0.007837,0.021445,0.008931,0.062555,0.015581,0.0084101,0.003670
0.008091,0.021268,0.008783,0.058711,0.016031,0.0095922,0.003011
0.008376,0.021034,0.008625,0.054975,0.016541,0.0107966,0.002353
0.008594,0.020809,0.008460,0.051149,0.017074,0.0120500,0.001710
0.008493,0.020526,0.008385,0.046975,0.017679,0.0133596,0.001388
0.008224,0.020163,0.008372,0.042663,0.018275,0.0148214,0.001242
0.007850,0.019837,0.008409,0.038407,0.018894,0.0163121,0.001214
0.007501,0.019648,0.008404,0.034432,0.019458,0.0178699,0.001181
0.006961,0.019499,0.008450,0.030753,0.020031,0.0194267,0.001323
0.006403,0.019355,0.008541,0.027385,0.020620,0.0209947,0.001525
0.006011,0.019254,0.008647,0.024167,0.021217,0.0225593,0.001706
0.005712,0.019187,0.008736,0.021022,0.021760,0.0240536,0.001876
0.005501,0.019169,0.008806,0.018015,0.022294,0.0254466,0.002022
0.005333,0.019221,0.008841,0.015120,0.022746,0.0268179,0.002180
0.005113,0.019455,0.008842,0.012807,0.022742,0.0281826,0.002372
0.004887,0.019953,0.008827,0.010902,0.022540,0.0293188,0.002540
0.004665,0.020481,0.008769,0.009866,0.022074,0.0302657,0.002684
0.004406,0.021374,0.008743,0.008960,0.021638,0.0310368,0.002816
0.004107,0.022941,0.008758,0.008254,0.021162,0.0315581,0.002964
0.003835,0.024671,0.008787,0.007662,0.020784,0.0318372,0.003096
0.003652,0.026840,0.008823,0.007352,0.020406,0.0319182,0.003159
0.003453,0.028993,0.008884,0.007077,0.020083,0.0318257,0.003210
0.003220,0.031278,0.008949,0.006812,0.019616,0.0317125,0.003284
0.002947,0.033700,0.009007,0.006413,0.019130,0.0315973,0.003384
0.002773,0.036116,0.009068,0.006261,0.018639,0.0313077,0.003433
0.002589,0.038408,0.009098,0.006339,0.018119,0.0311132,0.003491
0.002483,0.040600,0.009118,0.006501,0.017709,0.0307987,0.003487
0.002354,0.042614,0.009119,0.006650,0.017207,0.0303662,0.003494
0.002337,0.044276,0.009139,0.006914,0.016759,0.0297709,0.003424
0.002272,0.045654,0.009157,0.007430,0.016218,0.0293346,0.003383
0.002163,0.046481,0.009178,0.007686,0.015702,0.0289344,0.003379
0.002011,0.047398,0.009200,0.007933,0.015155,0.0285535,0.003406
0.001850,0.048378,0.009239,0.008211,0.014552,0.0282179,0.003438
0.001655,0.049029,0.009289,0.008514,0.013924,0.0278034,0.003488
0.001466,0.049550,0.009372,0.008767,0.013377,0.0273528,0.003523
0.001340,0.049892,0.009443,0.008699,0.013147,0.0271766,0.003534
0.001227,0.050065,0.009522,0.008657,0.012939,0.0270754,0.003573
0.001094,0.050178,0.009618,0.008476,0.012694,0.0270969,0.003627
0.000963,0.049880,0.009684,0.008302,0.012348,0.0272650,0.003694
0.000913,0.048724,0.009729,0.008074,0.012124,0.0273610,0.003711
0.000831,0.047368,0.009775,0.007945,0.011840,0.0274665,0.003748
0.000723,0.045521,0.009818,0.007732,0.011544,0.0275384,0.003810
0.000655,0.043549,0.009807,0.007564,0.011201,0.0278279,0.003866
0.000616,0.041815,0.009791,0.007424,0.010939,0.0280097,0.003900
0.000559,0.040196,0.009748,0.007416,0.010576,0.0284361,0.003953
0.000565,0.039216,0.009707,0.007617,0.010187,0.0287751,0.003952
0.000634,0.038332,0.009668,0.007800,0.009832,0.0288568,0.003908
0.000665,0.037560,0.009624,0.008001,0.009390,0.0289095,0.003889
0.000753,0.036921,0.009596,0.008277,0.009039,0.0290619,0.003828
0.000766,0.036357,0.009570,0.008403,0.008710,0.0293269,0.003827
0.000783,0.035890,0.009586,0.008223,0.008490,0.0294185,0.003833
0.000840,0.035914,0.009594,0.008263,0.008280,0.0293746,0.003808
0.000886,0.035768,0.009627,0.008234,0.008082,0.0292409,0.003789
0.000981,0.035343,0.009699,0.008256,0.007953,0.0290248,0.003730
0.001132,0.035025,0.009838,0.008276,0.007866,0.0288535,0.003655
0.001373,0.034073,0.010038,0.008327,0.007907,0.0283509,0.003522
0.001592,0.033203,0.010257,0.008436,0.008019,0.0275992,0.003402
0.001773,0.032303,0.010430,0.008433,0.008154,0.0270299,0.003318
0.001927,0.031435,0.010582,0.008429,0.008319,0.0264775,0.003256
0.002076,0.030692,0.010762,0.008442,0.008478,0.0259585,0.003196
0.002231,0.030341,0.010935,0.008690,0.008565,0.0255732,0.003124
0.002390,0.029980,0.011094,0.008931,0.008596,0.0253931,0.003050
0.002536,0.029652,0.011227,0.009175,0.008635,0.0253448,0.002993
0.002663,0.029530,0.011378,0.009338,0.008676,0.0251891,0.002960
0.002778,0.029110,0.011448,0.009491,0.008766,0.0250621,0.002916
0.002931,0.028432,0.011507,0.009770,0.008953,0.0245515,0.002823
0.003082,0.027064,0.011550,0.010085,0.009121,0.0241800,0.002723
0.003241,0.025835,0.011595,0.010507,0.009263,0.0238892,0.002622
0.003428,0.024728,0.011615,0.011011,0.009415,0.0236276,0.002511
0.003628,0.023606,0.011647,0.011478,0.009587,0.0232313,0.002386
0.003816,0.022515,0.011673,0.011853,0.009743,0.0227980,0.002270
0.003975,0.021546,0.011696,0.012242,0.009952,0.0222497,0.002177
0.004125,0.020602,0.011761,0.012576,0.010140,0.0217711,0.002081
0.004298,0.019702,0.011780,0.013044,0.010311,0.0212146,0.001970
0.004401,0.018930,0.011754,0.013413,0.010470,0.0206884,0.001900
0.004455,0.018250,0.011650,0.013743,0.010627,0.0201213,0.001849
0.004433,0.018301,0.011479,0.014002,0.010703,0.0198259,0.001847
0.004468,0.018408,0.011273,0.014422,0.010750,0.0194253,0.001789
0.004538,0.018444,0.011067,0.014937,0.010817,0.0188925,0.001691
0.004601,0.018468,0.010871,0.015256,0.010872,0.0183776,0.001603
0.004648,0.018524,0.010645,0.015555,0.010935,0.0177999,0.001528
0.004696,0.018463,0.010423,0.015769,0.010999,0.0171240,0.001455
0.004747,0.018345,0.010192,0.015952,0.011122,0.0163506,0.001373
0.004757,0.018270,0.009992,0.015995,0.011261,0.0154982,0.001317
0.004775,0.018213,0.009812,0.016130,0.011400,0.0145824,0.001236
0.004858,0.018171,0.009699,0.016593,0.011450,0.0136973,0.001117
0.004960,0.018116,0.009603,0.017015,0.011471,0.0129284,0.000999
0.005023,0.018072,0.009509,0.017276,0.011505,0.0122055,0.000917
0.005055,0.017774,0.009439,0.017359,0.011584,0.0114776,0.000854
0.005036,0.017344,0.009393,0.017498,0.011689,0.0106664,0.000812
0.004994,0.016876,0.009374,0.017684,0.011774,0.0099517,0.000792
0.004943,0.016513,0.009385,0.018048,0.011876,0.0092604,0.000772
0.004893,0.016153,0.009368,0.018502,0.011937,0.0086899,0.000749
0.004872,0.015802,0.009322,0.019024,0.012068,0.0081486,0.000693
0.004879,0.015510,0.009269,0.019496,0.012217,0.0077729,0.000619
0.004844,0.015281,0.009219,0.019771,0.012391,0.0074847,0.000599
0.004768,0.015191,0.009205,0.019920,0.012552,0.0073519,0.000609
0.004672,0.015080,0.009210,0.019998,0.012714,0.0072487,0.000640
0.004535,0.014890,0.009237,0.019874,0.012879,0.0071622,0.000725
0.004378,0.014789,0.009276,0.019597,0.013044,0.0071590,0.000839
0.004272,0.014726,0.009288,0.019593,0.013227,0.0071650,0.000907
0.004284,0.014665,0.009298,0.019550,0.013415,0.0071973,0.000878
0.004297,0.014596,0.009316,0.019325,0.013611,0.0072964,0.000853
0.004169,0.014523,0.009413,0.019164,0.013779,0.0074023,0.000962
0.003953,0.014324,0.009576,0.019786,0.013930,0.0075850,0.001163
0.003725,0.014089,0.009867,0.020895,0.014220,0.0077939,0.001410
0.003458,0.013696,0.010439,0.021984,0.014664,0.0079258,0.001723
0.003184,0.013287,0.011276,0.023129,0.015258,0.0080422,0.002039
0.002914,0.012852,0.013115,0.024500,0.015961,0.0082909,0.002453
0.002646,0.012507,0.015540,0.026064,0.016657,0.0087154,0.003176
0.002394,0.012143,0.018031,0.027395,0.017394,0.0091959,0.004017
0.002146,0.011716,0.020357,0.028531,0.018307,0.0096554,0.005324
0.001921,0.011255,0.022617,0.029719,0.019226,0.0101135,0.006834
0.002705,0.010762,0.024660,0.031166,0.019971,0.0105811,0.008431
0.003913,0.010290,0.026592,0.032739,0.020682,0.0110377,0.009911
0.005478,0.009763,0.028530,0.034037,0.021368,0.0114124,0.011435
0.007700,0.009286,0.030833,0.035056,0.021967,0.0117523,0.012521
0.010238,0.008802,0.033146,0.035861,0.022475,0.0120171,0.013371
0.012868,0.008350,0.035423,0.036585,0.022919,0.0122342,0.014151
0.015963,0.007947,0.037407,0.037109,0.023282,0.0124802,0.014641
0.019272,0.007553,0.039138,0.037700,0.023500,0.0127161,0.015121
0.022481,0.007155,0.040948,0.038105,0.023708,0.0128506,0.015708
0.025440,0.006718,0.041972,0.038570,0.023928,0.0128709,0.016769
0.028800,0.006313,0.042583,0.038992,0.024014,0.0128741,0.017753
0.032577,0.005959,0.042590,0.039183,0.024034,0.0128051,0.018543
0.036643,0.005690,0.042464,0.038477,0.024028,0.0126705,0.019299
0.040894,0.005460,0.042172,0.037588,0.023812,0.0125139,0.019966
0.045224,0.005352,0.041603,0.036545,0.023464,0.0124149,0.020588
0.049377,0.005277,0.040829,0.035578,0.022788,0.0123071,0.021146
0.053436,0.005251,0.039108,0.034479,0.021950,0.0120694,0.021592
0.057266,0.005310,0.036838,0.033320,0.021155,0.0116648,0.021693
0.060576,0.005408,0.034648,0.032423,0.020366,0.0112256,0.021540
0.063518,0.005557,0.032625,0.031455,0.019435,0.0108138,0.021173
0.066150,0.005770,0.030627,0.030352,0.018440,0.0103922,0.020577
0.067630,0.006008,0.028702,0.028722,0.017606,0.0099258,0.019995
0.068695,0.006199,0.026374,0.027042,0.016682,0.0094442,0.019805
0.069647,0.006388,0.023987,0.026054,0.015673,0.0090152,0.019558
0.070251,0.006538,0.021224,0.025966,0.014679,0.0086059,0.019608
0.070516,0.006674,0.018424,0.026410,0.013762,0.0082520,0.019780
0.070644,0.006791,0.015650,0.027057,0.012869,0.0079295,0.020053
0.070343,0.006861,0.013162,0.027961,0.012032,0.0075798,0.020566
0.069536,0.006929,0.010920,0.029073,0.011399,0.0072305,0.020816
0.068594,0.007036,0.008637,0.030344,0.010805,0.0069360,0.020809
0.067588,0.007155,0.007192,0.031670,0.010256,0.0067397,0.020431
0.066096,0.007247,0.006111,0.033443,0.009815,0.0065249,0.020132
0.064368,0.007290,0.005581,0.035199,0.009421,0.0063823,0.020010
0.062312,0.007346,0.005122,0.037072,0.009098,0.0062462,0.019797
0.059899,0.007403,0.004703,0.038672,0.008864,0.0061312,0.019633
0.057333,0.007436,0.004304,0.040172,0.008649,0.0060037,0.019580
0.054927,0.007444,0.003860,0.041450,0.008639,0.0058827,0.019592
0.052671,0.007482,0.003363,0.042821,0.008678,0.0057808,0.019561
0.050840,0.007517,0.002814,0.044236,0.008595,0.0057122,0.019431
0.049378,0.007536,0.002127,0.045570,0.008460,0.0056795,0.019392
0.048184,0.007593,0.001395,0.047160,0.008325,0.0056543,0.019030
0.046957,0.007613,0.000700,0.048549,0.008285,0.0056388,0.018814
0.045693,0.007634,0.000229,0.050186,0.008272,0.0056437,0.018463
0.044195,0.007667,0.000330,0.051620,0.008356,0.0056269,0.017909
0.042475,0.007691,0.000480,0.052477,0.008495,0.0055997,0.017429
0.040578,0.007704,0.000597,0.052922,0.008648,0.0055814,0.017003
0.038714,0.007697,0.000733,0.053245,0.008805,0.0054935,0.016674
0.036911,0.007720,0.000875,0.053770,0.008931,0.0054351,0.016243
0.035024,0.007752,0.001045,0.054618,0.009083,0.0053665,0.015794
0.033385,0.007712,0.001244,0.055042,0.009169,0.0053081,0.015943
0.031813,0.007635,0.001463,0.055311,0.009238,0.0053226,0.016338
0.030258,0.007545,0.001695,0.055860,0.009256,0.0054055,0.016753
0.028793,0.007439,0.001972,0.056265,0.009283,0.0055246,0.017221
0.027388,0.007375,0.002202,0.057071,0.009321,0.0056439,0.017493
0.026100,0.007312,0.002443,0.058171,0.009315,0.0057534,0.017754
0.024795,0.007204,0.002763,0.059192,0.009322,0.0058142,0.018116
0.023576,0.007111,0.003080,0.059900,0.009346,0.0058972,0.018377
0.022454,0.007086,0.003372,0.061150,0.009327,0.0059792,0.018538
0.021243,0.007097,0.003694,0.062590,0.009301,0.0060376,0.018653
0.019896,0.007151,0.003987,0.064260,0.009306,0.0060944,0.018822
0.018806,0.007245,0.004247,0.065979,0.009272,0.0061451,0.018925
0.017771,0.007371,0.004521,0.067730,0.009197,0.0061979,0.019105
0.017093,0.007593,0.004781,0.070030,0.009071,0.0062376,0.019057
0.016467,0.007855,0.005020,0.072542,0.008938,0.0063149,0.019060
0.015898,0.008138,0.005241,0.075559,0.008783,0.0064270,0.019167
0.015216,0.008419,0.005495,0.079014,0.008658,0.0065989,0.019291
0.014421,0.008683,0.005784,0.082542,0.008561,0.0067805,0.019498
0.013664,0.008962,0.006047,0.085917,0.008478,0.0069883,0.019557
0.012857,0.009271,0.006319,0.089061,0.008442,0.0071520,0.019517
0.012127,0.009602,0.006562,0.091476,0.008431,0.0072789,0.019472
0.011517,0.010045,0.006771,0.094104,0.008441,0.0073394,0.018936
0.010995,0.010560,0.006976,0.096690,0.008438,0.0073409,0.018292
0.010689,0.011155,0.007138,0.098583,0.008440,0.0072878,0.017579
0.010439,0.011830,0.007261,0.100250,0.008451,0.0072517,0.016764
0.010098,0.012507,0.007420,0.101521,0.008496,0.0072245,0.015981
0.009734,0.013188,0.007577,0.102319,0.008565,0.0072440,0.015199
0.009452,0.013873,0.007681,0.102624,0.008643,0.0072908,0.014423
0.009138,0.014516,0.007803,0.103017,0.008771,0.0073387,0.013661
0.008678,0.015058,0.007978,0.102704,0.008951,0.0074011,0.013023
0.008404,0.015571,0.008087,0.102112,0.009295,0.0074960,0.012350
0.008019,0.016043,0.008227,0.100933,0.009719,0.0076655,0.011798
0.007524,0.016412,0.008393,0.099611,0.010189,0.0078220,0.011355
0.007351,0.016781,0.008452,0.097774,0.010632,0.0079983,0.010611
0.007166,0.017083,0.008447,0.095552,0.011057,0.0081638,0.009945
0.007125,0.017354,0.008401,0.092524,0.011502,0.0083859,0.009241
0.007229,0.017657,0.008282,0.088835,0.011933,0.0088376,0.008377
0.007348,0.018001,0.008137,0.084801,0.012379,0.0093033,0.007451
0.007413,0.018407,0.008003,0.080665,0.012845,0.0098066,0.006481
0.007413,0.018801,0.007884,0.076561,0.013404,0.0103668,0.005651
0.007453,0.019097,0.007756,0.072396,0.013965,0.0109972,0.004978
0.007467,0.019313,0.007626,0.068582,0.014615,0.0117152,0.004359
0.007401,0.019497,0.007506,0.064675,0.015258,0.0125834,0.003878
0.007386,0.019640,0.007372,0.060755,0.015863,0.0136092,0.003424
0.007347,0.019766,0.007251,0.057102,0.016470,0.0146841,0.002999
0.007238,0.019833,0.007171,0.053544,0.017063,0.0158282,0.002627
0.007092,0.019884,0.007108,0.050060,0.017635,0.0170421,0.002330
0.006994,0.019924,0.007027,0.046703,0.018157,0.0183391,0.002062
0.007005,0.020038,0.006922,0.043812,0.018545,0.0196348,0.001694
0.006926,0.020179,0.006839,0.040831,0.018789,0.0209130,0.001412
0.006871,0.020357,0.006730,0.037917,0.018976,0.0221800,0.001139
0.006621,0.020500,0.006669,0.034924,0.019001,0.0234484,0.001044
0.006437,0.020660,0.006644,0.032143,0.018986,0.0244268,0.000879
0.006264,0.020821,0.006639,0.029467,0.018900,0.0252581,0.000698
0.005781,0.021077,0.006733,0.027146,0.018729,0.0260923,0.000849
0.005343,0.021521,0.006918,0.025066,0.018567,0.0267436,0.000975
0.004949,0.022100,0.007115,0.023616,0.018363,0.0271125,0.001087
0.004578,0.022597,0.007361,0.022349,0.018183,0.0272753,0.001200
0.004262,0.023090,0.007644,0.021110,0.018006,0.0273376,0.001307
0.004023,0.023575,0.007919,0.019841,0.017789,0.0272870,0.001430
0.003804,0.024705,0.008194,0.018572,0.017348,0.0271069,0.001573
0.003624,0.025764,0.008458,0.017490,0.016870,0.0268544,0.001686
0.003442,0.026585,0.008684,0.016390,0.016269,0.0266709,0.001797
0.003269,0.027278,0.008882,0.015319,0.015711,0.0263583,0.001916
0.003092,0.028002,0.009048,0.014320,0.015172,0.0259383,0.002049
0.002916,0.028673,0.009167,0.013449,0.014595,0.0255539,0.002196
0.002771,0.029145,0.009286,0.012666,0.014042,0.0251003,0.002321
0.002648,0.029221,0.009414,0.011959,0.013555,0.0248236,0.002425
0.002492,0.029328,0.009534,0.011302,0.013086,0.0244973,0.002571
0.002392,0.029512,0.009659,0.010845,0.012752,0.0239806,0.002663
0.002438,0.029661,0.009760,0.010733,0.012469,0.0234197,0.002630
0.002504,0.029843,0.009873,0.010777,0.012230,0.0228114,0.002562
0.002570,0.030006,0.009950,0.010773,0.011985,0.0222739,0.002486
0.002675,0.030053,0.009981,0.010950,0.011720,0.0220017,0.002394
0.002688,0.029991,0.010001,0.010855,0.011427,0.0219262,0.002405
0.002742,0.029670,0.010044,0.010848,0.011226,0.0217301,0.002370
0.002684,0.029049,0.010055,0.010600,0.011026,0.0217349,0.002425
0.002570,0.028342,0.010033,0.010264,0.010841,0.0219581,0.002524
0.002425,0.027600,0.009973,0.010017,0.010620,0.0222715,0.002640
0.002318,0.026842,0.009913,0.009779,0.010418,0.0225332,0.002739
0.002192,0.026084,0.009835,0.009499,0.010256,0.0228229,0.002854
0.002128,0.024826,0.009735,0.009342,0.010280,0.0228612,0.002915
0.002013,0.023706,0.009613,0.008996,0.010303,0.0231565,0.003023
0.001912,0.022841,0.009532,0.008662,0.010398,0.0235371,0.003129
0.001805,0.022033,0.009508,0.008354,0.010415,0.0242547,0.003245
0.001750,0.021129,0.009524,0.008163,0.010454,0.0247498,0.003320
0.001704,0.020206,0.009561,0.007931,0.010511,0.0251060,0.003372
0.001583,0.019416,0.009589,0.007528,0.010578,0.0255182,0.003470
0.001443,0.018915,0.009622,0.007062,0.010556,0.0258781,0.003597
0.001375,0.018373,0.009701,0.006679,0.010661,0.0258642,0.003659
0.001223,0.017712,0.009817,0.006104,0.010752,0.0259376,0.003779
0.001026,0.017103,0.009883,0.005480,0.010909,0.0259089,0.003922
0.000848,0.016578,0.009938,0.004841,0.011012,0.0259996,0.004078
0.000716,0.016098,0.010009,0.004298,0.011148,0.0260363,0.004209
0.000529,0.015668,0.010082,0.003627,0.011209,0.0261603,0.004395
0.000423,0.015428,0.010165,0.003169,0.011359,0.0260781,0.004487
0.000314,0.015357,0.010183,0.002750,0.011498,0.0262161,0.004590
0.000267,0.015385,0.010196,0.002521,0.011607,0.0262609,0.004649
0.000261,0.015359,0.010220,0.002383,0.011754,0.0261505,0.004661
0.000358,0.015354,0.010254,0.002555,0.011928,0.0258365,0.004564
0.000456,0.015290,0.010270,0.002771,0.012085,0.0255250,0.004456
0.000584,0.015146,0.010293,0.003107,0.012220,0.0251497,0.004331
0.000687,0.014853,0.010336,0.003373,0.012279,0.0250179,0.004230
0.000832,0.014558,0.010430,0.003725,0.012354,0.0246736,0.004107
0.000937,0.014333,0.010495,0.004243,0.012300,0.0244589,0.004004
0.001120,0.014144,0.010578,0.004831,0.012309,0.0238984,0.003843
0.001242,0.013936,0.010636,0.005215,0.012340,0.0234056,0.003736
0.001376,0.013728,0.010682,0.005537,0.012380,0.0229779,0.003644
0.001575,0.013548,0.010733,0.005963,0.012419,0.0224409,0.003499
0.001789,0.013454,0.010746,0.006422,0.012513,0.0217794,0.003336
0.001941,0.013335,0.010723,0.006753,0.012482,0.0212882,0.003206
0.002137,0.013241,0.010677,0.007037,0.012480,0.0206135,0.003057
0.002374,0.013224,0.010606,0.007468,0.012465,0.0200864,0.002886
0.002590,0.013116,0.010549,0.007913,0.012476,0.0194757,0.002708
0.002802,0.013000,0.010532,0.008456,0.012481,0.0187178,0.002504
0.003007,0.012910,0.010536,0.008955,0.012587,0.0177989,0.002306
0.003223,0.012763,0.010565,0.009449,0.012683,0.0169156,0.002105
0.003435,0.012561,0.010622,0.009963,0.012814,0.0159132,0.001897
0.003588,0.012291,0.010700,0.010265,0.012967,0.0150172,0.001735
0.003715,0.011989,0.010822,0.010405,0.013072,0.0142576,0.001603
0.003790,0.011746,0.010935,0.010464,0.013164,0.0135786,0.001532
0.003784,0.011542,0.011015,0.010559,0.013187,0.0130297,0.001528
0.003837,0.011428,0.011112,0.010695,0.013195,0.0125931,0.001468
0.003893,0.011377,0.011186,0.010854,0.013278,0.0121902,0.001412
0.003907,0.011282,0.011228,0.010949,0.013366,0.0117579,0.001385
0.003965,0.011192,0.011266,0.010971,0.013548,0.0109923,0.001330
0.003931,0.011099,0.011212,0.011031,0.013698,0.0102488,0.001345
0.003893,0.011095,0.011146,0.011157,0.013807,0.0096513,0.001367
0.003881,0.011152,0.011074,0.011442,0.013935,0.0089885,0.001358
0.003817,0.011211,0.010973,0.011691,0.014006,0.0083645,0.001393
0.003820,0.011330,0.010866,0.012046,0.013998,0.0076816,0.001390
0.003904,0.011535,0.010739,0.012785,0.013962,0.0071505,0.001318
0.003976,0.011683,0.010629,0.013557,0.013858,0.0069817,0.001254
0.004014,0.011765,0.010593,0.014150,0.013721,0.0070032,0.001217
0.004066,0.011803,0.010517,0.014817,0.013481,0.0074507,0.001172
0.004112,0.011793,0.010401,0.015414,0.013191,0.0081902,0.001143
0.004145,0.011785,0.010296,0.016071,0.012871,0.0089731,0.001111
0.004147,0.011708,0.010178,0.016615,0.012564,0.0099010,0.001102
0.004062,0.011605,0.010102,0.016843,0.012316,0.0108188,0.001166
0.004062,0.011616,0.009977,0.017340,0.012098,0.0115927,0.001153
0.004147,0.011670,0.009823,0.018217,0.011895,0.0121156,0.001062
0.004187,0.011732,0.009689,0.018913,0.011726,0.0124547,0.001000
0.004267,0.011858,0.009597,0.019601,0.011650,0.0125498,0.000906
0.004301,0.011948,0.009484,0.020194,0.011568,0.0126123,0.000853
0.004323,0.011951,0.009416,0.020664,0.011456,0.0126977,0.000806
0.004319,0.011992,0.009450,0.021301,0.011415,0.0127710,0.000792
0.004129,0.011909,0.009670,0.022252,0.011551,0.0128299,0.000972
0.003980,0.011802,0.010575,0.023142,0.012231,0.0127272,0.001114
0.004133,0.011620,0.011748,0.024566,0.013183,0.0125710,0.001236
0.004846,0.011349,0.013338,0.025578,0.014169,0.0124932,0.001302
0.005656,0.011069,0.014891,0.026607,0.015192,0.0124005,0.001641
0.007152,0.010712,0.016608,0.027457,0.016174,0.0122700,0.002352
0.009115,0.010295,0.018440,0.027804,0.017208,0.0121197,0.003187
0.011249,0.009891,0.020172,0.028118,0.018184,0.0118957,0.004116
0.013549,0.009450,0.021820,0.028383,0.019140,0.0115088,0.005203
0.016373,0.009054,0.023342,0.028720,0.020108,0.0107137,0.006297
0.019358,0.008721,0.024837,0.028971,0.021082,0.0097419,0.007361
0.022490,0.008397,0.026383,0.029173,0.021848,0.0087546,0.008465
0.026486,0.008163,0.027980,0.029158,0.022285,0.0077773,0.009693
0.030808,0.007974,0.029570,0.028889,0.022576,0.0068329,0.010954
0.035726,0.007781,0.031161,0.028162,0.022693,0.0060545,0.012042
0.040824,0.007578,0.032580,0.026953,0.022710,0.0055254,0.013307
0.046037,0.007348,0.033849,0.025731,0.022530,0.0051810,0.014718
0.051112,0.007078,0.035150,0.024464,0.022289,0.0050366,0.016125
0.056006,0.006780,0.036184,0.023560,0.022044,0.0048889,0.017773
0.060820,0.006497,0.037010,0.023075,0.021775,0.0047361,0.019522
0.065707,0.006198,0.037725,0.022471,0.021427,0.0046076,0.021305
0.070679,0.005964,0.038328,0.021581,0.020902,0.0044981,0.022961
0.075726,0.005767,0.038276,0.020821,0.019818,0.0045659,0.024639
0.080666,0.005609,0.037926,0.019591,0.018458,0.0046733,0.026305
0.085373,0.005493,0.037423,0.018533,0.016989,0.0047626,0.027973
0.089990,0.005428,0.037273,0.017752,0.015524,0.0048657,0.029203
0.093355,0.005345,0.036940,0.018048,0.014241,0.0049496,0.030367
0.095755,0.005284,0.036245,0.018965,0.012926,0.0050245,0.031565
0.097993,0.005245,0.035551,0.020055,0.011672,0.0050897,0.032660
0.100050,0.005261,0.034939,0.021179,0.010513,0.0051001,0.033477
0.101269,0.005274,0.034566,0.021868,0.009535,0.0050965,0.034158
0.102442,0.005258,0.034163,0.022444,0.008546,0.0050802,0.034864
0.103510,0.005225,0.033668,0.023094,0.007753,0.0050447,0.035502
0.103146,0.005178,0.032690,0.024308,0.007329,0.0049683,0.036143
0.102051,0.005130,0.031751,0.026762,0.007019,0.0048262,0.036559
0.099809,0.005012,0.030371,0.030284,0.006853,0.0045966,0.037416
0.096777,0.004867,0.029031,0.034629,0.006807,0.0043213,0.038242
0.093611,0.004723,0.027813,0.039090,0.006895,0.0040445,0.039017
0.090833,0.004565,0.026472,0.043460,0.006973,0.0038373,0.039846
0.088615,0.004450,0.025275,0.047071,0.007000,0.0037091,0.040292
0.086534,0.004328,0.024229,0.049940,0.007029,0.0036134,0.040637
0.084593,0.004210,0.023138,0.053030,0.007014,0.0035412,0.040820
0.082886,0.004143,0.021967,0.057030,0.006943,0.0034546,0.040659
0.081064,0.004086,0.020812,0.061331,0.006912,0.0033631,0.040412
0.078879,0.003998,0.019762,0.065748,0.006908,0.0032535,0.040359
0.075891,0.003917,0.018431,0.070403,0.007019,0.0031537,0.040377
0.072603,0.003794,0.016612,0.074825,0.007162,0.0030666,0.040749
0.069827,0.003732,0.014835,0.077210,0.007209,0.0030719,0.040818
0.067839,0.003742,0.013331,0.079689,0.007198,0.0030845,0.040244
0.065809,0.003786,0.011890,0.082542,0.007188,0.0030905,0.039463
0.063757,0.003793,0.010438,0.085962,0.007083,0.0031197,0.038760
0.061840,0.003768,0.008896,0.090259,0.006930,0.0031275,0.038347
0.059709,0.003750,0.007419,0.094877,0.006843,0.0031153,0.037919
0.057502,0.003754,0.005957,0.099514,0.006785,0.0031160,0.037470
0.056038,0.003810,0.004903,0.104528,0.006633,0.0031154,0.036682
0.055045,0.003863,0.003783,0.108909,0.006511,0.0031411,0.036032
0.054391,0.003933,0.003129,0.112148,0.006461,0.0032456,0.035268
0.054157,0.004010,0.002603,0.114394,0.006408,0.0034112,0.034564
0.053768,0.004121,0.002088,0.116412,0.006410,0.0036095,0.033778
0.052964,0.004241,0.001690,0.119407,0.006412,0.0036954,0.032833
0.051254,0.004315,0.001584,0.123358,0.006573,0.0036479,0.032042
0.049174,0.004395,0.001609,0.127809,0.006754,0.0035872,0.031284
0.046519,0.004464,0.001824,0.132147,0.007033,0.0035516,0.030592
0.043608,0.004512,0.002097,0.135035,0.007370,0.0035726,0.030222
0.040656,0.004553,0.002382,0.137243,0.007682,0.0036228,0.029964
0.037976,0.004668,0.002585,0.139285,0.007949,0.0037048,0.029273
0.035679,0.004799,0.002845,0.141273,0.008147,0.0037400,0.028522
0.033936,0.005012,0.003247,0.143959,0.008262,0.0037093,0.027266
0.032125,0.005241,0.003662,0.147975,0.008400,0.0035879,0.026020
0.029849,0.005382,0.004120,0.150907,0.008650,0.0034893,0.025477
0.027496,0.005490,0.004619,0.153033,0.008934,0.0034397,0.025239
0.025130,0.005605,0.005148,0.154599,0.009267,0.0034020,0.025074
0.023140,0.005751,0.005613,0.155159,0.009541,0.0034253,0.024581
0.021059,0.005898,0.006123,0.155616,0.009819,0.0034696,0.024124
0.018825,0.006022,0.006720,0.156058,0.010132,0.0035044,0.023808
0.016441,0.006107,0.007361,0.155471,0.010522,0.0035606,0.023685
0.014081,0.006203,0.008046,0.154304,0.010837,0.0036408,0.023466
0.011905,0.006331,0.008685,0.154022,0.011049,0.0036756,0.023050
0.009994,0.006535,0.009228,0.154263,0.011232,0.0036904,0.022278
0.008402,0.006780,0.009727,0.154560,0.011351,0.0036820,0.021333
0.006897,0.007038,0.010185,0.153544,0.011523,0.0037141,0.020497
0.005981,0.007378,0.010469,0.151506,0.011573,0.0038297,0.019546
0.005458,0.007766,0.010634,0.149262,0.011588,0.0039493,0.018481
0.005497,0.008196,0.010665,0.146752,0.011663,0.0039934,0.017306
0.005565,0.008590,0.010705,0.144147,0.011760,0.0039746,0.016181
0.005689,0.008978,0.010743,0.141462,0.011882,0.0039277,0.015050
0.005723,0.009336,0.010821,0.138694,0.012061,0.0038537,0.014169
0.005884,0.009699,0.010858,0.135899,0.012249,0.0038150,0.013291
0.005741,0.010011,0.010978,0.131848,0.012520,0.0038731,0.012757
0.005528,0.010305,0.011117,0.127021,0.012794,0.0040110,0.012318
0.005489,0.010613,0.011202,0.122675,0.013057,0.0041093,0.011621
0.005511,0.010913,0.011250,0.118509,0.013299,0.0041503,0.010791
0.005563,0.011242,0.011280,0.113715,0.013582,0.0041863,0.009885
0.005348,0.011595,0.011394,0.109040,0.013944,0.0041835,0.009171
0.005381,0.011979,0.011435,0.104181,0.014307,0.0042484,0.008388
0.005725,0.012394,0.011310,0.099106,0.014556,0.0044835,0.007402
0.006070,0.012805,0.011093,0.094299,0.014713,0.0048702,0.006423
0.006419,0.013216,0.010833,0.089945,0.014878,0.0053563,0.005527
0.006766,0.013608,0.010658,0.084639,0.015090,0.0059483,0.004699
0.006870,0.013934,0.010625,0.078840,0.015279,0.0066904,0.004163
0.006800,0.014187,0.010646,0.072968,0.015494,0.0076257,0.003815
0.006818,0.014422,0.010696,0.067383,0.015727,0.0087057,0.003449
0.006768,0.014619,0.010759,0.062149,0.015998,0.0098992,0.003186
0.006673,0.014771,0.010842,0.056966,0.016297,0.0111213,0.002982
0.006387,0.014892,0.010928,0.051812,0.016446,0.0124427,0.002929
0.006126,0.015073,0.010977,0.047208,0.016510,0.0139082,0.002829
0.005808,0.015358,0.010999,0.042773,0.016586,0.0156121,0.002748
0.005446,0.015636,0.011001,0.038441,0.016643,0.0173925,0.002708
0.005014,0.015848,0.011001,0.034145,0.016664,0.0191612,0.002732
0.004727,0.016142,0.010996,0.030577,0.016633,0.0206032,0.002641
0.004610,0.016593,0.010937,0.027508,0.016577,0.0217736,0.002432
0.004425,0.017079,0.010838,0.024639,0.016468,0.0225798,0.002344
0.004230,0.017614,0.010689,0.021955,0.016248,0.0235449,0.002328
0.004096,0.018158,0.010533,0.019986,0.015951,0.0243889,0.002329
0.004062,0.018682,0.010350,0.018393,0.015592,0.0251398,0.002270
0.003965,0.019222,0.010194,0.016896,0.015250,0.0259508,0.002277
0.003815,0.019863,0.010106,0.015775,0.014959,0.0265324,0.002344
0.003671,0.020440,0.010132,0.014950,0.014783,0.0269002,0.002420
0.003618,0.020923,0.010163,0.014459,0.014619,0.0271176,0.002431
0.003662,0.021502,0.010151,0.014859,0.014457,0.0270078,0.002431
0.003800,0.022033,0.010099,0.015756,0.014263,0.0266910,0.002351
0.003988,0.022760,0.010042,0.016919,0.014038,0.0261919,0.002244
0.004178,0.023702,0.009954,0.018407,0.013655,0.0256250,0.002156
0.004372,0.024608,0.009881,0.019703,0.013266,0.0251149,0.002067
0.004524,0.025478,0.009714,0.020969,0.012777,0.0246804,0.001999
0.004678,0.026310,0.009550,0.022008,0.012325,0.0243451,0.001897
0.004817,0.027025,0.009405,0.022873,0.011976,0.0239274,0.001759
0.005027,0.027706,0.009255,0.023890,0.011634,0.0233393,0.001565
0.005294,0.028309,0.009088,0.024845,0.011278,0.0229162,0.001324
0.005494,0.028811,0.008932,0.025479,0.010965,0.0225547,0.001135
0.005650,0.029234,0.008729,0.026159,0.010626,0.0226305,0.000987
0.005773,0.029531,0.008546,0.027066,0.010314,0.0229008,0.000872
0.005911,0.029833,0.008408,0.027984,0.010003,0.0234557,0.000736
0.006091,0.030138,0.008283,0.028844,0.009743,0.0241515,0.000577
0.006216,0.030287,0.008161,0.029534,0.009513,0.0249013,0.000472
0.006245,0.030430,0.008058,0.029936,0.009267,0.0257954,0.000456
0.006306,0.030435,0.007955,0.030498,0.009040,0.0264769,0.000419
0.006237,0.030175,0.007878,0.030450,0.008834,0.0271870,0.000507
0.006037,0.030027,0.007715,0.029679,0.008449,0.0286531,0.000695
0.005741,0.029999,0.007529,0.028765,0.008081,0.0301198,0.000944
0.005349,0.029831,0.007408,0.027278,0.007775,0.0314902,0.001204
0.004959,0.029672,0.007305,0.025652,0.007550,0.0328617,0.001449
0.004563,0.029358,0.007208,0.023959,0.007398,0.0340765,0.001689
0.004162,0.028784,0.007107,0.022097,0.007367,0.0351409,0.001919
0.003782,0.028164,0.006983,0.020633,0.007340,0.0359998,0.002141
0.003567,0.027497,0.007009,0.019561,0.007510,0.0361072,0.002250
0.003227,0.026933,0.007036,0.018555,0.007607,0.0365190,0.002495
0.003020,0.026487,0.007032,0.017828,0.007640,0.0370606,0.002696
0.002812,0.026004,0.006991,0.017183,0.007555,0.0380335,0.002917
0.002608,0.025455,0.006969,0.016669,0.007486,0.0386237,0.003140
0.002508,0.025071,0.006945,0.016530,0.007373,0.0392020,0.003271
0.002422,0.024731,0.006997,0.016252,0.007342,0.0393760,0.003359
0.002237,0.024475,0.007031,0.015562,0.007245,0.0396914,0.003530
0.002088,0.024067,0.007078,0.014694,0.007226,0.0399100,0.003673
0.001907,0.023452,0.007182,0.013719,0.007283,0.0396943,0.003858
0.001759,0.022941,0.007299,0.012717,0.007406,0.0391832,0.004013
0.001662,0.022580,0.007399,0.011910,0.007512,0.0387608,0.004125
0.001497,0.022310,0.007491,0.010994,0.007558,0.0384006,0.004294
0.001388,0.022200,0.007545,0.010411,0.007602,0.0381251,0.004398
0.001415,0.021942,0.007624,0.010456,0.007827,0.0369199,0.004373
0.001458,0.021565,0.007738,0.010456,0.008051,0.0355288,0.004323
0.001496,0.021402,0.007780,0.010508,0.008213,0.0345650,0.004272
0.001556,0.021341,0.007782,0.010633,0.008389,0.0335945,0.004210
0.001645,0.021128,0.007807,0.010736,0.008594,0.0327063,0.004134
0.001711,0.020943,0.007843,0.010706,0.008769,0.0320224,0.004084
0.001723,0.020768,0.007903,0.010580,0.008937,0.0314192,0.004073
0.001600,0.020632,0.007898,0.010105,0.009030,0.0315884,0.004153
0.001627,0.020490,0.007876,0.009875,0.009200,0.0312731,0.004112
0.001597,0.020297,0.007890,0.009656,0.009374,0.0306365,0.004106
0.001562,0.020061,0.007973,0.009326,0.009575,0.0297701,0.004096
0.001494,0.020031,0.008058,0.008948,0.009792,0.0290620,0.004106
0.001425,0.020000,0.008198,0.008473,0.010083,0.0280942,0.004128
0.001322,0.019886,0.008290,0.007838,0.010403,0.0272781,0.004217
0.001359,0.019769,0.008388,0.007572,0.010742,0.0262949,0.004203
0.001382,0.019699,0.008477,0.007424,0.011131,0.0254713,0.004200
0.001991,0.021302,0.010802,0.012514,0.012287,0.0254636,0.004015
0.002597,0.022924,0.013154,0.017929,0.013473,0.0256405,0.003836
0.003224,0.024459,0.015512,0.023583,0.014659,0.0255652,0.003642
0.003904,0.025992,0.017857,0.029430,0.015852,0.0254416,0.003401
0.004595,0.027530,0.020224,0.035653,0.016963,0.0252240,0.003142
0.005292,0.029101,0.022602,0.041737,0.017990,0.0252447,0.002902
0.005994,0.030760,0.024931,0.048020,0.018861,0.0256538,0.002692
0.006312,0.030836,0.024996,0.049524,0.018926,0.0252705,0.002483
0.006606,0.030879,0.025029,0.051029,0.018937,0.0248287,0.002301
0.006864,0.030922,0.024957,0.053023,0.018827,0.0244829,0.002136
0.007129,0.031194,0.024884,0.054979,0.018709,0.0240088,0.001956
0.007425,0.032011,0.024797,0.056871,0.018563,0.0234264,0.001745
0.007692,0.033135,0.024716,0.058886,0.018384,0.0225834,0.001556
0.007940,0.034190,0.024680,0.060820,0.018241,0.0215858,0.001352
0.008162,0.035346,0.024675,0.062466,0.018072,0.0207946,0.001157
0.008423,0.036774,0.024732,0.064038,0.017954,0.0197070,0.000946
0.008727,0.038261,0.024888,0.065083,0.017917,0.0186024,0.000713
0.009004,0.039546,0.024985,0.066622,0.017893,0.0177428,0.000502
0.009267,0.040336,0.025103,0.068083,0.017840,0.0170170,0.000299
0.009439,0.040708,0.025274,0.069171,0.017834,0.0164000,0.000143
0.009534,0.041115,0.025477,0.070040,0.017784,0.0157942,0.000051
0.009066,0.039658,0.023381,0.065642,0.016990,0.0146063,0.000131
0.008618,0.037895,0.021144,0.061329,0.016057,0.0135940,0.000134
0.008160,0.035921,0.018873,0.056808,0.015131,0.0126552,0.000137
0.007549,0.033884,0.016623,0.051661,0.014170,0.0117692,0.000258
0.006961,0.031800,0.014353,0.046579,0.013259,0.0109422,0.000366
0.006237,0.029760,0.012194,0.041876,0.012466,0.0100313,0.000593
0.005493,0.027710,0.010042,0.038908,0.011767,0.0088885,0.000813
0.005155,0.026964,0.010818,0.041552,0.011964,0.0083519,0.001598
0.005587,0.026103,0.011824,0.043563,0.012209,0.0079622,0.002651
0.007251,0.025340,0.012955,0.044440,0.012478,0.0076043,0.003987
0.009134,0.024353,0.014021,0.045379,0.012740,0.0072592,0.005409
0.011095,0.022854,0.015071,0.046422,0.013031,0.0069688,0.006863
0.013298,0.021096,0.016044,0.047604,0.013261,0.0068088,0.008315
0.015786,0.019357,0.016964,0.049321,0.013425,0.0067916,0.009704
0.018392,0.017526,0.017871,0.051354,0.013691,0.0066892,0.011156
0.021197,0.015418,0.019014,0.053426,0.013962,0.0066185,0.012660
0.023871,0.013130,0.020423,0.056360,0.014174,0.0065263,0.014412
0.027203,0.011023,0.021819,0.059335,0.014282,0.0063638,0.016250
0.031366,0.009430,0.023353,0.062291,0.014292,0.0061856,0.018203
0.036496,0.008125,0.024837,0.065360,0.014230,0.0059722,0.020254
0.042609,0.006840,0.026285,0.068460,0.014015,0.0058570,0.022268
0.049221,0.005899,0.027655,0.071862,0.013672,0.0057017,0.024342
0.055930,0.005256,0.029160,0.075388,0.013331,0.0055724,0.026505
0.062751,0.004748,0.031315,0.078758,0.013011,0.0055206,0.028620
0.070033,0.004329,0.033675,0.082407,0.012722,0.0055027,0.030433
0.077327,0.003918,0.036128,0.085629,0.012521,0.0054533,0.032306
0.084657,0.003509,0.038492,0.088107,0.012277,0.0054935,0.034201
0.092395,0.003093,0.040754,0.088224,0.012053,0.0056336,0.036249
0.100561,0.002799,0.042228,0.087114,0.011673,0.0058946,0.037789
0.108192,0.002628,0.043452,0.086258,0.011232,0.0061100,0.038953
0.114769,0.002520,0.044441,0.085889,0.010771,0.0062760,0.039640
0.120869,0.002443,0.045065,0.085695,0.010347,0.0064269,0.040206
0.126874,0.002416,0.045616,0.085467,0.009892,0.0065751,0.040580
0.132723,0.002386,0.046192,0.084947,0.009462,0.0067308,0.040960
0.138367,0.002350,0.046763,0.084130,0.009130,0.0069064,0.041363
0.144033,0.002316,0.047177,0.083385,0.008916,0.0071093,0.041633
0.149527,0.002293,0.047020,0.082976,0.008630,0.0073127,0.041931
0.155023,0.002327,0.046269,0.082520,0.008314,0.0075437,0.041980
0.159634,0.002342,0.045547,0.081953,0.008080,0.0077838,0.041991
0.162901,0.002382,0.044825,0.082088,0.008021,0.0079681,0.041825
0.164959,0.002405,0.044192,0.082559,0.008060,0.0080866,0.041773
0.165812,0.002415,0.043632,0.083387,0.008266,0.0081084,0.041763
0.166167,0.002425,0.043195,0.084195,0.008578,0.0080731,0.041706
0.166321,0.002431,0.042740,0.084471,0.008956,0.0080052,0.041760
0.166173,0.002408,0.041704,0.084582,0.009405,0.0079064,0.042046
0.165593,0.002314,0.040424,0.085013,0.009809,0.0077663,0.042820
0.164815,0.002231,0.038782,0.085755,0.010121,0.0076244,0.043699
0.164390,0.002229,0.036807,0.086801,0.010317,0.0074833,0.044176
0.163045,0.002264,0.034858,0.087462,0.010575,0.0073335,0.044428
0.160550,0.002307,0.032836,0.088803,0.010959,0.0071474,0.044506
0.157304,0.002339,0.030892,0.090282,0.011421,0.0069720,0.044588
0.152754,0.002348,0.029083,0.092017,0.012103,0.0067075,0.044793
0.148092,0.002358,0.027754,0.093750,0.012863,0.0064148,0.044810
0.143348,0.002348,0.026528,0.095380,0.013677,0.0060998,0.044885
0.138246,0.002322,0.024868,0.097042,0.014551,0.0057296,0.045158
0.132621,0.002239,0.023017,0.098262,0.015393,0.0053508,0.045789
0.126725,0.002163,0.021292,0.099026,0.015994,0.0049995,0.046566
0.120736,0.002110,0.019821,0.099484,0.016617,0.0046908,0.047253
0.114566,0.002053,0.018586,0.099826,0.017227,0.0043534,0.047877
0.108245,0.002046,0.017392,0.099903,0.017860,0.0040178,0.048344
0.102024,0.001986,0.016176,0.099720,0.018449,0.0036918,0.049077
0.095659,0.001915,0.015015,0.099462,0.019073,0.0033916,0.049867
0.089406,0.001815,0.013840,0.098985,0.019820,0.0031100,0.050741
0.083135,0.001720,0.012662,0.098352,0.020691,0.0028420,0.051594
0.076611,0.001651,0.011550,0.097919,0.021653,0.0025826,0.052224
0.070060,0.001621,0.010490,0.097701,0.022622,0.0023168,0.052650
0.063419,0.001638,0.009540,0.097330,0.023450,0.0020717,0.052788
0.056813,0.001661,0.008928,0.097048,0.024314,0.0018457,0.052705
0.049908,0.001635,0.008654,0.096858,0.025314,0.0016082,0.052810
0.043515,0.001605,0.008471,0.097157,0.026306,0.0013406,0.052939
0.037825,0.001568,0.008500,0.096873,0.027248,0.0010864,0.053104
0.032714,0.001543,0.008465,0.096538,0.028113,0.0008414,0.053194
0.028802,0.001545,0.008448,0.095913,0.028791,0.0006692,0.053173
0.025207,0.001537,0.008393,0.095056,0.029377,0.0005386,0.053342
0.021649,0.001537,0.008359,0.094263,0.029954,0.0004365,0.053428
0.018368,0.001580,0.008797,0.093735,0.030492,0.0003800,0.053136
0.015560,0.001729,0.009443,0.093694,0.030970,0.0003469,0.052169
0.012901,0.001906,0.010106,0.093672,0.031500,0.0003152,0.050920
0.010283,0.002079,0.010775,0.093690,0.032073,0.0002497,0.049592
0.007957,0.002271,0.011497,0.093548,0.032677,0.0002202,0.048141
0.006003,0.002452,0.012206,0.093158,0.033236,0.0002160,0.046723
0.004459,0.002679,0.012807,0.092464,0.033677,0.0002350,0.045089
0.003328,0.002942,0.013271,0.091584,0.034041,0.0002834,0.043172
0.002361,0.003256,0.014019,0.092303,0.034645,0.0004456,0.041221
0.001431,0.003564,0.015135,0.093965,0.035769,0.0008504,0.039360
0.000825,0.003869,0.016361,0.095558,0.036958,0.0014503,0.037627
0.000447,0.004162,0.017518,0.097216,0.038181,0.0020977,0.035925
0.000280,0.004440,0.018607,0.098885,0.039654,0.0027889,0.034220
0.000282,0.004731,0.019627,0.100343,0.041114,0.0034541,0.032561
0.000356,0.005030,0.020606,0.101858,0.042491,0.0041037,0.030912
0.000512,0.005299,0.021572,0.103542,0.043810,0.0047559,0.029349
0.000908,0.005595,0.022442,0.105515,0.045073,0.0054231,0.027676
0.001623,0.005916,0.023238,0.107633,0.046299,0.0061117,0.025815
0.002384,0.006235,0.024020,0.110091,0.047412,0.0068059,0.023968
0.003215,0.006546,0.024782,0.112995,0.048366,0.0074919,0.022113
0.004015,0.006818,0.025538,0.116055,0.049264,0.0081777,0.020510
0.004807,0.007065,0.026310,0.118999,0.050121,0.0088631,0.019082
0.005594,0.007259,0.027074,0.121910,0.050979,0.0095321,0.018012
0.006397,0.007425,0.027793,0.125117,0.051816,0.0101829,0.017156
0.007198,0.007591,0.028520,0.128368,0.052484,0.0108434,0.016415
0.007830,0.007719,0.029249,0.131622,0.053039,0.0114930,0.016003
0.008355,0.007831,0.029965,0.135026,0.053561,0.0121344,0.015744
0.008850,0.007935,0.030680,0.138444,0.054178,0.0127719,0.015535
0.009343,0.008053,0.031414,0.141838,0.054833,0.0134002,0.015331
0.009831,0.008161,0.031817,0.143627,0.055081,0.0139193,0.015023
0.010324,0.008271,0.031874,0.144490,0.054699,0.0142008,0.014596
0.010750,0.008351,0.031763,0.145096,0.054205,0.0142919,0.014191
0.011052,0.008420,0.031666,0.145306,0.053670,0.0143475,0.013860
0.011332,0.008499,0.031574,0.145370,0.053067,0.0143666,0.013523
0.011598,0.008575,0.031495,0.145368,0.052487,0.0144035,0.013191
0.011784,0.008630,0.031442,0.145341,0.052000,0.0144581,0.012962
0.011721,0.008663,0.030374,0.142071,0.050055,0.0139558,0.012634
0.011324,0.008681,0.029469,0.138496,0.048404,0.0134351,0.012316
0.010597,0.008661,0.028683,0.134177,0.046853,0.0129698,0.012412
0.009791,0.008621,0.027901,0.128559,0.045431,0.0126294,0.012542
0.008931,0.008605,0.027073,0.122512,0.044015,0.0126063,0.012703
0.008131,0.008663,0.026225,0.116068,0.042578,0.0127461,0.012831
0.007757,0.008813,0.025221,0.109832,0.040987,0.0128938,0.012568
0.007207,0.008967,0.024258,0.103406,0.039369,0.0131219,0.012351
0.006666,0.009082,0.023321,0.097010,0.037695,0.0134385,0.012103
0.005991,0.009199,0.022385,0.090544,0.036129,0.0138660,0.011842
0.005527,0.009333,0.021386,0.084131,0.034656,0.0141925,0.011384
0.005294,0.009448,0.020351,0.077739,0.033231,0.0142032,0.010811
0.005104,0.009512,0.019312,0.071252,0.031781,0.0141938,0.010191
0.005016,0.009544,0.018232,0.064633,0.030409,0.0141649,0.009588
0.004877,0.009595,0.017170,0.057780,0.028901,0.0140690,0.009079
0.004760,0.009671,0.016069,0.051001,0.027407,0.0138372,0.008600
0.004698,0.009826,0.014919,0.044489,0.025860,0.0136738,0.008082
0.004709,0.010033,0.013754,0.038478,0.024208,0.0135489,0.007486
0.004728,0.010221,0.012589,0.032701,0.022556,0.0134476,0.006885
0.004638,0.010416,0.011457,0.026757,0.020883,0.0134013,0.006323
0.004617,0.010720,0.010362,0.020943,0.019071,0.0134412,0.005627
0.004743,0.011053,0.010284,0.018457,0.018720,0.0141424,0.004986
0.004926,0.011399,0.010121,0.016308,0.017984,0.0149299,0.004523
0.005083,0.011614,0.009961,0.014952,0.017235,0.0156954,0.004018
0.005223,0.011858,0.009806,0.014731,0.016494,0.0163315,0.003635
0.005421,0.012137,0.009701,0.014647,0.015882,0.0165871,0.003222
0.005576,0.012380,0.009571,0.014623,0.015317,0.0166628,0.002824
0.005338,0.012533,0.009566,0.014317,0.014968,0.0166207,0.002792
0.005319,0.012696,0.009531,0.014123,0.014673,0.0164181,0.002675
0.005315,0.012880,0.009531,0.013937,0.014532,0.0160091,0.002532
0.005424,0.013148,0.009540,0.013842,0.014426,0.0154735,0.002399
0.005518,0.013439,0.009575,0.013687,0.014303,0.0150661,0.002294
0.005494,0.013696,0.009587,0.013423,0.014142,0.0149849,0.002264
0.005464,0.014015,0.009581,0.013229,0.013909,0.0150240,0.002233
0.005317,0.014359,0.009617,0.013233,0.013566,0.0151206,0.002205
0.005217,0.014692,0.009632,0.013426,0.013377,0.0152779,0.002087
0.005066,0.014943,0.009632,0.013528,0.013097,0.0155035,0.001976
0.004873,0.015037,0.009656,0.013402,0.012833,0.0156290,0.001893
0.004682,0.015049,0.009689,0.013191,0.012612,0.0156344,0.001824
0.004489,0.015113,0.009713,0.012862,0.012405,0.0156469,0.001745
0.004405,0.015212,0.009706,0.012669,0.012202,0.0155887,0.001655
0.004354,0.015247,0.009640,0.012372,0.012073,0.0154172,0.001606
0.004413,0.015389,0.009579,0.012282,0.011952,0.0150594,0.001489
0.004499,0.015628,0.009519,0.012416,0.011974,0.0146442,0.001374
0.004547,0.016017,0.009462,0.012555,0.011954,0.0142861,0.001260
0.004585,0.016369,0.009408,0.012758,0.011935,0.0140454,0.001177
0.004628,0.016704,0.009394,0.012983,0.011932,0.0138547,0.001110
0.004745,0.016924,0.009376,0.013477,0.011976,0.0136218,0.001012
0.004810,0.017095,0.009387,0.014023,0.011960,0.0135123,0.000972
0.004761,0.017306,0.009404,0.014252,0.011880,0.0137995,0.001056
0.004655,0.017401,0.009379,0.014297,0.011707,0.0143117,0.001217
0.004609,0.017372,0.009336,0.014237,0.011595,0.0147963,0.001359
0.004568,0.017248,0.009251,0.014149,0.011522,0.0152140,0.001511
0.004521,0.017298,0.009175,0.014145,0.011472,0.0156065,0.001626
0.004416,0.017348,0.009083,0.014091,0.011423,0.0161216,0.001774
0.004351,0.017461,0.009006,0.013989,0.011394,0.0165388,0.001898
0.004339,0.017495,0.008963,0.013951,0.011434,0.0166293,0.001979
0.004396,0.017741,0.008913,0.014060,0.011530,0.0165797,0.001995
0.004557,0.018303,0.008835,0.014509,0.011609,0.0166250,0.001932
0.004731,0.018943,0.008755,0.014971,0.011685,0.0167376,0.001873
0.004948,0.019469,0.008685,0.015506,0.011742,0.0167633,0.001793
0.005206,0.020057,0.008614,0.016280,0.011768,0.0167112,0.001660
0.005341,0.020837,0.008531,0.016878,0.011716,0.0168504,0.001623
0.005349,0.022152,0.008467,0.017267,0.011646,0.0171775,0.001694
0.005315,0.023697,0.008463,0.017407,0.011523,0.0174648,0.001804
0.005292,0.025802,0.008462,0.017741,0.011340,0.0176148,0.001880
0.005203,0.028305,0.008479,0.017872,0.011206,0.0176631,0.001973
0.005027,0.031558,0.008468,0.017760,0.011040,0.0178882,0.002158
0.004844,0.034816,0.008448,0.017669,0.010878,0.0182096,0.002344
0.004749,0.037665,0.008430,0.017658,0.010826,0.0182960,0.002453
0.004691,0.041064,0.008409,0.018033,0.010730,0.0181439,0.002502
0.004666,0.044466,0.008387,0.018555,0.010682,0.0179056,0.002511
0.004614,0.048377,0.008395,0.019002,0.010592,0.0176054,0.002518
0.004635,0.052128,0.008435,0.019545,0.010506,0.0172753,0.002484
0.004647,0.056351,0.008528,0.019897,0.010404,0.0168049,0.002460
0.004680,0.061037,0.008681,0.020210,0.010278,0.0159777,0.002415
0.004737,0.066770,0.008828,0.020601,0.010059,0.0151235,0.002361
0.004838,0.072052,0.008925,0.020927,0.009764,0.0144878,0.002274
0.004816,0.076691,0.009092,0.020976,0.009547,0.0141146,0.002275
0.004824,0.080952,0.009234,0.021251,0.009280,0.0138580,0.002254
0.004797,0.085784,0.009353,0.021723,0.008914,0.0136747,0.002257
0.004739,0.090482,0.009444,0.022148,0.008576,0.0137509,0.002301
0.004583,0.095175,0.009553,0.022170,0.008276,0.0139227,0.002427
0.004371,0.099664,0.009688,0.022201,0.008073,0.0139464,0.002602
0.004163,0.103618,0.009809,0.022241,0.007907,0.0139164,0.002775
0.003928,0.108276,0.009901,0.022295,0.007612,0.0138730,0.002970
0.003700,0.114140,0.010054,0.021896,0.007382,0.0137853,0.003213
0.003530,0.119192,0.010235,0.021179,0.007106,0.0138808,0.003405
0.003432,0.124825,0.010427,0.020820,0.006828,0.0136040,0.003539
0.003341,0.130981,0.010600,0.020306,0.006407,0.0137349,0.003681
0.003191,0.137212,0.010795,0.019611,0.005933,0.0141127,0.003858
0.003077,0.143797,0.011037,0.018715,0.005549,0.0144032,0.004015
0.002951,0.149620,0.011251,0.017891,0.005132,0.0143970,0.004161
0.002813,0.154043,0.011482,0.017491,0.004725,0.0144652,0.004294
0.002571,0.157210,0.011855,0.017465,0.004422,0.0143071,0.004488
0.002339,0.158174,0.012394,0.017933,0.004280,0.0142279,0.004674
0.002137,0.157583,0.014256,0.020090,0.004793,0.0138249,0.004887
0.001885,0.153825,0.017093,0.022811,0.005941,0.0135145,0.005113
0.001547,0.150355,0.020109,0.026333,0.007308,0.0133170,0.005391
0.001287,0.146090,0.023774,0.030881,0.008655,0.0130762,0.005563
0.001256,0.141064,0.028290,0.034933,0.010175,0.0127626,0.005708
0.001607,0.135425,0.033311,0.038709,0.011924,0.0124124,0.005633
0.001991,0.129987,0.038440,0.042813,0.013644,0.0117927,0.005544
0.002708,0.124420,0.043624,0.047781,0.015398,0.0111232,0.005511
0.003553,0.118786,0.048805,0.053225,0.017260,0.0104034,0.005791
0.005492,0.113031,0.053618,0.057823,0.018945,0.0097246,0.005909
0.008681,0.106275,0.057401,0.061134,0.020479,0.0091802,0.005774
0.012491,0.097677,0.060920,0.064438,0.021782,0.0088128,0.005869
0.016560,0.089465,0.064804,0.067961,0.022931,0.0084249,0.005919
0.020047,0.079761,0.068764,0.071690,0.024066,0.0082196,0.006476
0.023402,0.069607,0.072833,0.074823,0.025718,0.0075863,0.007186
0.026558,0.059781,0.076140,0.078044,0.027673,0.0068638,0.008348
0.029793,0.048976,0.079434,0.081231,0.029845,0.0061532,0.009627
0.033176,0.039052,0.082473,0.084128,0.032102,0.0057308,0.010913
0.036808,0.030136,0.085309,0.085997,0.034274,0.0054253,0.011808
0.041549,0.022810,0.087699,0.086533,0.036111,0.0054994,0.012114
0.045868,0.017120,0.089551,0.087311,0.037855,0.0056152,0.012335
0.049586,0.012484,0.090787,0.086470,0.039013,0.0062201,0.012416
0.053053,0.009943,0.091068,0.085143,0.040027,0.0067210,0.012083
0.056478,0.007619,0.090681,0.082609,0.041456,0.0070630,0.011855
0.060298,0.006621,0.089395,0.078564,0.042752,0.0074375,0.011595
0.064202,0.006547,0.086315,0.074956,0.043503,0.0076926,0.011453
0.067564,0.006486,0.082632,0.072055,0.044053,0.0078965,0.011453
0.070777,0.006465,0.078263,0.068982,0.044269,0.0081460,0.011453
0.073629,0.006487,0.073873,0.064837,0.044394,0.0084455,0.011362
0.076385,0.006530,0.069491,0.060340,0.044526,0.0088077,0.010862
0.077582,0.006570,0.065969,0.057297,0.044671,0.0091342,0.010501
0.077486,0.006520,0.063443,0.055343,0.045080,0.0093210,0.010477
0.076710,0.006527,0.060387,0.053677,0.045693,0.0093545,0.010339
0.075402,0.006558,0.056601,0.052397,0.046236,0.0091717,0.010410
0.074703,0.006714,0.052665,0.051007,0.046252,0.0090172,0.009970
0.073654,0.006842,0.048827,0.050777,0.045951,0.0087865,0.009563
0.072209,0.006992,0.045896,0.050085,0.045394,0.0086212,0.008905
0.070621,0.007158,0.042954,0.048893,0.044371,0.0084877,0.008293
0.069024,0.007339,0.040250,0.047653,0.043238,0.0083752,0.007575
0.067311,0.007445,0.037655,0.047609,0.042093,0.0081593,0.007188
0.064389,0.007470,0.035386,0.048342,0.040996,0.0077946,0.007437
0.061332,0.007450,0.032983,0.048409,0.039944,0.0073867,0.007984
0.058855,0.007516,0.029636,0.048962,0.038853,0.0069990,0.008269
0.056548,0.007537,0.026266,0.049636,0.037350,0.0067025,0.008954
0.054236,0.007570,0.023405,0.050634,0.034992,0.0066094,0.009637
0.051508,0.007564,0.020770,0.052469,0.032714,0.0064668,0.010340
0.048684,0.007620,0.018917,0.053819,0.030691,0.0063647,0.010756
0.045815,0.007619,0.017252,0.054665,0.028748,0.0062571,0.011434
0.043046,0.007610,0.016180,0.055416,0.027152,0.0061557,0.012101
0.040382,0.007616,0.015086,0.057136,0.025604,0.0060041,0.012587
0.037711,0.007636,0.014009,0.058628,0.023876,0.0058113,0.013227
0.035669,0.007685,0.012422,0.060164,0.022284,0.0055200,0.013730
0.033713,0.007772,0.010858,0.061840,0.020744,0.0052739,0.014089
0.031806,0.007824,0.010008,0.062981,0.019229,0.0050787,0.014380
0.030289,0.007896,0.009499,0.063994,0.017878,0.0049337,0.014457
0.028635,0.007959,0.009069,0.064783,0.017061,0.0047543,0.014522
0.027530,0.008119,0.008646,0.065588,0.016206,0.0047565,0.014400
0.027274,0.008339,0.008138,0.067629,0.015450,0.0049394,0.013912
0.027359,0.008618,0.007540,0.070098,0.014926,0.0051381,0.013002
0.027184,0.008884,0.007026,0.073282,0.014423,0.0053090,0.012114
0.026782,0.009122,0.006547,0.075821,0.014035,0.0054873,0.011459
0.026552,0.009339,0.005971,0.079331,0.013778,0.0057162,0.010587
0.026790,0.009581,0.005947,0.082288,0.013460,0.0060484,0.009577
0.027069,0.009746,0.006128,0.084512,0.013187,0.0063150,0.008999
0.027479,0.009943,0.006229,0.086968,0.012888,0.0065799,0.008315
0.027780,0.010146,0.006383,0.089539,0.012822,0.0068093,0.007546
0.028149,0.010354,0.006457,0.092718,0.012695,0.0070711,0.006843
0.028045,0.010429,0.006595,0.095220,0.012643,0.0071896,0.006397
0.028070,0.010534,0.006579,0.096887,0.012431,0.0071845,0.005749
0.028002,0.010636,0.006468,0.099448,0.012139,0.0071833,0.005082
0.027775,0.010693,0.006397,0.101411,0.011911,0.0072360,0.004595
0.027551,0.010788,0.006359,0.103745,0.011711,0.0072849,0.003954
0.027067,0.010875,0.006455,0.104442,0.011561,0.0073899,0.003570
0.026444,0.010951,0.006583,0.105272,0.011446,0.0074789,0.003213
0.025790,0.011091,0.006737,0.106707,0.011347,0.0075577,0.002748
0.025042,0.011308,0.006898,0.108118,0.011281,0.0076086,0.002330
0.024517,0.011650,0.006972,0.110140,0.011247,0.0076431,0.001830
0.023813,0.012075,0.006944,0.111004,0.011191,0.0074982,0.001417
0.022564,0.012424,0.006949,0.111110,0.011030,0.0071448,0.001499
0.020911,0.012699,0.007091,0.111480,0.010952,0.0067134,0.001992
0.019300,0.012998,0.007255,0.110724,0.010923,0.0062501,0.002660
0.017988,0.013476,0.007359,0.109907,0.010833,0.0057766,0.003069
0.016769,0.013945,0.007492,0.107793,0.010715,0.0053721,0.003471
0.015641,0.014465,0.007527,0.106281,0.010564,0.0049615,0.003688
0.014649,0.015009,0.007521,0.105029,0.010390,0.0045814,0.003710
0.013676,0.015509,0.007573,0.103638,0.010242,0.0041944,0.003807
0.012932,0.015967,0.007565,0.102740,0.010056,0.0037752,0.003839
0.011972,0.016295,0.007657,0.100152,0.009946,0.0033752,0.004010
0.011098,0.016650,0.007918,0.098472,0.009972,0.0030852,0.004209
0.010441,0.017096,0.008162,0.097450,0.010123,0.0029565,0.004179
0.009853,0.017571,0.008463,0.095144,0.010345,0.0028410,0.004179
0.009397,0.018186,0.008754,0.092636,0.010547,0.0027690,0.004179
0.008946,0.018688,0.009059,0.089765,0.010858,0.0027656,0.004179
0.008620,0.019175,0.009257,0.087863,0.011303,0.0027834,0.004060
0.008580,0.019676,0.009443,0.085770,0.011830,0.0029936,0.003911
0.008664,0.020141,0.009594,0.083471,0.012375,0.0033652,0.003805
0.008695,0.020493,0.009757,0.080527,0.013184,0.0038026,0.003755
0.008411,0.020696,0.010018,0.075835,0.014102,0.0044477,0.003957
0.008216,0.020816,0.010231,0.071685,0.014984,0.0051995,0.004054
0.008393,0.020964,0.010317,0.067391,0.015774,0.0060338,0.003743
0.008724,0.021159,0.010325,0.062927,0.016520,0.0069983,0.003243
0.009190,0.021380,0.010268,0.059207,0.017231,0.0080297,0.002620
0.009378,0.021325,0.010237,0.055479,0.018005,0.0091434,0.002148
0.009501,0.021477,0.010141,0.052771,0.018677,0.0103474,0.001761
0.009546,0.021590,0.010050,0.050103,0.019246,0.0113969,0.001484
0.009331,0.021727,0.010015,0.047717,0.019727,0.0122306,0.001331
0.008996,0.021914,0.010008,0.045014,0.019936,0.0131206,0.001234
0.008599,0.022150,0.009989,0.041732,0.020150,0.0140985,0.001202
0.008394,0.022494,0.009920,0.039375,0.020331,0.0150071,0.001031
0.008286,0.022845,0.009805,0.037060,0.020478,0.0158105,0.000831
0.008110,0.023029,0.009773,0.034656,0.020598,0.0166603,0.000831
0.007885,0.023061,0.009816,0.032161,0.020706,0.0172739,0.000897
0.007722,0.023106,0.009796,0.030106,0.020776,0.0178468,0.000897
0.007657,0.023299,0.009649,0.028261,0.020829,0.0184509,0.000897
0.007590,0.023702,0.009521,0.026331,0.020740,0.0189869,0.000897
0.007402,0.024074,0.009365,0.024702,0.020504,0.0191406,0.000897
0.007112,0.024469,0.009260,0.023173,0.020248,0.0191357,0.000897
0.006829,0.024952,0.009156,0.022377,0.019733,0.0192001,0.000857
0.006739,0.025459,0.009031,0.022613,0.019126,0.0191263,0.000656
0.006687,0.025940,0.008881,0.022985,0.018490,0.0191036,0.000443
0.006552,0.026300,0.008764,0.023259,0.017855,0.0191200,0.000320
0.006349,0.026617,0.008714,0.023267,0.017166,0.0189305,0.000259
0.006081,0.026847,0.008674,0.023143,0.016425,0.0186767,0.000251
0.005921,0.027110,0.008645,0.023462,0.015658,0.0183989,0.000155
0.005664,0.027220,0.008693,0.023219,0.015041,0.0179759,0.000147
0.005447,0.027187,0.008776,0.022760,0.014554,0.0177082,0.000184
0.005305,0.027170,0.008838,0.021944,0.014180,0.0174585,0.000256
0.005225,0.027221,0.008861,0.021080,0.014154,0.0171127,0.000306
0.005142,0.027164,0.008902,0.020326,0.014174,0.0165444,0.000350
0.005054,0.027200,0.008926,0.019594,0.014228,0.0160406,0.000377
0.004952,0.027235,0.008949,0.018818,0.014227,0.0158390,0.000431
0.004800,0.027336,0.008989,0.018098,0.014345,0.0155141,0.000529
0.004724,0.027502,0.008997,0.017706,0.014478,0.0154209,0.000571
0.004611,0.027437,0.009012,0.017058,0.014624,0.0152739,0.000655
0.004473,0.027234,0.009078,0.016459,0.014640,0.0150410,0.000742
0.004314,0.026700,0.009150,0.015912,0.014622,0.0148779,0.000845
0.004133,0.026167,0.009240,0.015264,0.014568,0.0148932,0.000973
0.003969,0.025584,0.009323,0.014629,0.014484,0.0149208,0.001098
0.003846,0.024791,0.009396,0.013930,0.014386,0.0147404,0.001195
0.003733,0.024097,0.009453,0.013360,0.014259,0.0144859,0.001286
0.003582,0.023425,0.009523,0.012704,0.014170,0.0142462,0.001395
0.003409,0.022908,0.009574,0.012175,0.014119,0.0139968,0.001528
0.003272,0.022416,0.009573,0.011941,0.014099,0.0138978,0.001637
0.003143,0.021968,0.009574,0.011751,0.014099,0.0138007,0.001748
0.002965,0.021626,0.009596,0.011392,0.014098,0.0136440,0.001910
0.002784,0.021230,0.009638,0.011045,0.014094,0.0135245,0.002057
0.002669,0.020989,0.009691,0.010856,0.014087,0.0133976,0.002149
0.002598,0.020681,0.009731,0.010763,0.014108,0.0134389,0.002198
0.002511,0.020126,0.009777,0.010674,0.013999,0.0135544,0.002276
0.002462,0.019625,0.009832,0.010646,0.013881,0.0137133,0.002327
0.002398,0.019008,0.009912,0.010582,0.013759,0.0138728,0.002391
0.002342,0.018429,0.010028,0.010429,0.013682,0.0138727,0.002422
0.002361,0.017910,0.010133,0.010356,0.013569,0.0140296,0.002382
0.002393,0.017475,0.010222,0.010305,0.013521,0.0143256,0.002334
0.002422,0.017109,0.010313,0.010241,0.013511,0.0146509,0.002298
0.002403,0.016714,0.010393,0.010042,0.013554,0.0149923,0.002316
