"1 Chan 1","2 Chan 2","3 Chan 3","4 Chan 4","5 Chan 5","6 Chan 6","7 Chan 7"
0.005296,0.028031,0.007358,0.009665,0.010215,0.006385,0.019797
0.005424,0.026842,0.007394,0.009290,0.010289,0.006586,0.019229
0.006201,0.025666,0.007524,0.008913,0.010153,0.006733,0.018577
0.007005,0.024654,0.007658,0.008499,0.010016,0.006829,0.017887
0.007755,0.023930,0.007797,0.008115,0.010013,0.006875,0.017183
0.008477,0.023577,0.007897,0.007922,0.010056,0.006848,0.016458
0.009195,0.023386,0.008013,0.007777,0.010304,0.006672,0.015720
0.009943,0.023171,0.008129,0.007752,0.010483,0.006492,0.014953
0.010536,0.023045,0.008247,0.007759,0.010694,0.006300,0.014270
0.010773,0.022872,0.008523,0.007816,0.010964,0.006125,0.013631
0.010961,0.022467,0.008908,0.007969,0.011283,0.005967,0.012990
0.011205,0.022147,0.009221,0.008122,0.011506,0.005800,0.012388
0.011526,0.021785,0.009519,0.008342,0.011617,0.005612,0.011847
0.011875,0.021755,0.009845,0.008723,0.011567,0.005390,0.011276
0.012427,0.021726,0.010152,0.009109,0.011532,0.005124,0.010803
0.013010,0.021473,0.010573,0.009677,0.011580,0.004937,0.010108
0.013519,0.020930,0.010910,0.010248,0.011502,0.004884,0.009568
0.014094,0.020243,0.011198,0.010672,0.011388,0.004947,0.009058
0.014678,0.019393,0.011434,0.011111,0.011313,0.004996,0.008533
0.015278,0.018260,0.011932,0.011484,0.011259,0.005036,0.007995
0.015892,0.017343,0.012530,0.011729,0.011208,0.004905,0.007502
0.016411,0.016789,0.013132,0.011932,0.010924,0.004796,0.006990
0.016745,0.016710,0.013688,0.011964,0.010616,0.004504,0.006660
0.016566,0.016676,0.014083,0.012058,0.010518,0.004171,0.006448
0.016560,0.016542,0.014491,0.012262,0.010441,0.003803,0.006292
0.016714,0.016589,0.014891,0.012459,0.010185,0.003430,0.006149
0.016812,0.016948,0.015102,0.012652,0.009939,0.003129,0.005949
0.017009,0.017171,0.015420,0.012813,0.009615,0.002965,0.005733
0.017151,0.017201,0.016042,0.012837,0.009415,0.002801,0.005622
0.017614,0.017166,0.016796,0.012816,0.009210,0.002652,0.005527
0.018587,0.017273,0.017570,0.012807,0.008917,0.002494,0.005435
0.019548,0.017622,0.018252,0.012758,0.008580,0.002322,0.005352
0.020351,0.018119,0.019021,0.012639,0.008366,0.002157,0.005246
0.021133,0.018618,0.019641,0.012612,0.008260,0.002000,0.005173
0.021685,0.018992,0.020120,0.012637,0.008253,0.001878,0.005101
0.022215,0.019445,0.020341,0.012695,0.008170,0.001808,0.005002
0.022677,0.019969,0.020443,0.012609,0.007992,0.001655,0.004949
0.022919,0.020416,0.020558,0.012404,0.007954,0.001422,0.004913
0.023120,0.020817,0.020821,0.012279,0.007916,0.001211,0.004874
0.023245,0.021008,0.021066,0.012166,0.007847,0.001037,0.004843
0.023439,0.021177,0.021101,0.012081,0.007647,0.000814,0.004860
0.023548,0.021283,0.021154,0.011961,0.007490,0.000613,0.004899
0.023439,0.021325,0.021018,0.011883,0.007580,0.000422,0.004920
0.023265,0.021229,0.020860,0.012036,0.007783,0.000427,0.004879
0.023021,0.021191,0.020647,0.012152,0.007958,0.000484,0.004859
0.023149,0.021324,0.020429,0.012233,0.008067,0.000483,0.004834
0.023155,0.021413,0.020213,0.012334,0.008254,0.000483,0.004802
0.023114,0.021432,0.020120,0.012372,0.008476,0.000483,0.004772
0.023063,0.021504,0.019818,0.012447,0.008721,0.000483,0.004737
0.023163,0.021586,0.019201,0.012506,0.008879,0.000482,0.004752
0.023027,0.021894,0.018809,0.012498,0.009065,0.000482,0.004792
0.022896,0.021960,0.018300,0.012551,0.009165,0.000536,0.004832
0.022365,0.021825,0.017877,0.012556,0.009349,0.000735,0.004881
0.021943,0.021436,0.017420,0.012663,0.009535,0.000936,0.004930
0.021525,0.021031,0.017075,0.012703,0.009681,0.001149,0.004993
0.021293,0.020698,0.016821,0.012586,0.009753,0.001354,0.005092
0.020813,0.020419,0.016873,0.012412,0.009846,0.001574,0.005138
0.020469,0.019856,0.016596,0.012277,0.009909,0.001773,0.005197
0.020454,0.019514,0.016356,0.012200,0.009836,0.001887,0.005246
0.020645,0.019271,0.015980,0.012078,0.009726,0.001949,0.005303
0.020934,0.019310,0.015625,0.011853,0.009585,0.001974,0.005376
0.021147,0.019376,0.015230,0.011592,0.009573,0.002004,0.005407
0.021318,0.019363,0.014776,0.011469,0.009545,0.002035,0.005390
0.021719,0.019258,0.014437,0.011307,0.009357,0.002045,0.005418
0.022177,0.019227,0.014170,0.011060,0.009105,0.002035,0.005436
0.022125,0.019043,0.014016,0.010786,0.008899,0.002047,0.005455
0.021281,0.018591,0.013832,0.010463,0.008800,0.002253,0.005482
0.020401,0.018067,0.013617,0.010077,0.008689,0.002561,0.005494
0.019595,0.017523,0.013452,0.009743,0.008522,0.002945,0.005491
0.018712,0.016982,0.013368,0.009410,0.008249,0.003345,0.005512
0.017693,0.016557,0.013345,0.009170,0.008063,0.003755,0.005448
0.016744,0.015950,0.012961,0.009040,0.007833,0.004166,0.005375
0.015622,0.015560,0.012506,0.008853,0.007733,0.004518,0.005307
0.014966,0.015422,0.011935,0.008664,0.007586,0.004635,0.005249
0.014263,0.015323,0.011476,0.008435,0.007428,0.004691,0.005212
0.013552,0.015280,0.011052,0.008123,0.007279,0.004687,0.005176
0.012878,0.015023,0.010590,0.007814,0.007259,0.004910,0.005099
0.012335,0.014649,0.009986,0.007507,0.007248,0.005198,0.005118
0.011720,0.014556,0.009720,0.007115,0.007275,0.005556,0.005141
0.011307,0.014228,0.009452,0.006803,0.007262,0.006134,0.005312
0.010805,0.014167,0.009259,0.006640,0.007249,0.006819,0.005497
0.010563,0.014616,0.008911,0.006643,0.007185,0.007717,0.005818
0.010610,0.016108,0.008480,0.006799,0.006975,0.008976,0.006381
0.011051,0.017904,0.008377,0.007563,0.006822,0.010985,0.007092
0.012093,0.020912,0.008362,0.008619,0.007288,0.013153,0.008040
0.013295,0.023943,0.008322,0.010428,0.008332,0.015361,0.009066
0.015067,0.027362,0.008333,0.012229,0.009870,0.017495,0.010108
0.016937,0.030578,0.008365,0.014420,0.011903,0.019391,0.011064
0.018623,0.033120,0.008428,0.017184,0.014813,0.021002,0.011922
0.020211,0.035007,0.008610,0.019914,0.018507,0.021966,0.012546
0.021612,0.036650,0.008406,0.022503,0.022155,0.022092,0.013291
0.022828,0.038322,0.008181,0.025028,0.025684,0.022146,0.013997
0.023904,0.039478,0.007902,0.027650,0.029208,0.022181,0.014628
0.024909,0.040182,0.007593,0.030323,0.032751,0.022131,0.015239
0.025889,0.040937,0.007324,0.033138,0.036268,0.022122,0.015782
0.026870,0.041669,0.007023,0.035997,0.039792,0.022184,0.016234
0.027861,0.042239,0.006783,0.038825,0.043233,0.022283,0.016604
0.028741,0.042922,0.006681,0.041377,0.046580,0.022166,0.017001
0.029508,0.043704,0.006691,0.043875,0.049730,0.021906,0.017418
0.030240,0.044455,0.006665,0.046407,0.052768,0.021529,0.017842
0.030735,0.045230,0.006636,0.048976,0.055705,0.020931,0.018099
0.031097,0.045590,0.006637,0.051485,0.058624,0.020228,0.018261
0.031104,0.045466,0.006790,0.053921,0.061478,0.019325,0.018241
0.030746,0.044316,0.007019,0.056310,0.064338,0.018087,0.017984
0.030035,0.042970,0.006914,0.058086,0.066998,0.016097,0.017604
0.028770,0.040434,0.006760,0.059578,0.069072,0.013941,0.016971
0.027403,0.037799,0.006643,0.060305,0.070554,0.011727,0.016325
0.025936,0.034723,0.006464,0.061111,0.071402,0.009583,0.015738
0.024591,0.031879,0.006285,0.061334,0.071482,0.007584,0.015318
0.023487,0.029722,0.006096,0.060793,0.070619,0.005761,0.015046
0.022508,0.028212,0.005827,0.060165,0.068880,0.004499,0.015059
0.021721,0.026969,0.005971,0.059734,0.067061,0.004064,0.014912
0.021117,0.025617,0.006106,0.059693,0.065203,0.003708,0.014814
0.020571,0.024803,0.006296,0.059898,0.062966,0.003399,0.014816
0.020030,0.024319,0.006547,0.060128,0.060417,0.003196,0.014894
0.019397,0.023559,0.006784,0.060272,0.057798,0.003067,0.015052
0.018789,0.022786,0.006967,0.060403,0.055107,0.002923,0.015284
0.018139,0.022137,0.007065,0.060635,0.052465,0.002795,0.015617
0.017501,0.021507,0.007088,0.061044,0.049872,0.002616,0.016048
0.016878,0.020811,0.007079,0.061417,0.047466,0.002457,0.016473
0.016264,0.020168,0.007143,0.061753,0.045225,0.002374,0.016801
0.015636,0.019746,0.007248,0.062319,0.043178,0.002368,0.017032
0.014986,0.019415,0.007353,0.063387,0.041151,0.002407,0.017175
0.014393,0.019053,0.007481,0.064704,0.039139,0.002449,0.017293
0.013893,0.018502,0.007622,0.066066,0.036963,0.002487,0.017449
0.013452,0.017711,0.007754,0.067217,0.034811,0.002513,0.017661
0.013030,0.016870,0.007873,0.068074,0.032576,0.002534,0.017920
0.012601,0.016084,0.007929,0.068875,0.030245,0.002562,0.018150
0.012154,0.015454,0.007946,0.069673,0.027938,0.002594,0.018288
0.011704,0.014898,0.007938,0.070761,0.025884,0.002617,0.018285
0.011188,0.014417,0.007926,0.072083,0.023921,0.002647,0.018214
0.010632,0.013964,0.007916,0.073474,0.022069,0.002694,0.018100
0.010040,0.013485,0.007862,0.074861,0.020389,0.002751,0.018025
0.009439,0.013111,0.007794,0.075965,0.018865,0.002799,0.017949
0.008916,0.012740,0.007735,0.076702,0.017745,0.002820,0.017819
0.008455,0.012443,0.007677,0.077447,0.016889,0.002825,0.017611
0.008101,0.012296,0.007613,0.078238,0.016116,0.002807,0.017373
0.007747,0.012171,0.007539,0.079273,0.015383,0.002800,0.017101
0.007402,0.012141,0.007470,0.080584,0.014650,0.002797,0.016725
0.007068,0.012258,0.007419,0.081976,0.013898,0.002840,0.016149
0.006772,0.012439,0.007388,0.083470,0.013108,0.002921,0.015463
0.006451,0.012604,0.007339,0.085024,0.012259,0.003006,0.014836
0.006159,0.012701,0.007278,0.086343,0.011360,0.003087,0.014300
0.005909,0.012797,0.007183,0.086959,0.010503,0.003163,0.013909
0.005704,0.012895,0.007070,0.086930,0.009796,0.003228,0.013579
0.005497,0.013209,0.006966,0.086561,0.009368,0.003278,0.013154
0.005293,0.013744,0.006888,0.086362,0.009037,0.003326,0.012613
0.005057,0.014346,0.006856,0.086496,0.008748,0.003385,0.012011
0.004807,0.014907,0.006917,0.086698,0.008560,0.003445,0.011362
0.004541,0.015484,0.007068,0.086799,0.008466,0.003497,0.010618
0.004275,0.016078,0.007258,0.086709,0.008374,0.003551,0.009871
0.004029,0.016657,0.007468,0.086612,0.008288,0.003603,0.009118
0.003786,0.017241,0.007679,0.086539,0.008155,0.003647,0.008376
0.003597,0.017837,0.007900,0.085934,0.008009,0.003674,0.007678
0.003464,0.018356,0.008144,0.084874,0.007846,0.003692,0.007045
0.003336,0.018810,0.008458,0.083583,0.007679,0.003708,0.006441
0.003188,0.019289,0.008849,0.082124,0.007548,0.003733,0.005807
0.003028,0.019783,0.009324,0.080550,0.007430,0.003772,0.005142
0.002924,0.020225,0.009825,0.078672,0.007346,0.003840,0.004517
0.002968,0.020548,0.010360,0.076388,0.007301,0.003916,0.003968
0.003202,0.020758,0.010933,0.073975,0.007282,0.003964,0.003531
0.003514,0.020884,0.011530,0.071527,0.007300,0.004050,0.003154
0.003886,0.020962,0.012162,0.069038,0.007356,0.004164,0.002776
0.004403,0.021010,0.012833,0.066462,0.007425,0.004249,0.002429
0.004939,0.021082,0.013552,0.064035,0.007497,0.004339,0.002099
0.005498,0.021145,0.014260,0.061892,0.007525,0.004451,0.001778
0.006067,0.021097,0.014982,0.059949,0.007537,0.004573,0.001520
0.006693,0.020962,0.015708,0.057866,0.007571,0.004702,0.001335
0.007441,0.020800,0.016430,0.055620,0.007613,0.004796,0.001169
0.008244,0.020614,0.017120,0.052980,0.007669,0.004875,0.001083
0.009087,0.020341,0.017778,0.050143,0.007721,0.004964,0.001128
0.009944,0.019985,0.018467,0.047280,0.007763,0.005060,0.001257
0.010792,0.019614,0.019155,0.044415,0.007803,0.005166,0.001433
0.011666,0.019191,0.019829,0.041530,0.007879,0.005274,0.001630
0.012541,0.018731,0.020511,0.039090,0.007935,0.005384,0.001785
0.013409,0.018313,0.021220,0.037030,0.007993,0.005492,0.001902
0.014269,0.017905,0.021915,0.035233,0.008043,0.005601,0.002014
0.015136,0.017459,0.022635,0.033456,0.008069,0.005700,0.002181
0.016013,0.016960,0.023346,0.031615,0.008085,0.005786,0.002408
0.016858,0.016513,0.024029,0.029794,0.008080,0.005834,0.002636
0.017593,0.016171,0.024657,0.028089,0.008062,0.005863,0.002867
0.018155,0.015879,0.025226,0.026601,0.008050,0.005924,0.003071
0.018625,0.015688,0.025769,0.025268,0.008035,0.005956,0.003259
0.019059,0.015602,0.026298,0.023978,0.007996,0.005949,0.003460
0.019367,0.015551,0.026827,0.022715,0.007948,0.005966,0.003661
0.019657,0.015501,0.027321,0.021489,0.007875,0.005982,0.003870
0.019922,0.015491,0.027751,0.020333,0.007805,0.005978,0.004070
0.020174,0.015551,0.028087,0.019260,0.007719,0.005964,0.004271
0.020364,0.015716,0.028352,0.018368,0.007606,0.005933,0.004450
0.020473,0.015927,0.028514,0.017591,0.007503,0.005903,0.004629
0.020462,0.016183,0.028658,0.017202,0.007377,0.005855,0.004768
0.020161,0.016505,0.028639,0.017198,0.007262,0.005843,0.004900
0.019738,0.016900,0.028464,0.017392,0.007124,0.005803,0.005017
0.019237,0.017345,0.028242,0.017620,0.006970,0.005718,0.005132
0.018783,0.017930,0.028073,0.017984,0.006831,0.005614,0.005230
0.018281,0.018574,0.027886,0.018370,0.006713,0.005500,0.005290
0.017790,0.019216,0.027720,0.018784,0.006622,0.005387,0.005330
0.017441,0.019979,0.027275,0.019155,0.006512,0.005284,0.005402
0.017213,0.020632,0.026723,0.019371,0.006416,0.005219,0.005498
0.017061,0.021130,0.026001,0.019617,0.006329,0.005169,0.005571
0.017068,0.021657,0.025284,0.019867,0.006231,0.005080,0.005634
0.017138,0.022083,0.024591,0.020103,0.006135,0.004984,0.005698
0.017243,0.022451,0.024003,0.020164,0.006049,0.004808,0.005744
0.017399,0.022735,0.023426,0.020052,0.005972,0.004626,0.005789
0.017662,0.022992,0.022945,0.019945,0.005897,0.004454,0.005822
0.017817,0.023090,0.022422,0.019786,0.005807,0.004309,0.005904
0.017980,0.023189,0.022304,0.019643,0.005730,0.004185,0.005998
0.018051,0.023317,0.022306,0.019471,0.005667,0.004082,0.006073
0.018198,0.023425,0.022377,0.019276,0.005604,0.003926,0.006108
0.018331,0.023551,0.022478,0.019060,0.005544,0.003721,0.006137
0.018530,0.023628,0.022663,0.018814,0.005527,0.003557,0.006164
0.018751,0.023587,0.022833,0.018619,0.005544,0.003510,0.006175
0.019199,0.023662,0.023182,0.018321,0.005550,0.003435,0.006166
0.019636,0.023735,0.023593,0.017939,0.005587,0.003406,0.006150
0.020086,0.023741,0.024016,0.017560,0.005635,0.003419,0.006149
0.020353,0.023566,0.024271,0.017026,0.005701,0.003456,0.006160
0.020708,0.023427,0.024513,0.016524,0.005781,0.003484,0.006170
0.021095,0.023671,0.024308,0.016126,0.005836,0.003475,0.006195
0.021403,0.023907,0.024155,0.015733,0.005897,0.003435,0.006202
0.021452,0.024160,0.024020,0.015532,0.005961,0.003390,0.006176
0.021349,0.024613,0.024056,0.015413,0.006014,0.003358,0.006151
0.020929,0.025264,0.024139,0.015252,0.006034,0.003334,0.006283
0.020377,0.025946,0.024230,0.015003,0.006059,0.003257,0.006454
0.019773,0.026477,0.024230,0.014838,0.006074,0.003243,0.006653
0.019306,0.027081,0.024186,0.014768,0.006041,0.003211,0.006873
0.018732,0.027698,0.024200,0.014746,0.006014,0.003309,0.007106
0.018341,0.028447,0.024248,0.014769,0.005968,0.003359,0.007365
0.017860,0.029184,0.023883,0.014769,0.005923,0.003401,0.007596
0.017542,0.029599,0.023544,0.014653,0.005867,0.003412,0.007835
0.017187,0.029861,0.023279,0.014576,0.005816,0.003481,0.008116
0.016741,0.030127,0.023414,0.014517,0.005784,0.003639,0.008402
0.016188,0.030431,0.023673,0.014477,0.005727,0.003775,0.008712
0.015694,0.030639,0.023969,0.014395,0.005671,0.003821,0.008937
0.015181,0.030719,0.024299,0.014302,0.005602,0.003871,0.009166
0.014783,0.030709,0.024670,0.014208,0.005535,0.003970,0.009387
0.014389,0.030596,0.025020,0.014080,0.005478,0.004177,0.009664
0.014126,0.030448,0.025369,0.013947,0.005398,0.004259,0.009941
0.013766,0.030254,0.025753,0.013796,0.005319,0.004370,0.010204
0.013194,0.029719,0.026911,0.013432,0.005294,0.004567,0.010448
0.012373,0.028956,0.028235,0.013067,0.005319,0.004828,0.010666
0.011654,0.028213,0.029537,0.012699,0.005321,0.005067,0.010945
0.011070,0.027674,0.030432,0.012270,0.005289,0.005255,0.011251
0.010742,0.026848,0.031108,0.011884,0.005294,0.005464,0.011388
0.010510,0.025932,0.031767,0.011551,0.005304,0.005821,0.011452
0.010445,0.025223,0.032487,0.011237,0.005322,0.006236,0.011474
0.010369,0.024444,0.033221,0.010913,0.005345,0.006638,0.011558
0.010181,0.023641,0.034111,0.010478,0.005413,0.006815,0.011581
0.009900,0.022868,0.035117,0.010004,0.005543,0.007018,0.011505
0.009704,0.022052,0.036044,0.009542,0.005696,0.007323,0.011400
0.009548,0.021488,0.036497,0.009237,0.005819,0.007627,0.011310
0.009390,0.021201,0.036755,0.008888,0.005917,0.007921,0.011265
0.009324,0.021074,0.036531,0.008509,0.005986,0.008187,0.011212
0.009333,0.020624,0.036064,0.008180,0.006086,0.008454,0.011131
0.009277,0.020249,0.035627,0.007824,0.006199,0.008798,0.011147
0.009249,0.019925,0.035120,0.007527,0.006322,0.009045,0.011152
0.009077,0.019659,0.034514,0.007234,0.006438,0.009170,0.011198
0.008777,0.019774,0.033948,0.006993,0.006580,0.009156,0.011130
0.008572,0.019827,0.033185,0.006841,0.006683,0.009282,0.011136
0.008446,0.019825,0.032246,0.006711,0.006765,0.009487,0.011190
0.008445,0.020022,0.031002,0.006685,0.006772,0.009553,0.011297
0.008598,0.020426,0.029734,0.006741,0.006742,0.009561,0.011434
0.008767,0.021020,0.028504,0.006798,0.006721,0.009573,0.011506
0.008889,0.021257,0.027624,0.006902,0.006741,0.009607,0.011518
0.008906,0.021493,0.026921,0.007001,0.006744,0.009667,0.011604
0.008881,0.021914,0.026121,0.007158,0.006753,0.009682,0.011755
0.008700,0.022305,0.025215,0.007275,0.006743,0.009653,0.012005
0.008347,0.022713,0.024295,0.007369,0.006767,0.009660,0.012161
0.008132,0.022993,0.023082,0.007457,0.006743,0.009748,0.012380
0.007874,0.023359,0.021726,0.007577,0.006705,0.009787,0.012550
0.007564,0.023960,0.020449,0.007703,0.006607,0.009600,0.012815
0.007114,0.024550,0.019518,0.007866,0.006516,0.009413,0.013150
0.006640,0.024867,0.018667,0.008053,0.006478,0.009237,0.013420
0.006293,0.024675,0.017828,0.008309,0.006452,0.009112,0.013636
0.006030,0.024627,0.017027,0.008502,0.006400,0.009160,0.013820
0.005841,0.024779,0.016207,0.008710,0.006314,0.009120,0.013937
0.005666,0.024817,0.015431,0.008809,0.006201,0.009068,0.014012
0.005658,0.024870,0.014761,0.008912,0.006124,0.009136,0.013973
0.005869,0.024832,0.014084,0.008997,0.005986,0.009253,0.013961
0.005969,0.025010,0.013686,0.009049,0.005886,0.009355,0.013816
0.006042,0.025340,0.013465,0.009086,0.005793,0.009367,0.013634
0.006202,0.025265,0.013089,0.009107,0.005747,0.009501,0.013358
0.006800,0.024703,0.012627,0.009039,0.005702,0.009934,0.012941
0.007625,0.024054,0.012217,0.008938,0.005608,0.010352,0.012530
0.008529,0.023394,0.011732,0.008835,0.005489,0.011071,0.012182
0.009865,0.023299,0.011382,0.008844,0.005331,0.011696,0.011796
0.011569,0.023977,0.011135,0.008704,0.005215,0.013067,0.011409
0.013600,0.025592,0.011037,0.008657,0.005051,0.014471,0.011000
0.015748,0.027546,0.011060,0.008866,0.004822,0.015769,0.010757
0.017841,0.029915,0.011177,0.009092,0.004625,0.017082,0.010496
0.020210,0.031883,0.011272,0.009375,0.004552,0.018541,0.010284
0.023078,0.033392,0.011360,0.009723,0.004835,0.020283,0.009975
0.026376,0.034791,0.011433,0.010024,0.005164,0.022230,0.009562
0.030065,0.036592,0.011497,0.010274,0.005591,0.024287,0.009168
0.033539,0.039486,0.011666,0.010434,0.006233,0.026241,0.008831
0.037193,0.043463,0.011821,0.010528,0.007401,0.028280,0.008509
0.041603,0.047818,0.012075,0.010594,0.008557,0.030021,0.008231
0.045991,0.051755,0.012302,0.010658,0.009954,0.031894,0.007967
0.049732,0.056085,0.012951,0.010609,0.011437,0.033515,0.007745
0.053781,0.059381,0.013718,0.010628,0.012983,0.034762,0.007471
0.058185,0.062052,0.014353,0.010592,0.014760,0.036367,0.007193
0.062603,0.064327,0.014821,0.010329,0.017008,0.038120,0.006807
0.067006,0.066406,0.015273,0.010104,0.019272,0.039832,0.006440
0.071328,0.069200,0.015757,0.009874,0.021668,0.041283,0.006194
0.075385,0.072290,0.016260,0.009574,0.024358,0.042577,0.005961
0.079102,0.075613,0.016821,0.009235,0.026990,0.043512,0.005726
0.082142,0.078595,0.017265,0.008796,0.029911,0.044392,0.005537
0.084472,0.080817,0.017778,0.008465,0.032706,0.044210,0.005437
0.086395,0.081620,0.018157,0.008120,0.035426,0.043931,0.005319
0.087864,0.081809,0.018420,0.007587,0.037747,0.043604,0.005099
0.088763,0.081262,0.018442,0.007189,0.040144,0.043561,0.004868
0.089350,0.081920,0.018415,0.006638,0.042724,0.043319,0.004692
0.089696,0.083070,0.017803,0.006235,0.045459,0.042805,0.004560
0.089335,0.084076,0.017198,0.005976,0.048151,0.041944,0.004463
0.087970,0.085062,0.016654,0.005794,0.050678,0.040626,0.004409
0.086633,0.085664,0.016126,0.005628,0.052683,0.039297,0.004393
0.084997,0.085369,0.015688,0.005559,0.054223,0.037698,0.004405
0.082543,0.084448,0.015196,0.005548,0.055643,0.036437,0.004440
0.079988,0.084061,0.014659,0.005588,0.056585,0.035281,0.004536
0.078097,0.084030,0.013724,0.005822,0.057318,0.034393,0.004706
0.075728,0.084959,0.012782,0.005987,0.057888,0.033912,0.004876
0.072933,0.086506,0.012033,0.006158,0.058374,0.033121,0.005089
0.070051,0.088102,0.011444,0.006633,0.058521,0.032157,0.005409
0.067192,0.089416,0.010974,0.007134,0.058644,0.031109,0.005744
0.063697,0.090570,0.010625,0.007613,0.058693,0.029767,0.006088
0.060021,0.091442,0.010237,0.008473,0.058188,0.028437,0.006425
0.056741,0.091636,0.009911,0.009328,0.057159,0.027004,0.006780
0.053691,0.091345,0.009555,0.010132,0.055966,0.025703,0.007063
0.050869,0.091537,0.009091,0.010821,0.054986,0.024706,0.007215
0.048045,0.092119,0.008645,0.011532,0.054145,0.023760,0.007361
0.045540,0.093158,0.008187,0.012174,0.053784,0.023024,0.007473
0.043379,0.094844,0.007783,0.012718,0.053428,0.021958,0.007623
0.041229,0.095233,0.007440,0.013382,0.052787,0.020868,0.007723
0.038891,0.094634,0.007772,0.013786,0.051568,0.019756,0.007790
0.036899,0.094387,0.008182,0.014019,0.050269,0.018656,0.007922
0.035411,0.094131,0.008595,0.014199,0.048887,0.017797,0.007972
0.033922,0.093363,0.008957,0.014372,0.047777,0.017007,0.008106
0.032336,0.092819,0.009297,0.014457,0.046574,0.016255,0.008253
0.030764,0.092467,0.009578,0.014650,0.045428,0.015484,0.008421
0.029359,0.091392,0.009924,0.014868,0.044530,0.014567,0.008526
0.027624,0.089284,0.010222,0.015084,0.043860,0.013623,0.008575
0.025937,0.087345,0.010425,0.015642,0.043232,0.012639,0.008659
0.024275,0.085183,0.010632,0.016774,0.042218,0.011620,0.008712
0.022667,0.083168,0.010868,0.017836,0.041081,0.010586,0.008778
0.021032,0.081210,0.011092,0.018884,0.039848,0.009578,0.008878
0.019759,0.078662,0.011306,0.019999,0.038387,0.008806,0.008973
0.018710,0.076275,0.011365,0.020896,0.037132,0.008118,0.009064
0.017355,0.074580,0.011245,0.021832,0.036465,0.007602,0.009100
0.015920,0.073098,0.011061,0.022881,0.035783,0.007102,0.009090
0.014627,0.070763,0.010874,0.024193,0.034947,0.006573,0.009074
0.013329,0.068705,0.010714,0.025933,0.033949,0.006077,0.008901
0.012043,0.066423,0.010565,0.028352,0.032876,0.005523,0.008731
0.011019,0.063849,0.010463,0.030649,0.031650,0.005013,0.008555
0.010083,0.061629,0.010362,0.032777,0.030236,0.004621,0.008418
0.009114,0.060222,0.010189,0.034916,0.028725,0.004356,0.008330
0.008115,0.058522,0.009987,0.036757,0.027307,0.004229,0.008227
0.007228,0.056253,0.009753,0.038837,0.026015,0.004202,0.008118
0.006411,0.053967,0.009539,0.041150,0.024664,0.004168,0.007911
0.005652,0.051541,0.009354,0.043781,0.023368,0.004118,0.007698
0.004904,0.049176,0.009134,0.046387,0.022100,0.004068,0.007576
0.004131,0.047362,0.008896,0.049059,0.020779,0.004025,0.007523
0.003653,0.045780,0.008685,0.051728,0.019317,0.003930,0.007475
0.003273,0.043889,0.008481,0.054182,0.017886,0.003827,0.007435
0.002941,0.042144,0.008264,0.056114,0.016692,0.003706,0.007409
0.002636,0.040447,0.008019,0.057864,0.015496,0.003618,0.007400
0.002318,0.039223,0.007776,0.059646,0.014383,0.003603,0.007318
0.001979,0.038413,0.007497,0.061572,0.013433,0.003623,0.007243
0.001674,0.037383,0.007312,0.063459,0.012561,0.003703,0.007243
0.001554,0.036305,0.007233,0.065355,0.011704,0.003775,0.007257
0.001511,0.035319,0.007244,0.067222,0.010812,0.003828,0.007295
0.001509,0.034546,0.007290,0.068252,0.009951,0.003868,0.007429
0.001585,0.033612,0.007349,0.068627,0.009254,0.003887,0.007685
0.001659,0.032649,0.007557,0.068108,0.008629,0.003908,0.007882
0.001744,0.031733,0.007845,0.067588,0.008079,0.003923,0.007952
0.001815,0.030809,0.008257,0.067087,0.007707,0.003946,0.007958
0.001861,0.029760,0.008864,0.066553,0.007535,0.003970,0.007932
0.001939,0.028861,0.009548,0.066188,0.007368,0.004012,0.007859
0.002132,0.028221,0.010281,0.065492,0.007196,0.004109,0.007835
0.002578,0.027620,0.011005,0.064399,0.007129,0.004262,0.007796
0.003141,0.026766,0.011709,0.062297,0.007072,0.004386,0.007800
0.003700,0.025824,0.012530,0.059925,0.007097,0.004508,0.007655
0.004246,0.024971,0.013385,0.057380,0.007232,0.004629,0.007425
0.004785,0.024084,0.014254,0.054714,0.007379,0.004738,0.007186
0.005343,0.023219,0.015094,0.051834,0.007571,0.004837,0.006979
0.005860,0.022395,0.015981,0.049018,0.007765,0.004947,0.006778
0.006374,0.021608,0.016852,0.046290,0.007929,0.005069,0.006587
0.006901,0.020962,0.017570,0.043493,0.008058,0.005178,0.006450
0.007466,0.020332,0.018231,0.040672,0.008189,0.005274,0.006286
0.008078,0.019720,0.018790,0.037861,0.008315,0.005357,0.006083
0.008736,0.019045,0.019176,0.035027,0.008427,0.005418,0.005910
0.009456,0.018402,0.019497,0.032132,0.008516,0.005441,0.005793
0.010023,0.017900,0.019804,0.030000,0.008599,0.005428,0.005586
0.010322,0.017445,0.020119,0.028047,0.008708,0.005360,0.005412
0.010792,0.016976,0.020420,0.026287,0.008758,0.005338,0.005282
0.011597,0.016569,0.020799,0.024582,0.008707,0.005242,0.005248
0.012527,0.016209,0.021057,0.022985,0.008621,0.005110,0.005256
0.013566,0.015861,0.021083,0.021460,0.008527,0.004949,0.005389
0.014572,0.015573,0.021074,0.019997,0.008405,0.004772,0.005567
0.015417,0.015446,0.021084,0.018636,0.008284,0.004556,0.005713
0.015875,0.015357,0.021057,0.017507,0.008154,0.004320,0.005831
0.016229,0.015396,0.020994,0.017097,0.007984,0.004092,0.005914
0.016542,0.015567,0.020890,0.016879,0.007751,0.003794,0.006007
0.016633,0.015772,0.020447,0.016767,0.007484,0.003531,0.006153
0.016399,0.016004,0.019973,0.016721,0.007244,0.003351,0.006310
0.016148,0.016323,0.019490,0.016859,0.007010,0.003176,0.006426
0.015869,0.016998,0.018966,0.016947,0.006801,0.003008,0.006475
0.015570,0.017665,0.018469,0.017151,0.006630,0.002853,0.006497
0.015277,0.018361,0.018074,0.017369,0.006503,0.002693,0.006503
0.015090,0.019383,0.017771,0.017748,0.006316,0.002508,0.006497
0.014907,0.020380,0.017555,0.018120,0.006146,0.002330,0.006479
0.014710,0.021411,0.017457,0.018437,0.006015,0.002164,0.006460
0.014493,0.022451,0.017405,0.018703,0.005904,0.002033,0.006427
0.014373,0.023544,0.017418,0.018885,0.005789,0.001947,0.006416
0.014542,0.024323,0.017402,0.018880,0.005655,0.001906,0.006447
0.014518,0.025019,0.017227,0.018923,0.005578,0.001821,0.006495
0.014300,0.025768,0.016892,0.018912,0.005559,0.001768,0.006595
0.014058,0.026441,0.016603,0.018803,0.005570,0.001731,0.006703
0.013757,0.027146,0.016344,0.018666,0.005591,0.001720,0.006696
0.013430,0.027897,0.016071,0.018624,0.005619,0.001712,0.006619
0.013156,0.028462,0.015728,0.018637,0.005639,0.001689,0.006562
0.012984,0.029120,0.015382,0.018612,0.005640,0.001640,0.006551
0.013064,0.029768,0.015145,0.018628,0.005629,0.001569,0.006476
0.013417,0.030403,0.014849,0.018623,0.005646,0.001561,0.006394
0.014010,0.030961,0.014886,0.018547,0.005617,0.001520,0.006289
0.014813,0.031593,0.014930,0.018469,0.005558,0.001398,0.006199
0.015454,0.032019,0.014986,0.018071,0.005553,0.001272,0.006166
0.016104,0.031987,0.015049,0.017602,0.005556,0.001127,0.006220
0.016795,0.031998,0.015102,0.017100,0.005550,0.000967,0.006327
0.017454,0.031939,0.015212,0.016529,0.005564,0.000819,0.006470
0.017880,0.031438,0.015704,0.015671,0.005676,0.000710,0.006653
0.017762,0.030918,0.016268,0.014742,0.005833,0.000717,0.006811
0.017388,0.030336,0.017389,0.013820,0.005982,0.000919,0.006938
0.016968,0.029635,0.018514,0.012992,0.006143,0.001241,0.007042
0.016597,0.028736,0.019556,0.012160,0.006285,0.001556,0.007137
0.016246,0.028176,0.020552,0.011529,0.006418,0.001871,0.007169
0.015910,0.027751,0.021577,0.010882,0.006546,0.002185,0.007214
0.015517,0.027172,0.022595,0.010418,0.006663,0.002687,0.007171
0.015157,0.026845,0.023397,0.010092,0.006734,0.003179,0.007092
0.014869,0.026550,0.023905,0.009817,0.006786,0.003645,0.007063
0.014746,0.025915,0.023942,0.009594,0.006812,0.004099,0.007147
0.014570,0.025547,0.023945,0.009308,0.006847,0.004446,0.007244
0.014266,0.025356,0.024161,0.009014,0.006881,0.004810,0.007397
0.013727,0.025181,0.024318,0.008724,0.006941,0.005204,0.007649
0.012898,0.024856,0.024907,0.008376,0.007014,0.005620,0.007932
0.012013,0.024690,0.025597,0.007977,0.007090,0.006006,0.008289
0.011004,0.024491,0.026278,0.007536,0.007196,0.006491,0.008654
0.010189,0.024159,0.026927,0.007309,0.007248,0.007058,0.008956
0.009287,0.023918,0.028047,0.007093,0.007364,0.007739,0.009159
0.008312,0.023815,0.029179,0.006904,0.007484,0.008329,0.009281
0.007382,0.023368,0.030158,0.006793,0.007584,0.008947,0.009412
0.006579,0.023064,0.030663,0.006652,0.007640,0.009761,0.009585
0.006183,0.022852,0.031304,0.006561,0.007646,0.010490,0.009727
0.006072,0.022488,0.031215,0.006542,0.007631,0.011060,0.009819
0.006046,0.022231,0.031159,0.006476,0.007628,0.011474,0.009864
0.005864,0.022392,0.031381,0.006415,0.007647,0.011864,0.009933
0.005620,0.022469,0.031627,0.006322,0.007686,0.012171,0.010059
0.005492,0.022474,0.031773,0.006218,0.007712,0.012560,0.010157
0.005236,0.022659,0.032036,0.006042,0.007769,0.012831,0.010282
0.004794,0.022888,0.032464,0.005862,0.007858,0.012967,0.010400
0.004294,0.022879,0.033122,0.005659,0.007986,0.013012,0.010400
0.003736,0.023199,0.033809,0.005432,0.008119,0.013047,0.010350
0.003107,0.023174,0.034611,0.005222,0.008278,0.013275,0.010296
0.002601,0.022851,0.035597,0.004983,0.008488,0.013433,0.010128
0.002087,0.022451,0.036554,0.004744,0.008665,0.013544,0.009909
0.001716,0.022282,0.036663,0.004635,0.008776,0.013579,0.009709
0.001355,0.022109,0.036618,0.004561,0.008901,0.013511,0.009471
0.001303,0.021607,0.036579,0.004546,0.008985,0.013472,0.009209
0.001212,0.021401,0.036718,0.004526,0.009064,0.013367,0.008964
0.001263,0.021561,0.036342,0.004555,0.009048,0.013161,0.008775
0.001343,0.021614,0.035888,0.004603,0.009032,0.012955,0.008660
0.001562,0.021877,0.035115,0.004658,0.008945,0.012910,0.008504
0.001767,0.021965,0.034208,0.004750,0.008861,0.012669,0.008294
0.002103,0.021838,0.033031,0.004858,0.008777,0.012401,0.008133
0.002378,0.021804,0.032066,0.004941,0.008694,0.012159,0.008011
0.002571,0.021728,0.031085,0.005086,0.008589,0.011938,0.007905
0.002929,0.021320,0.029624,0.005269,0.008477,0.011757,0.007758
0.003379,0.020479,0.028091,0.005437,0.008373,0.011813,0.007517
0.003755,0.019652,0.026675,0.005626,0.008246,0.011791,0.007262
0.004099,0.018862,0.025199,0.005785,0.008121,0.011599,0.007037
0.004488,0.017941,0.023691,0.005946,0.008003,0.011460,0.006859
0.004808,0.017311,0.022286,0.006081,0.007866,0.011446,0.006742
0.005028,0.016601,0.021286,0.006211,0.007784,0.011497,0.006557
0.005390,0.016044,0.020151,0.006403,0.007649,0.011578,0.006377
0.005776,0.016106,0.018629,0.006722,0.007446,0.011747,0.006239
0.006168,0.017695,0.017121,0.006900,0.007233,0.012105,0.006145
0.006761,0.019066,0.015850,0.007171,0.007042,0.013212,0.005970
0.007881,0.020580,0.014596,0.007790,0.006804,0.014833,0.005835
0.009094,0.023037,0.013310,0.009136,0.006617,0.016480,0.005692
0.011105,0.026705,0.011851,0.010570,0.006763,0.018268,0.005608
0.013465,0.029769,0.010338,0.012010,0.007177,0.020393,0.005558
0.016658,0.033177,0.008893,0.013372,0.007996,0.022717,0.005482
0.020464,0.037026,0.007899,0.014795,0.009181,0.024840,0.005366
0.024272,0.041579,0.007138,0.016317,0.010649,0.026842,0.005216
0.028010,0.045452,0.006523,0.017901,0.012434,0.028398,0.005176
0.031528,0.049345,0.006061,0.019394,0.014455,0.029230,0.005310
0.034933,0.053194,0.005432,0.020608,0.016957,0.029971,0.005366
0.038502,0.056943,0.005192,0.021045,0.019606,0.030873,0.005432
0.041665,0.060139,0.005047,0.021469,0.022228,0.031551,0.005470
0.044528,0.064810,0.004958,0.021795,0.024844,0.031928,0.005578
0.046973,0.069229,0.004802,0.022194,0.027162,0.032497,0.005680
0.048778,0.073543,0.004648,0.022370,0.029385,0.033165,0.005798
0.050657,0.077333,0.004466,0.022357,0.031722,0.033554,0.005985
0.052535,0.080866,0.004314,0.022371,0.033839,0.033946,0.006148
0.054376,0.084451,0.004253,0.022510,0.035927,0.034236,0.006152
0.056148,0.087683,0.004277,0.022588,0.037688,0.034475,0.006162
0.057517,0.088930,0.004142,0.022831,0.039401,0.034242,0.006234
0.058429,0.090612,0.004126,0.022885,0.040863,0.033516,0.006509
0.059299,0.091064,0.004144,0.022720,0.042254,0.032447,0.006704
0.059742,0.091068,0.004248,0.022496,0.043600,0.030982,0.006879
0.059431,0.089156,0.004405,0.022512,0.044887,0.029246,0.006959
0.058538,0.087559,0.004626,0.022691,0.045584,0.027281,0.007020
0.057160,0.085573,0.004804,0.022967,0.046166,0.025246,0.007045
0.055098,0.083412,0.005021,0.023113,0.046386,0.023169,0.007085
0.053110,0.080676,0.005246,0.022901,0.046342,0.021072,0.007171
0.051082,0.078613,0.005421,0.023386,0.046063,0.019424,0.006993
0.049192,0.076751,0.005496,0.024023,0.045596,0.018331,0.006557
0.047295,0.074838,0.005741,0.024904,0.044794,0.017064,0.006236
0.045282,0.072739,0.005841,0.025933,0.043876,0.015584,0.006008
0.043656,0.071677,0.005968,0.026701,0.042757,0.014343,0.005981
0.042338,0.069320,0.006046,0.027469,0.041715,0.013416,0.005928
0.041487,0.067026,0.006392,0.028045,0.040624,0.012304,0.005915
0.041125,0.064720,0.006860,0.028866,0.039497,0.011235,0.005874
0.040416,0.063058,0.007295,0.030214,0.038369,0.010514,0.005756
0.039830,0.061625,0.007694,0.030866,0.037464,0.009758,0.005757
0.039413,0.059485,0.008051,0.031367,0.036532,0.009116,0.005870
0.038832,0.057218,0.008374,0.032515,0.035877,0.008537,0.005880
0.038327,0.055495,0.008838,0.033696,0.035185,0.008375,0.005758
0.037804,0.053504,0.009390,0.034917,0.034654,0.007929,0.005416
0.036868,0.052465,0.009866,0.036018,0.034225,0.007327,0.005102
0.036093,0.050799,0.010167,0.036356,0.033826,0.007010,0.004859
0.035714,0.049781,0.010266,0.036463,0.033120,0.006777,0.004692
0.035775,0.048811,0.010314,0.036012,0.032739,0.006496,0.004569
0.035443,0.047542,0.010372,0.035563,0.032051,0.006273,0.004470
0.034765,0.046489,0.010439,0.035402,0.031360,0.005919,0.004434
0.033961,0.045474,0.010453,0.034794,0.030590,0.005679,0.004469
0.033127,0.044702,0.010520,0.033305,0.029762,0.005493,0.004697
0.032382,0.043514,0.010616,0.031763,0.028885,0.005584,0.005141
0.031934,0.042239,0.010689,0.030275,0.027813,0.005945,0.005655
0.031337,0.041411,0.010770,0.029442,0.026687,0.006308,0.006055
0.030876,0.040703,0.010847,0.028903,0.025743,0.006411,0.006291
0.030194,0.039641,0.010961,0.028470,0.024813,0.006398,0.006541
0.029451,0.038839,0.010876,0.028194,0.024193,0.006447,0.006754
0.028868,0.037831,0.010702,0.027924,0.023694,0.006441,0.006938
0.028637,0.036613,0.010544,0.027390,0.023010,0.006354,0.007163
0.028343,0.035486,0.010345,0.027523,0.022357,0.006283,0.007305
0.028075,0.035280,0.010006,0.027614,0.021851,0.005994,0.007445
0.027880,0.035113,0.009660,0.027039,0.021410,0.005625,0.007678
0.027934,0.034949,0.009324,0.026450,0.021161,0.005195,0.007952
0.027736,0.034427,0.008941,0.025845,0.021123,0.004950,0.008298
0.027287,0.033803,0.008568,0.025264,0.021105,0.004873,0.008624
0.026904,0.033441,0.008333,0.025255,0.020959,0.004763,0.008884
0.026058,0.033290,0.008293,0.025412,0.020800,0.004695,0.009080
0.024958,0.033163,0.008316,0.025924,0.020659,0.004558,0.009253
0.023877,0.033138,0.008387,0.026378,0.020486,0.004302,0.009419
0.022774,0.032682,0.008413,0.027168,0.020365,0.004177,0.009488
0.021618,0.032325,0.008463,0.028782,0.020298,0.004080,0.009351
0.020539,0.031876,0.008455,0.030633,0.020139,0.003932,0.009180
0.019400,0.031711,0.008357,0.033168,0.019919,0.003642,0.008956
0.018079,0.031797,0.008268,0.035944,0.019637,0.003377,0.008686
0.016798,0.031657,0.008276,0.038254,0.019387,0.003165,0.008547
0.015377,0.031127,0.008225,0.039908,0.019196,0.003045,0.008564
0.014182,0.030629,0.008122,0.041691,0.018901,0.003027,0.008533
0.013023,0.030135,0.007990,0.043895,0.018608,0.003092,0.008449
0.011864,0.030134,0.007854,0.045497,0.018302,0.003182,0.008414
0.010675,0.030039,0.007735,0.046990,0.018011,0.003270,0.008346
0.009416,0.029854,0.007691,0.048364,0.017623,0.003334,0.008257
0.007971,0.029504,0.007839,0.049135,0.017185,0.003480,0.008137
0.006729,0.028959,0.007978,0.049754,0.016809,0.003637,0.008021
0.005549,0.028494,0.008037,0.051108,0.016280,0.003786,0.007817
0.004860,0.028438,0.008091,0.052476,0.015605,0.003831,0.007652
0.004368,0.028629,0.008151,0.054116,0.014878,0.003823,0.007591
0.003922,0.028973,0.008201,0.054844,0.014223,0.003798,0.007646
0.003550,0.028726,0.008267,0.055404,0.013624,0.003753,0.007735
0.003206,0.028497,0.008316,0.056579,0.012927,0.003716,0.007845
0.002863,0.028421,0.008361,0.058041,0.012247,0.003706,0.007966
0.002758,0.028426,0.008370,0.059109,0.011559,0.003757,0.008141
0.002695,0.028345,0.008370,0.060058,0.010810,0.003808,0.008417
0.002645,0.028285,0.008382,0.060303,0.010158,0.003855,0.008623
0.002619,0.028175,0.008438,0.059845,0.009596,0.003884,0.008679
0.002613,0.028010,0.008518,0.058939,0.009177,0.003900,0.008589
0.002648,0.027732,0.008497,0.058138,0.008750,0.003911,0.008378
0.002646,0.027597,0.008517,0.057974,0.008354,0.003914,0.008042
0.002598,0.027591,0.008706,0.057186,0.008038,0.003912,0.007693
0.002561,0.027360,0.009087,0.055584,0.007775,0.003912,0.007358
0.002533,0.026873,0.009571,0.054175,0.007563,0.003906,0.007014
0.002634,0.026578,0.010167,0.052649,0.007400,0.003899,0.006677
0.002716,0.026375,0.010940,0.051042,0.007332,0.003891,0.006379
0.002775,0.026124,0.011680,0.049959,0.007260,0.003888,0.006166
0.002828,0.025855,0.012431,0.048958,0.007112,0.003895,0.005983
0.002924,0.025527,0.013319,0.047104,0.007066,0.003926,0.005887
0.003025,0.025017,0.014305,0.045285,0.007025,0.003974,0.005743
0.003381,0.024391,0.015197,0.043248,0.006991,0.003974,0.005524
0.003874,0.023740,0.015828,0.041701,0.006975,0.003948,0.005246
0.004458,0.023541,0.016212,0.040247,0.006884,0.003909,0.004994
0.005648,0.023124,0.017105,0.038231,0.006844,0.003809,0.004654
0.006887,0.022782,0.018040,0.035700,0.006831,0.003702,0.004363
0.008172,0.022394,0.018990,0.032927,0.006809,0.003582,0.004130
0.009257,0.021973,0.019830,0.029987,0.006937,0.003476,0.003913
0.009800,0.021528,0.020233,0.027585,0.007060,0.003364,0.003820
0.010110,0.021188,0.020579,0.025447,0.007163,0.003292,0.003880
0.010299,0.020892,0.020863,0.023543,0.007262,0.003262,0.004042
0.010412,0.020860,0.021234,0.022014,0.007345,0.003248,0.004250
0.010527,0.021014,0.021837,0.020695,0.007366,0.003270,0.004433
0.010758,0.021161,0.022381,0.019944,0.007371,0.003276,0.004535
0.011181,0.021146,0.022823,0.019486,0.007322,0.003224,0.004870
0.011736,0.020927,0.023366,0.019156,0.007306,0.003137,0.005222
0.012209,0.020579,0.023508,0.019429,0.007308,0.003010,0.005632
0.012831,0.020369,0.023191,0.020072,0.007712,0.002835,0.006078
0.013601,0.020462,0.022897,0.021439,0.008039,0.002654,0.006335
0.014266,0.023430,0.023200,0.023919,0.010228,0.002471,0.006446
0.015022,0.027666,0.024011,0.026228,0.012765,0.002273,0.006585
0.016299,0.031573,0.025522,0.028393,0.015079,0.002223,0.006652
0.017103,0.034715,0.027414,0.030396,0.017683,0.002281,0.006753
0.017727,0.036148,0.029126,0.031686,0.018474,0.002426,0.006790
0.017620,0.037134,0.030242,0.033317,0.019033,0.002574,0.006751
0.016539,0.038366,0.031326,0.034946,0.019695,0.002655,0.006807
0.015672,0.039600,0.032530,0.036550,0.020113,0.002769,0.006828
0.015110,0.040605,0.034064,0.037747,0.020409,0.002802,0.006825
0.014722,0.040812,0.036131,0.038855,0.020545,0.002829,0.006747
0.014963,0.041060,0.038293,0.040071,0.020748,0.002844,0.006492
0.015654,0.040990,0.040137,0.041826,0.020893,0.003096,0.006150
0.016566,0.040896,0.041818,0.043556,0.020941,0.003308,0.005856
0.017418,0.040724,0.043167,0.045116,0.021090,0.003536,0.005570
0.018094,0.040387,0.044290,0.045885,0.021265,0.003693,0.005393
0.018843,0.040422,0.045010,0.046332,0.021383,0.003539,0.005299
0.019100,0.040394,0.045582,0.047321,0.021610,0.003493,0.004928
0.019340,0.040556,0.045571,0.048431,0.021736,0.003451,0.004593
0.019224,0.040790,0.045514,0.049022,0.021896,0.003541,0.004178
0.018721,0.040866,0.045837,0.049258,0.021735,0.003722,0.003701
0.018199,0.040659,0.046029,0.048583,0.021560,0.003899,0.003427
0.017871,0.037644,0.045451,0.047008,0.019609,0.004042,0.003264
0.017504,0.033225,0.044815,0.045444,0.017035,0.004132,0.003053
0.016560,0.029190,0.043581,0.043877,0.014852,0.004057,0.002922
0.015768,0.025869,0.042040,0.042227,0.012518,0.003955,0.002764
0.014926,0.024313,0.041019,0.041011,0.011901,0.003806,0.002632
0.014573,0.023046,0.040197,0.039368,0.011520,0.003683,0.002707
0.014687,0.021578,0.038666,0.037394,0.010955,0.003663,0.002818
0.014513,0.020028,0.037544,0.035622,0.010619,0.003620,0.002886
0.014015,0.018800,0.036137,0.034386,0.010462,0.003668,0.002906
0.013486,0.018447,0.034504,0.033339,0.010470,0.003713,0.002864
0.012704,0.018016,0.033114,0.032241,0.010399,0.003824,0.002929
0.011767,0.017964,0.031478,0.030661,0.010319,0.003632,0.003036
0.010783,0.017874,0.029864,0.028972,0.010289,0.003425,0.003193
0.010151,0.017825,0.028874,0.027358,0.010201,0.003122,0.003296
0.009659,0.017787,0.028224,0.026258,0.010136,0.002885,0.003303
0.009119,0.017377,0.027846,0.025157,0.010107,0.002943,0.003343
0.008883,0.017255,0.027571,0.023634,0.009940,0.002942,0.003435
0.008449,0.017112,0.027062,0.022338,0.009729,0.002966,0.003500
0.008612,0.017149,0.026633,0.021127,0.009406,0.002825,0.003617
0.009014,0.017257,0.026652,0.019931,0.008985,0.002644,0.003752
0.009318,0.017424,0.026843,0.019148,0.008635,0.002477,0.003851
0.009385,0.017545,0.027192,0.018083,0.008311,0.002392,0.003927
0.009386,0.017815,0.027059,0.017251,0.008220,0.002337,0.004042
0.010281,0.017923,0.026689,0.016498,0.007909,0.002317,0.004155
0.012064,0.018248,0.026331,0.015753,0.007432,0.002252,0.004342
0.014042,0.018482,0.025883,0.015348,0.007027,0.002191,0.004655
0.016056,0.018895,0.025868,0.014883,0.006677,0.002158,0.004819
0.016966,0.019300,0.026056,0.014855,0.006542,0.002134,0.004924
0.017718,0.019304,0.025990,0.014791,0.006473,0.002441,0.004887
0.019193,0.019311,0.026032,0.014554,0.006365,0.002690,0.004820
0.021028,0.019047,0.025686,0.014333,0.006182,0.003072,0.004892
0.023171,0.018856,0.025237,0.014002,0.005985,0.003356,0.005004
0.025121,0.018954,0.024954,0.013526,0.005786,0.003272,0.005161
0.026448,0.018895,0.024857,0.013139,0.005687,0.003300,0.005263
0.027097,0.018729,0.024426,0.012809,0.005594,0.003327,0.005443
0.028051,0.018514,0.023735,0.012534,0.005482,0.003506,0.005588
0.028811,0.018416,0.023110,0.012344,0.005380,0.003650,0.005823
0.029593,0.018139,0.022333,0.012074,0.005298,0.004029,0.006080
0.030744,0.017909,0.022318,0.011713,0.005297,0.004365,0.006322
0.031125,0.017317,0.022541,0.011381,0.005376,0.004938,0.006512
0.031121,0.016826,0.022525,0.011182,0.005463,0.005479,0.006674
0.031030,0.016136,0.022424,0.010881,0.005589,0.006039,0.006808
0.030898,0.015452,0.022130,0.010769,0.005601,0.006582,0.007147
0.030677,0.014908,0.021769,0.010616,0.005649,0.006914,0.007500
0.029601,0.014693,0.021383,0.010434,0.005723,0.007240,0.008049
0.027639,0.014279,0.020965,0.010443,0.005836,0.007628,0.008769
0.025514,0.013995,0.020478,0.010252,0.005977,0.008018,0.009290
0.023493,0.013564,0.020084,0.010177,0.006022,0.008423,0.010133
0.022775,0.012722,0.019485,0.009988,0.005966,0.008949,0.010906
0.022339,0.012478,0.018632,0.009805,0.005922,0.009135,0.011468
0.021167,0.012239,0.017610,0.009708,0.005939,0.009362,0.011880
0.019711,0.012144,0.016789,0.009553,0.006018,0.009505,0.012073
0.017815,0.012449,0.016193,0.009561,0.006101,0.009532,0.012223
0.016031,0.012456,0.016042,0.009430,0.006238,0.009831,0.012321
0.014851,0.012664,0.015862,0.009271,0.006293,0.010134,0.012372
0.014102,0.012939,0.015629,0.009096,0.006324,0.010513,0.012283
0.013393,0.013003,0.015178,0.008891,0.006306,0.010957,0.012187
0.014247,0.012765,0.014825,0.008816,0.006069,0.011749,0.011998
0.015438,0.012856,0.014744,0.008839,0.005820,0.012284,0.011891
0.017037,0.013084,0.014643,0.008902,0.005510,0.013272,0.011676
0.019640,0.014053,0.014823,0.009249,0.005175,0.014605,0.011459
0.022431,0.015932,0.014933,0.009640,0.004992,0.016064,0.011171
0.025364,0.017823,0.015217,0.009929,0.004903,0.017539,0.010883
0.028583,0.019677,0.015790,0.010134,0.004970,0.019029,0.010374
0.031845,0.021228,0.016515,0.010352,0.005099,0.020919,0.009803
0.035160,0.022830,0.017324,0.010572,0.005305,0.022811,0.009048
0.038682,0.024386,0.018219,0.010783,0.005665,0.024408,0.008031
0.042122,0.025731,0.019201,0.011051,0.006156,0.025704,0.007124
0.045760,0.027210,0.020217,0.011144,0.006914,0.026920,0.005892
0.049463,0.029561,0.021398,0.011117,0.007909,0.028153,0.004717
0.053573,0.032081,0.022511,0.011138,0.008927,0.029406,0.003933
0.057773,0.034231,0.023601,0.011195,0.009947,0.030742,0.003332
0.061804,0.036740,0.024630,0.011344,0.011009,0.031903,0.002953
0.065890,0.039169,0.025456,0.011372,0.012169,0.033099,0.002583
0.069737,0.041746,0.026309,0.011097,0.013606,0.033934,0.002272
0.073354,0.043931,0.027165,0.010759,0.015270,0.034516,0.002019
0.076542,0.045897,0.027934,0.010352,0.016991,0.034856,0.001920
0.079282,0.048268,0.028682,0.010000,0.019292,0.035075,0.001851
0.080849,0.050641,0.029118,0.009653,0.022272,0.034897,0.001777
0.082033,0.052856,0.029127,0.009257,0.025224,0.034666,0.001636
0.082599,0.054714,0.028850,0.008846,0.028205,0.034267,0.001552
0.082765,0.056033,0.028097,0.008148,0.031136,0.033273,0.001528
0.083066,0.056080,0.026995,0.007441,0.033988,0.032055,0.001615
0.082995,0.056022,0.025636,0.006806,0.036861,0.030918,0.001732
0.082727,0.056187,0.024197,0.006196,0.039528,0.029764,0.001856
0.082215,0.056724,0.022740,0.005595,0.042086,0.028479,0.002008
0.081208,0.057555,0.021504,0.004997,0.044435,0.026952,0.002195
0.079590,0.057877,0.020208,0.004467,0.046651,0.025647,0.002379
0.077882,0.058301,0.018919,0.004033,0.048734,0.024520,0.002546
0.075935,0.058603,0.017682,0.003596,0.050873,0.023344,0.002740
0.073606,0.058144,0.016533,0.003567,0.052787,0.021994,0.002935
0.070530,0.057330,0.015362,0.003618,0.054637,0.020671,0.003115
0.067301,0.056854,0.014227,0.003749,0.056245,0.019304,0.003378
0.064206,0.055959,0.013102,0.003926,0.057761,0.018066,0.003696
0.061258,0.054545,0.012140,0.004210,0.059069,0.016948,0.004005
0.058193,0.053186,0.011205,0.004880,0.059497,0.016215,0.004279
0.055158,0.052165,0.010291,0.005627,0.059446,0.015656,0.004537
0.052279,0.051470,0.009519,0.006413,0.059334,0.015090,0.004761
0.049371,0.050874,0.008908,0.007172,0.058749,0.014289,0.005023
0.045986,0.050638,0.008565,0.007914,0.057764,0.013628,0.005288
0.042620,0.050416,0.008551,0.008659,0.056719,0.012996,0.005575
0.039146,0.050293,0.008692,0.009456,0.055673,0.012118,0.005935
0.035522,0.050019,0.009022,0.010492,0.054648,0.011334,0.006275
0.032033,0.049444,0.009320,0.011633,0.053544,0.010652,0.006609
0.028750,0.049030,0.009617,0.012902,0.052267,0.009887,0.006955
0.025474,0.048508,0.009892,0.014288,0.051048,0.009110,0.007339
0.022467,0.047558,0.010110,0.016248,0.049724,0.008285,0.007683
0.019877,0.046064,0.010120,0.018225,0.048400,0.007680,0.008051
0.017710,0.045337,0.010171,0.020330,0.047038,0.007115,0.008405
0.015736,0.044633,0.010199,0.022626,0.045637,0.006673,0.008815
0.013736,0.044140,0.010270,0.025245,0.044067,0.006313,0.009030
0.011782,0.044075,0.010332,0.027673,0.042404,0.005997,0.009248
0.010094,0.043841,0.010370,0.030039,0.040639,0.005635,0.009599
0.008473,0.043581,0.010398,0.032607,0.039044,0.005253,0.009957
0.006888,0.043636,0.010435,0.035622,0.037377,0.004862,0.010238
0.005400,0.043915,0.010471,0.038671,0.035711,0.004489,0.010517
0.004297,0.043802,0.010349,0.041847,0.034474,0.004212,0.010732
0.003364,0.043699,0.010203,0.045076,0.033424,0.003919,0.010924
0.002692,0.043554,0.009970,0.048384,0.032335,0.003862,0.011037
0.002210,0.043230,0.009690,0.051490,0.031168,0.003933,0.011118
0.001915,0.042631,0.009308,0.054678,0.029797,0.003979,0.011193
0.001662,0.041734,0.008863,0.057864,0.028495,0.004068,0.011229
0.001464,0.040796,0.008433,0.060941,0.027200,0.004158,0.011187
0.001301,0.039990,0.007988,0.063435,0.025954,0.004241,0.011192
0.001076,0.039823,0.007692,0.065499,0.024659,0.004339,0.011117
0.000952,0.039505,0.007496,0.067370,0.023316,0.004414,0.011017
0.000914,0.039145,0.007347,0.068678,0.021902,0.004471,0.010883
0.000892,0.038971,0.007201,0.069135,0.020556,0.004521,0.010783
0.000887,0.038735,0.007066,0.069668,0.019391,0.004560,0.010614
0.000970,0.038246,0.006953,0.070003,0.018296,0.004580,0.010395
0.001062,0.037841,0.006895,0.070187,0.017255,0.004600,0.009913
0.001230,0.037047,0.006815,0.069458,0.016176,0.004600,0.009632
0.001413,0.036045,0.006757,0.068534,0.015160,0.004595,0.009338
0.001610,0.035233,0.006757,0.067575,0.014215,0.004593,0.008936
0.001802,0.034407,0.006786,0.066316,0.013292,0.004580,0.008465
0.001983,0.033375,0.006827,0.064568,0.012447,0.004563,0.008016
0.002152,0.032279,0.006908,0.062732,0.011731,0.004535,0.007545
0.002316,0.031247,0.007138,0.060576,0.011215,0.004501,0.007096
0.002505,0.030185,0.007438,0.058235,0.010769,0.004486,0.006665
0.002782,0.029037,0.007869,0.055726,0.010359,0.004484,0.006275
0.003083,0.027780,0.008451,0.053368,0.009975,0.004507,0.005893
0.003424,0.026592,0.009177,0.050919,0.009740,0.004579,0.005507
0.003778,0.025608,0.009988,0.048399,0.009555,0.004658,0.005137
0.004140,0.024718,0.010783,0.045775,0.009392,0.004733,0.004826
0.004500,0.023874,0.011597,0.043442,0.009202,0.004812,0.004461
0.004868,0.022879,0.012407,0.041192,0.009051,0.004889,0.004196
0.005226,0.022075,0.013228,0.038985,0.008976,0.004969,0.003961
0.005598,0.021269,0.014042,0.037114,0.008990,0.005033,0.003764
0.005957,0.020480,0.014857,0.035458,0.009071,0.005098,0.003581
0.006317,0.019738,0.015684,0.033730,0.009183,0.005160,0.003422
0.006643,0.019065,0.016487,0.032027,0.009271,0.005224,0.003323
0.006989,0.018340,0.017263,0.030116,0.009373,0.005281,0.003418
0.007287,0.017868,0.018026,0.028796,0.009460,0.005353,0.003495
0.007601,0.017484,0.018758,0.027493,0.009549,0.005424,0.003602
0.007904,0.017141,0.019451,0.026268,0.009632,0.005533,0.003704
0.008379,0.016874,0.020086,0.025063,0.009685,0.005619,0.003824
0.008808,0.016637,0.020660,0.023910,0.009738,0.005669,0.003957
0.009232,0.016429,0.021056,0.022830,0.009721,0.005712,0.004134
0.009595,0.016364,0.021262,0.021845,0.009670,0.005713,0.004318
0.009933,0.016410,0.021344,0.020975,0.009597,0.005655,0.004502
0.010221,0.016472,0.021286,0.020327,0.009513,0.005578,0.004671
0.010467,0.016504,0.021097,0.019860,0.009376,0.005474,0.004862
0.010644,0.016712,0.020782,0.019420,0.009169,0.005329,0.005076
0.010766,0.016943,0.020351,0.019034,0.008968,0.005182,0.005316
0.010841,0.017229,0.019899,0.018864,0.008759,0.005049,0.005493
0.010856,0.017936,0.019517,0.018764,0.008556,0.004930,0.005690
0.010887,0.018707,0.019155,0.018867,0.008285,0.004813,0.005855
0.010961,0.019550,0.018772,0.018981,0.008010,0.004620,0.005995
0.011060,0.020384,0.018346,0.019205,0.007771,0.004434,0.006103
0.011227,0.021240,0.017905,0.019546,0.007529,0.004236,0.006165
0.011367,0.022010,0.017502,0.019832,0.007339,0.004060,0.006201
0.011503,0.022830,0.017083,0.019981,0.007190,0.003879,0.006218
0.011727,0.023693,0.016630,0.020185,0.007043,0.003667,0.006212
0.011992,0.024606,0.016189,0.020371,0.006915,0.003437,0.006172
0.012279,0.025447,0.015742,0.020495,0.006803,0.003191,0.006141
0.012740,0.025856,0.015233,0.020526,0.006708,0.002877,0.006092
0.013192,0.026226,0.014776,0.020573,0.006643,0.002591,0.006025
0.013583,0.026527,0.014385,0.020505,0.006580,0.002341,0.005950
0.013997,0.026809,0.014126,0.020321,0.006541,0.002104,0.005879
0.014451,0.026971,0.013994,0.020084,0.006535,0.001914,0.005787
0.014947,0.027015,0.013893,0.019902,0.006487,0.001760,0.005688
0.015393,0.027118,0.013889,0.019569,0.006449,0.001613,0.005615
0.015860,0.027321,0.013883,0.019197,0.006402,0.001464,0.005529
0.016745,0.027236,0.013798,0.018817,0.006368,0.001427,0.005415
0.017707,0.027135,0.013732,0.018491,0.006348,0.001427,0.005263
0.018506,0.026966,0.013668,0.018061,0.006331,0.001469,0.005161
0.019280,0.026322,0.013522,0.017560,0.006316,0.001539,0.005042
0.020121,0.025659,0.013345,0.017058,0.006346,0.001594,0.004933
0.020780,0.024898,0.013168,0.016518,0.006396,0.001754,0.004844
0.021397,0.024147,0.013075,0.015983,0.006413,0.001926,0.004763
0.021851,0.023355,0.013042,0.015333,0.006450,0.002127,0.004705
0.022331,0.022540,0.012891,0.014776,0.006425,0.002317,0.004652
0.022708,0.021689,0.012840,0.014376,0.006363,0.002493,0.004670
0.022628,0.020929,0.012898,0.013982,0.006321,0.002661,0.004737
0.022511,0.019993,0.012900,0.013573,0.006257,0.002958,0.004824
0.022365,0.019094,0.012954,0.013257,0.006231,0.003335,0.004868
0.022208,0.018664,0.013195,0.013042,0.006167,0.003737,0.004981
0.021816,0.018196,0.013430,0.012833,0.006108,0.004168,0.005141
0.021535,0.017811,0.013681,0.012715,0.006023,0.004602,0.005310
0.021241,0.017348,0.013829,0.012609,0.005963,0.005116,0.005486
0.020960,0.016829,0.013974,0.012543,0.005891,0.005637,0.005677
0.020671,0.016401,0.014174,0.012379,0.005878,0.006271,0.005831
0.020444,0.015984,0.014308,0.012154,0.005902,0.006831,0.005958
0.020204,0.015596,0.014442,0.011901,0.005957,0.007337,0.006122
0.019488,0.015570,0.014684,0.011639,0.006047,0.007585,0.006356
0.018610,0.015594,0.014914,0.011348,0.006126,0.007821,0.006618
0.017829,0.015643,0.015075,0.011008,0.006234,0.007996,0.006826
0.017084,0.015690,0.015313,0.010644,0.006351,0.008140,0.007021
0.016372,0.015740,0.015560,0.010280,0.006447,0.008272,0.007194
0.015904,0.015846,0.015813,0.009982,0.006523,0.008354,0.007376
0.015468,0.015981,0.015973,0.009747,0.006601,0.008524,0.007605
0.015042,0.015867,0.016093,0.009657,0.006640,0.008589,0.008000
0.014580,0.015774,0.016189,0.009550,0.006658,0.008711,0.008421
0.014218,0.015700,0.016188,0.009424,0.006656,0.008853,0.008792
0.014198,0.015602,0.016131,0.009300,0.006635,0.009025,0.009172
0.014158,0.015564,0.016122,0.009218,0.006615,0.009054,0.009547
0.014082,0.015577,0.016086,0.009235,0.006566,0.009145,0.009905
0.013790,0.015844,0.015974,0.009207,0.006551,0.009250,0.010226
0.013434,0.016038,0.015843,0.009118,0.006572,0.009426,0.010490
0.012989,0.016134,0.015719,0.008958,0.006617,0.009557,0.010751
0.012660,0.016439,0.015616,0.008780,0.006646,0.009535,0.010967
0.012338,0.017064,0.015554,0.008682,0.006698,0.009565,0.010999
0.011991,0.017586,0.015509,0.008668,0.006746,0.009501,0.011109
0.011611,0.017849,0.015432,0.008748,0.006760,0.009513,0.011243
0.011241,0.018088,0.015329,0.008826,0.006753,0.009561,0.011276
0.010914,0.018327,0.015164,0.008966,0.006756,0.009719,0.011242
0.010715,0.018405,0.014942,0.009110,0.006757,0.009728,0.011228
0.010638,0.018369,0.014733,0.009299,0.006725,0.009739,0.011254
0.010628,0.018333,0.014434,0.009546,0.006656,0.009793,0.011293
0.010500,0.018311,0.014167,0.009853,0.006612,0.009875,0.011330
0.010137,0.018202,0.013936,0.010111,0.006596,0.009970,0.011341
0.009720,0.018053,0.013726,0.010197,0.006576,0.009887,0.011340
0.009337,0.018408,0.013499,0.010199,0.006571,0.009869,0.011126
0.008951,0.018989,0.013377,0.010250,0.006601,0.009790,0.010835
0.008582,0.019556,0.013250,0.010284,0.006643,0.009719,0.010539
0.008255,0.019983,0.013083,0.010270,0.006668,0.009666,0.010204
0.008043,0.020220,0.012840,0.010274,0.006683,0.009868,0.009839
0.007873,0.020422,0.012558,0.010279,0.006675,0.009970,0.009498
0.007688,0.020382,0.012279,0.010321,0.006678,0.009918,0.009141
0.007630,0.020472,0.012011,0.010346,0.006654,0.009734,0.008792
0.007658,0.020611,0.011702,0.010448,0.006599,0.009595,0.008425
0.007586,0.020535,0.011444,0.010620,0.006597,0.009582,0.008053
0.007678,0.019830,0.011067,0.010708,0.006556,0.009722,0.007827
0.007777,0.019123,0.010617,0.010669,0.006521,0.009851,0.007565
0.007880,0.018532,0.010199,0.010654,0.006478,0.009971,0.007290
0.008019,0.017890,0.009813,0.010648,0.006449,0.010075,0.007089
0.008116,0.017314,0.009526,0.010603,0.006436,0.009962,0.006909
0.008231,0.016826,0.009295,0.010485,0.006417,0.010014,0.006698
0.008354,0.016412,0.009107,0.010373,0.006410,0.010204,0.006471
0.008470,0.016045,0.008930,0.010235,0.006427,0.010350,0.006237
0.008616,0.015634,0.008700,0.010013,0.006453,0.010562,0.006016
0.008906,0.015244,0.008424,0.009818,0.006440,0.010757,0.005800
0.009177,0.015021,0.008197,0.009741,0.006441,0.010869,0.005603
0.009518,0.014393,0.007973,0.009693,0.006462,0.011171,0.005457
0.009983,0.013532,0.007711,0.009585,0.006462,0.011657,0.005441
0.010638,0.014131,0.007323,0.009303,0.006421,0.012669,0.005486
0.011494,0.015363,0.006905,0.009034,0.006336,0.013947,0.005521
0.012582,0.017487,0.006601,0.008840,0.006200,0.015278,0.005669
0.013862,0.019487,0.006400,0.008947,0.006030,0.016596,0.005959
0.015659,0.021595,0.006485,0.009042,0.005806,0.018458,0.006190
0.017515,0.024154,0.006652,0.009177,0.005566,0.020508,0.006425
0.019887,0.026745,0.006824,0.009263,0.005375,0.022696,0.006644
0.022722,0.029990,0.007060,0.009265,0.005230,0.024857,0.006876
0.025512,0.033968,0.007388,0.009238,0.005209,0.026746,0.007148
0.028638,0.037786,0.007778,0.009301,0.005384,0.028845,0.007358
0.031759,0.041426,0.008251,0.009402,0.006049,0.030696,0.007471
0.034633,0.044384,0.008793,0.009579,0.006905,0.032193,0.007563
0.037354,0.046914,0.009284,0.009890,0.007896,0.033689,0.007648
0.039890,0.049858,0.010089,0.010146,0.008948,0.034878,0.007685
0.042378,0.052950,0.010941,0.010137,0.010076,0.035854,0.007620
0.044564,0.056368,0.011766,0.009987,0.011415,0.036978,0.007521
0.046590,0.059690,0.012412,0.010136,0.012865,0.037802,0.007465
0.048738,0.062830,0.013012,0.010319,0.014652,0.038624,0.007464
0.050614,0.065506,0.013602,0.010512,0.016550,0.039840,0.007445
0.052402,0.067943,0.014138,0.010697,0.018969,0.040960,0.007389
0.053966,0.070637,0.014788,0.010852,0.021420,0.041944,0.007244
0.055393,0.072419,0.015582,0.011117,0.023943,0.042310,0.007057
0.056459,0.074237,0.016355,0.011410,0.026251,0.042251,0.006916
0.057338,0.075488,0.017102,0.011615,0.028423,0.041923,0.006696
0.057996,0.076769,0.017760,0.011418,0.030886,0.041581,0.006344
0.058273,0.077706,0.017810,0.011121,0.033436,0.040778,0.006082
0.058159,0.077783,0.017681,0.010830,0.036136,0.039834,0.005813
0.057622,0.077813,0.017471,0.010540,0.038858,0.038681,0.005606
0.056606,0.077370,0.017238,0.010118,0.041536,0.037150,0.005449
0.055345,0.076453,0.016897,0.009623,0.043969,0.035717,0.005274
0.053616,0.076400,0.016497,0.009123,0.046090,0.033737,0.005111
0.051993,0.076702,0.016050,0.008558,0.047353,0.031871,0.005146
0.050398,0.077399,0.015479,0.008129,0.048301,0.030169,0.005240
0.048756,0.077809,0.014837,0.007793,0.049081,0.028596,0.005334
0.047004,0.078166,0.013939,0.007541,0.049726,0.027368,0.005490
0.045127,0.077657,0.013150,0.007602,0.050372,0.026277,0.005742
0.043555,0.076956,0.012390,0.007798,0.050898,0.025065,0.006044
0.042323,0.075729,0.011823,0.007880,0.051138,0.024109,0.006308
0.041191,0.074721,0.011365,0.007892,0.051065,0.023147,0.006526
0.040375,0.074087,0.010897,0.007900,0.050782,0.021954,0.006723
0.039335,0.073892,0.010477,0.007887,0.049901,0.020709,0.006940
0.038343,0.074050,0.009959,0.007871,0.049026,0.019340,0.007180
0.037307,0.073146,0.009495,0.008001,0.048170,0.017999,0.007378
0.036174,0.071789,0.009100,0.008206,0.047752,0.016731,0.007571
0.034635,0.070368,0.008693,0.008614,0.047386,0.015494,0.007756
0.033031,0.068986,0.008289,0.008934,0.046805,0.014271,0.007951
0.031309,0.067763,0.008189,0.009277,0.046067,0.013065,0.008110
0.029935,0.067008,0.008040,0.009570,0.045180,0.011784,0.008282
0.028430,0.066255,0.007984,0.009873,0.044106,0.010465,0.008433
0.026834,0.065316,0.007913,0.010375,0.042878,0.009482,0.008574
0.025076,0.064382,0.007882,0.010983,0.041973,0.008548,0.008756
0.023361,0.062910,0.007839,0.011640,0.041080,0.008002,0.008976
0.021498,0.061304,0.007781,0.012365,0.040552,0.007605,0.009082
0.019814,0.059579,0.007787,0.012926,0.040182,0.007436,0.009145
0.018466,0.058143,0.007813,0.013355,0.039893,0.007406,0.009218
0.017612,0.056445,0.007831,0.014078,0.039333,0.007264,0.009219
0.016884,0.055724,0.007734,0.014703,0.038607,0.007068,0.009237
0.016167,0.054990,0.007614,0.015082,0.037812,0.006829,0.009351
0.015274,0.054657,0.007485,0.015328,0.037139,0.006570,0.009606
0.014211,0.053909,0.007379,0.015693,0.036529,0.006321,0.009876
0.013107,0.052937,0.007315,0.016216,0.035953,0.006093,0.010125
0.012289,0.051904,0.007256,0.016803,0.035456,0.005844,0.010352
0.011513,0.050531,0.007234,0.017479,0.034794,0.005660,0.010510
0.010716,0.049551,0.007196,0.018069,0.034134,0.005424,0.010736
0.010202,0.048132,0.007109,0.018638,0.033225,0.005258,0.011059
0.009944,0.046734,0.007014,0.019207,0.032527,0.005046,0.011342
0.009715,0.045495,0.006918,0.019973,0.031625,0.004829,0.011645
0.009400,0.044114,0.006800,0.020518,0.030839,0.004640,0.012011
0.008981,0.042477,0.006804,0.021112,0.029991,0.004538,0.012487
0.008628,0.040656,0.006827,0.021778,0.029216,0.004534,0.012916
0.008345,0.039010,0.006889,0.022450,0.028576,0.004544,0.013117
0.008334,0.037525,0.006995,0.023182,0.027626,0.004471,0.013331
0.008392,0.035910,0.007047,0.023875,0.026693,0.004339,0.013620
0.008491,0.034383,0.007056,0.024581,0.025704,0.004198,0.013922
0.008549,0.033295,0.007069,0.025796,0.024563,0.004072,0.014171
0.008519,0.032430,0.007118,0.027320,0.023238,0.003937,0.014347
0.008241,0.031574,0.007180,0.028590,0.022286,0.003827,0.014468
0.007953,0.030542,0.007252,0.030095,0.021364,0.003723,0.014511
0.007627,0.029376,0.007365,0.032274,0.020272,0.003638,0.014396
0.007300,0.028236,0.007473,0.034498,0.019193,0.003541,0.014169
0.006884,0.027678,0.007556,0.036665,0.018084,0.003466,0.013766
0.006483,0.027240,0.007570,0.038811,0.017028,0.003384,0.013334
0.006069,0.026817,0.007576,0.041074,0.015937,0.003320,0.012899
0.005702,0.026133,0.007574,0.043368,0.014983,0.003257,0.012440
0.005336,0.025509,0.007519,0.045658,0.014001,0.003313,0.011852
0.004944,0.025155,0.007517,0.047865,0.013139,0.003368,0.011109
0.004577,0.024708,0.007540,0.049443,0.012224,0.003424,0.010458
0.004277,0.024127,0.007553,0.050341,0.011511,0.003463,0.009856
0.004109,0.023790,0.007587,0.051438,0.010779,0.003516,0.009198
0.004049,0.023571,0.007713,0.052489,0.010084,0.003549,0.008427
0.003990,0.023476,0.007849,0.052815,0.009490,0.003574,0.007757
0.003936,0.023328,0.007976,0.052867,0.008925,0.003607,0.007269
0.003894,0.023106,0.008177,0.052770,0.008506,0.003642,0.006708
0.003873,0.022802,0.008568,0.052408,0.008198,0.003683,0.006101
0.003929,0.022371,0.009055,0.051829,0.007946,0.003777,0.005506
0.004069,0.021842,0.009575,0.050542,0.007820,0.003940,0.004965
0.004345,0.021203,0.010161,0.048770,0.007821,0.004197,0.004478
0.004786,0.020509,0.010812,0.046890,0.007768,0.004453,0.004131
0.005374,0.019847,0.011459,0.044795,0.007739,0.004675,0.003891
0.005959,0.019160,0.012146,0.042285,0.007888,0.004885,0.003760
0.006520,0.018552,0.012871,0.039718,0.008056,0.005117,0.003654
0.007203,0.017681,0.013479,0.037042,0.008163,0.005412,0.003749
0.008019,0.016868,0.014078,0.034198,0.008259,0.005675,0.003926
0.008917,0.016025,0.014690,0.031244,0.008347,0.005915,0.004149
0.009853,0.015340,0.015258,0.028277,0.008384,0.006151,0.004437
0.010832,0.014721,0.015804,0.025334,0.008395,0.006364,0.004830
0.011743,0.014068,0.016252,0.022444,0.008333,0.006536,0.005340
0.012576,0.013625,0.016697,0.020046,0.008269,0.006614,0.005846
0.013195,0.013351,0.017076,0.018299,0.008171,0.006585,0.006307
0.013668,0.012975,0.017332,0.016627,0.008073,0.006573,0.006729
0.014085,0.012670,0.017545,0.014975,0.008011,0.006570,0.007072
0.014457,0.012579,0.017713,0.014008,0.007913,0.006546,0.007285
0.014824,0.012611,0.017903,0.013393,0.007763,0.006465,0.007475
0.015110,0.012665,0.018020,0.012889,0.007631,0.006397,0.007674
0.015370,0.012755,0.018044,0.012579,0.007481,0.006330,0.007865
0.015568,0.012999,0.018063,0.012544,0.007330,0.006188,0.007973
0.015828,0.013434,0.018086,0.012676,0.007159,0.005926,0.008037
0.016013,0.014020,0.018027,0.012880,0.006972,0.005545,0.008122
0.016039,0.014633,0.018013,0.013289,0.006835,0.005169,0.008199
0.015951,0.015174,0.017960,0.013738,0.006725,0.004816,0.008252
0.015864,0.015721,0.017867,0.014210,0.006602,0.004458,0.008261
0.015670,0.016281,0.017716,0.014590,0.006480,0.004111,0.008235
0.015352,0.016935,0.017630,0.015039,0.006356,0.003707,0.008174
0.014897,0.017601,0.017568,0.015532,0.006241,0.003328,0.008062
0.014392,0.018219,0.017468,0.015907,0.006160,0.002958,0.007938
0.014103,0.018771,0.017301,0.016066,0.006113,0.002537,0.007846
0.013905,0.019337,0.017172,0.016217,0.006025,0.002128,0.007722
0.013852,0.019889,0.016961,0.016281,0.005964,0.001765,0.007482
0.013912,0.020238,0.016698,0.016243,0.005888,0.001499,0.007200
0.014173,0.020429,0.016531,0.016182,0.005841,0.001352,0.006886
0.014725,0.020702,0.016484,0.016143,0.005809,0.001192,0.006573
0.015371,0.021050,0.016425,0.016128,0.005772,0.001016,0.006326
0.016094,0.021250,0.016403,0.016158,0.005708,0.000876,0.006134
0.016869,0.021314,0.016340,0.016042,0.005639,0.000787,0.005976
0.017505,0.021392,0.016313,0.015955,0.005548,0.000703,0.005828
0.017824,0.021444,0.016299,0.015880,0.005511,0.000688,0.005645
0.018061,0.021436,0.016227,0.015662,0.005493,0.000679,0.005539
0.018079,0.021367,0.016228,0.015410,0.005510,0.000717,0.005479
0.018028,0.021264,0.016222,0.015113,0.005524,0.000754,0.005450
0.017890,0.020996,0.016034,0.014698,0.005522,0.000843,0.005395
0.017712,0.020553,0.015859,0.014260,0.005540,0.001074,0.005347
0.017533,0.020102,0.015726,0.013685,0.005561,0.001285,0.005327
0.017432,0.019793,0.015621,0.013208,0.005586,0.001476,0.005330
0.017296,0.019388,0.015475,0.012742,0.005641,0.001714,0.005363
0.017161,0.018847,0.015311,0.012330,0.005729,0.002010,0.005470
0.016973,0.018327,0.015221,0.012026,0.005819,0.002323,0.005600
0.016583,0.017764,0.015069,0.011879,0.005900,0.002755,0.005701
0.016077,0.017085,0.014882,0.011749,0.006021,0.003282,0.005809
0.015566,0.016515,0.014928,0.011685,0.006162,0.003778,0.005945
0.014926,0.016074,0.015120,0.011651,0.006321,0.004197,0.006074
0.014317,0.015609,0.015216,0.011567,0.006448,0.004738,0.006204
0.013552,0.015089,0.015327,0.011475,0.006589,0.005296,0.006319
0.012745,0.014486,0.015537,0.011355,0.006761,0.005838,0.006445
0.011789,0.013887,0.016148,0.011057,0.006949,0.006404,0.006505
0.010834,0.013319,0.016837,0.010784,0.007138,0.007040,0.006566
0.010082,0.012760,0.017555,0.010502,0.007315,0.007627,0.006666
0.009636,0.012330,0.018366,0.010258,0.007442,0.008060,0.006776
0.009072,0.011797,0.019542,0.009992,0.007574,0.008597,0.006839
0.008524,0.011284,0.020621,0.009738,0.007681,0.009125,0.006895
0.007952,0.010865,0.021721,0.009540,0.007801,0.009556,0.006924
0.007592,0.010544,0.022946,0.009363,0.007922,0.009848,0.006976
0.007264,0.010284,0.024149,0.009199,0.007998,0.010142,0.007034
0.006949,0.010102,0.025072,0.009164,0.008058,0.010424,0.007056
0.006652,0.009924,0.025827,0.009159,0.008113,0.010609,0.007041
0.006382,0.009725,0.026917,0.009093,0.008152,0.010851,0.007002
0.006208,0.009483,0.027961,0.008941,0.008188,0.011204,0.006887
0.006094,0.009449,0.028893,0.008787,0.008178,0.011459,0.006886
0.006001,0.009430,0.029736,0.008643,0.008169,0.011632,0.006962
0.005906,0.009417,0.030560,0.008448,0.008172,0.011720,0.007134
0.005634,0.009335,0.031251,0.008287,0.008129,0.011867,0.007363
0.005385,0.009365,0.031833,0.008159,0.008077,0.012025,0.007578
0.005083,0.009555,0.032500,0.008045,0.008036,0.011993,0.007823
0.004811,0.009735,0.033063,0.007905,0.007968,0.011934,0.008108
0.004591,0.009936,0.033232,0.007776,0.007864,0.011833,0.008387
0.004370,0.010583,0.032982,0.007737,0.007755,0.011485,0.008756
0.004165,0.011167,0.032453,0.007730,0.007632,0.011037,0.009090
0.004004,0.011676,0.031827,0.007682,0.007500,0.010608,0.009368
0.003844,0.012238,0.031177,0.007637,0.007362,0.010271,0.009558
0.003865,0.012912,0.030151,0.007575,0.007225,0.009824,0.009704
0.003970,0.013467,0.029096,0.007464,0.007104,0.009382,0.009861
0.004114,0.013819,0.028023,0.007426,0.006980,0.009123,0.009981
0.004127,0.014228,0.026804,0.007394,0.006854,0.008951,0.010103
0.004159,0.014709,0.025546,0.007383,0.006753,0.008666,0.010221
0.004241,0.014748,0.024394,0.007370,0.006659,0.008614,0.010318
0.004339,0.014711,0.023402,0.007318,0.006597,0.008717,0.010334
0.004534,0.014596,0.022018,0.007334,0.006532,0.008854,0.010397
0.004709,0.014588,0.020666,0.007358,0.006440,0.008814,0.010488
0.004884,0.014434,0.019349,0.007393,0.006392,0.008850,0.010423
0.005013,0.014371,0.018218,0.007444,0.006348,0.008891,0.010296
0.005132,0.014511,0.017039,0.007488,0.006294,0.008851,0.010088
0.005371,0.014665,0.015945,0.007501,0.006276,0.008772,0.009773
0.005654,0.014654,0.014875,0.007586,0.006258,0.008759,0.009456
0.005895,0.014893,0.013857,0.007772,0.006229,0.008645,0.009122
0.006074,0.015316,0.012971,0.007979,0.006218,0.008452,0.008797
0.006146,0.015908,0.012447,0.008194,0.006234,0.008179,0.008402
0.006292,0.016081,0.011916,0.008460,0.006256,0.008116,0.007972
0.006376,0.016225,0.011543,0.008877,0.006301,0.008208,0.007531
0.006665,0.016324,0.011260,0.009283,0.006302,0.008402,0.007104
0.006989,0.016464,0.010917,0.009672,0.006308,0.008762,0.006796
0.007563,0.016860,0.010453,0.010044,0.006277,0.009668,0.006565
0.009050,0.019090,0.010344,0.010995,0.006184,0.012076,0.006354
0.011871,0.022890,0.011112,0.012263,0.006367,0.014783,0.006455
0.014836,0.028090,0.011887,0.013455,0.006694,0.017511,0.006759
0.017746,0.034140,0.012653,0.014555,0.007248,0.020231,0.007229
0.020668,0.040711,0.013512,0.015621,0.008097,0.022759,0.007778
0.023479,0.047829,0.014400,0.016599,0.008971,0.025165,0.008429
0.025964,0.055810,0.015342,0.018187,0.010740,0.027371,0.008948
0.028360,0.064232,0.016265,0.019905,0.012699,0.029561,0.009443
0.030754,0.073205,0.017172,0.021583,0.014864,0.031727,0.009956
0.033206,0.082050,0.018139,0.023219,0.017079,0.033844,0.010454
0.035700,0.090631,0.019222,0.024920,0.019344,0.035952,0.010955
0.038164,0.098972,0.020277,0.026669,0.021835,0.038043,0.011521
0.040738,0.107017,0.021306,0.028355,0.024582,0.040041,0.012112
0.043343,0.114570,0.022374,0.030001,0.027485,0.041767,0.012727
0.045951,0.121010,0.023401,0.031456,0.030459,0.043360,0.013348
0.048615,0.126987,0.024279,0.032575,0.033550,0.044617,0.014052
0.050894,0.132407,0.024688,0.033528,0.036687,0.045219,0.014753
0.052653,0.137052,0.024749,0.034270,0.039807,0.045597,0.015317
0.054094,0.141907,0.024603,0.034771,0.042907,0.045886,0.015893
0.055250,0.146868,0.024171,0.035027,0.046093,0.046013,0.016379
0.056055,0.151153,0.023839,0.035304,0.049351,0.045611,0.016856
0.056033,0.152592,0.023152,0.035149,0.052671,0.043676,0.017265
0.054660,0.152393,0.021586,0.034619,0.055650,0.041370,0.017361
0.053191,0.150621,0.020059,0.034168,0.058400,0.039051,0.017235
0.051785,0.147521,0.018623,0.033857,0.060930,0.036734,0.016907
0.050369,0.143920,0.017215,0.033580,0.063376,0.034464,0.016408
0.049039,0.139731,0.015799,0.033430,0.065676,0.032282,0.015895
0.047967,0.135133,0.014418,0.032769,0.067023,0.030195,0.015445
0.046932,0.130291,0.013072,0.032045,0.068196,0.028158,0.014992
0.045902,0.124794,0.011774,0.031400,0.069156,0.026149,0.014548
0.044786,0.119549,0.010454,0.030797,0.070072,0.024208,0.014157
0.043619,0.114552,0.009112,0.030152,0.071000,0.022328,0.013835
0.042469,0.109424,0.007774,0.029499,0.071752,0.020452,0.013532
0.041224,0.104341,0.006438,0.028741,0.072144,0.018665,0.013293
0.040040,0.099253,0.005021,0.027455,0.071896,0.017314,0.013145
0.038928,0.094745,0.003603,0.026177,0.071369,0.016139,0.013093
0.037839,0.089917,0.002251,0.025249,0.070412,0.015419,0.013184
0.037075,0.085741,0.001364,0.024457,0.069362,0.015364,0.013391
0.036776,0.082455,0.000862,0.023725,0.068271,0.015391,0.013819
0.036502,0.079143,0.000539,0.023237,0.067082,0.015379,0.014252
0.036355,0.075579,0.000515,0.023023,0.065488,0.015338,0.014798
0.036194,0.072373,0.000503,0.022834,0.063719,0.015304,0.015432
0.035794,0.070331,0.000491,0.022497,0.061945,0.015227,0.016142
0.035199,0.068436,0.000457,0.022138,0.060103,0.015128,0.016942
0.034381,0.066765,0.000417,0.021745,0.058253,0.015019,0.017735
0.033374,0.065409,0.000403,0.021317,0.056318,0.014769,0.018553
0.032169,0.064226,0.000413,0.020912,0.054103,0.014377,0.019486
0.030943,0.062697,0.000448,0.020511,0.051897,0.013944,0.020403
0.029694,0.060849,0.000518,0.019982,0.049681,0.013470,0.021306
0.028396,0.058902,0.000624,0.019376,0.047401,0.012973,0.022179
0.027064,0.057085,0.000749,0.018671,0.045084,0.012476,0.023009
0.025717,0.055090,0.000904,0.017931,0.042695,0.011970,0.023796
0.024364,0.052957,0.001048,0.017200,0.040238,0.011472,0.024576
0.022955,0.051298,0.001239,0.016458,0.037459,0.010938,0.025372
0.021512,0.049841,0.001426,0.015793,0.034693,0.010408,0.026105
0.019995,0.048249,0.001726,0.015508,0.032369,0.009852,0.026704
0.018407,0.046871,0.002094,0.015270,0.030230,0.009336,0.027226
0.016760,0.045988,0.002562,0.014953,0.028395,0.008863,0.027627
0.015191,0.044673,0.003106,0.014597,0.026604,0.008461,0.027912
0.013730,0.042943,0.003669,0.014216,0.024851,0.008090,0.028085
0.012340,0.041180,0.004242,0.013866,0.023150,0.007760,0.028216
0.011098,0.039417,0.004779,0.013461,0.021719,0.007448,0.028326
0.009946,0.037822,0.005309,0.013050,0.020334,0.007140,0.028420
0.008877,0.036452,0.005839,0.012636,0.018925,0.006914,0.028444
0.007980,0.035300,0.006414,0.012197,0.017678,0.006716,0.028307
0.007274,0.033992,0.007019,0.011766,0.016563,0.006522,0.028052
0.006716,0.032861,0.007599,0.011304,0.015562,0.006451,0.027747
0.006290,0.031927,0.008169,0.010816,0.014605,0.006479,0.027421
0.005896,0.031456,0.008706,0.010270,0.013734,0.006551,0.027060
0.005531,0.031064,0.009218,0.009729,0.012940,0.006647,0.026642
0.005193,0.030561,0.009709,0.009203,0.012200,0.006760,0.026216
0.004871,0.029936,0.010187,0.008686,0.011512,0.006887,0.025774
0.004582,0.029133,0.010664,0.008197,0.010916,0.007019,0.025311
0.004318,0.028296,0.011161,0.007717,0.010330,0.007163,0.024794
0.004100,0.027367,0.011613,0.007230,0.010000,0.007366,0.024221
0.003918,0.026475,0.012047,0.006755,0.009750,0.007566,0.023638
0.003788,0.025839,0.012361,0.006390,0.009568,0.007796,0.023102
0.003692,0.025313,0.012601,0.006145,0.009427,0.008037,0.022566
0.003622,0.024907,0.012749,0.005990,0.009258,0.008259,0.022013
0.003549,0.024843,0.012843,0.005894,0.009101,0.008414,0.021473
0.003442,0.025193,0.012943,0.005820,0.008973,0.008552,0.020922
0.003330,0.025483,0.013032,0.005743,0.008964,0.008687,0.020362
0.003201,0.025823,0.013174,0.005703,0.009004,0.008799,0.019735
0.003075,0.026045,0.013301,0.005695,0.009145,0.008883,0.019053
0.003035,0.025944,0.013382,0.005725,0.009314,0.008933,0.018397
0.003045,0.025620,0.013435,0.005791,0.009448,0.008956,0.017793
0.003073,0.025422,0.013414,0.005873,0.009562,0.008915,0.017299
0.003109,0.025343,0.013391,0.005956,0.009632,0.008843,0.016843
0.003136,0.025275,0.013377,0.006019,0.009733,0.008757,0.016393
0.003161,0.025199,0.013389,0.006071,0.009808,0.008635,0.015939
0.003187,0.024989,0.013424,0.006129,0.009905,0.008483,0.015468
0.003261,0.024632,0.013466,0.006193,0.009992,0.008307,0.015009
0.003355,0.024221,0.013489,0.006267,0.010066,0.008115,0.014591
0.003439,0.023815,0.013491,0.006331,0.010122,0.007926,0.014190
0.003520,0.023385,0.013498,0.006396,0.010176,0.007735,0.013774
0.003606,0.022916,0.013493,0.006470,0.010258,0.007545,0.013377
0.003677,0.022441,0.013516,0.006546,0.010349,0.007343,0.012989
0.003735,0.022055,0.013534,0.006635,0.010432,0.007145,0.012575
0.003812,0.021648,0.013524,0.006741,0.010484,0.007016,0.012125
0.003890,0.021268,0.013532,0.006825,0.010541,0.006868,0.011655
0.003968,0.020898,0.013539,0.006880,0.010608,0.006723,0.011196
0.004040,0.020467,0.013530,0.006956,0.010681,0.006575,0.010800
0.004119,0.020011,0.013516,0.007041,0.010758,0.006421,0.010474
0.004227,0.019471,0.013432,0.007136,0.010851,0.006291,0.010242
0.004370,0.018936,0.013361,0.007213,0.010951,0.006175,0.010007
0.004529,0.018481,0.013323,0.007294,0.011040,0.006071,0.009742
0.004689,0.018242,0.013295,0.007326,0.011147,0.005980,0.009499
0.005168,0.018025,0.013245,0.007349,0.011161,0.005928,0.009272
0.005757,0.017726,0.013075,0.007522,0.011193,0.005869,0.009142
0.006381,0.017574,0.012921,0.007820,0.011261,0.005790,0.008990
0.007057,0.017607,0.012815,0.008110,0.011319,0.005619,0.008871
0.007802,0.017554,0.012686,0.008467,0.011309,0.005454,0.008772
0.008848,0.017706,0.012583,0.008776,0.011253,0.005353,0.008680
0.010107,0.017801,0.012481,0.009030,0.011089,0.005402,0.008565
0.011408,0.017776,0.012348,0.009201,0.010891,0.005521,0.008461
0.012821,0.017837,0.012244,0.009287,0.010598,0.005605,0.008330
0.013939,0.017831,0.012291,0.009352,0.010387,0.005619,0.008163
0.014965,0.017815,0.012521,0.009435,0.010158,0.005674,0.007960
0.015782,0.017860,0.012858,0.009486,0.009940,0.005577,0.007769
0.016513,0.017983,0.013216,0.009553,0.009746,0.005309,0.007621
0.016971,0.018062,0.013559,0.009698,0.009655,0.005113,0.007465
0.017658,0.018154,0.013706,0.009969,0.009562,0.004902,0.007301
0.018456,0.018270,0.013785,0.010152,0.009474,0.004684,0.007167
0.019553,0.018367,0.013975,0.010291,0.009402,0.004465,0.006989
0.020627,0.018583,0.014238,0.010506,0.009320,0.004233,0.006725
0.022403,0.018834,0.014553,0.010675,0.009020,0.003948,0.006471
0.024291,0.018910,0.014750,0.010716,0.008656,0.003774,0.006265
0.025722,0.018861,0.014768,0.010869,0.008341,0.003590,0.006084
0.026820,0.018573,0.014811,0.011048,0.008137,0.003510,0.005869
0.027772,0.018327,0.015106,0.011052,0.007911,0.003482,0.005583
0.028206,0.017906,0.015360,0.010967,0.007716,0.003471,0.005323
0.028798,0.017363,0.015663,0.010869,0.007535,0.003487,0.005070
0.029583,0.017048,0.016047,0.010618,0.007381,0.003435,0.004926
0.030044,0.016830,0.016440,0.010393,0.007184,0.003310,0.004828
0.030528,0.016756,0.016715,0.010340,0.007061,0.003011,0.004770
0.030789,0.017070,0.017005,0.010361,0.007001,0.002770,0.004705
0.030606,0.017459,0.017392,0.010468,0.007098,0.002569,0.004648
0.030580,0.017843,0.017600,0.010649,0.007108,0.002513,0.004609
0.030733,0.018317,0.017653,0.010729,0.007118,0.002376,0.004606
0.030926,0.018544,0.017651,0.010733,0.007100,0.002376,0.004635
0.031551,0.018713,0.017621,0.010680,0.007000,0.002435,0.004661
0.032890,0.018916,0.017330,0.010501,0.006723,0.002372,0.004714
0.033926,0.018971,0.017423,0.010175,0.006440,0.002366,0.004774
0.034960,0.018923,0.017548,0.009972,0.006160,0.002483,0.004801
0.035728,0.018942,0.017490,0.009864,0.005846,0.002623,0.004836
0.036093,0.018826,0.017356,0.009673,0.005564,0.002768,0.004912
0.035659,0.018573,0.017164,0.009604,0.005475,0.002991,0.005009
0.034959,0.018487,0.016959,0.009718,0.005482,0.003083,0.005079
0.034339,0.018395,0.016887,0.009686,0.005487,0.003132,0.005142
0.033397,0.018447,0.016887,0.009600,0.005573,0.003048,0.005228
0.032404,0.018480,0.016770,0.009623,0.005676,0.002903,0.005288
0.032200,0.018525,0.016635,0.009564,0.005604,0.002769,0.005354
0.032428,0.018501,0.016323,0.009540,0.005458,0.002700,0.005445
0.032403,0.018422,0.015936,0.009604,0.005419,0.002719,0.005497
0.032498,0.018257,0.015460,0.009687,0.005415,0.002869,0.005536
0.032014,0.018057,0.015054,0.009626,0.005581,0.003117,0.005598
0.031466,0.017874,0.014697,0.009553,0.005779,0.003203,0.005663
0.031278,0.017763,0.014228,0.009451,0.005894,0.003259,0.005756
0.031183,0.017771,0.013801,0.009285,0.005893,0.003233,0.005893
0.031260,0.017528,0.013291,0.009193,0.005970,0.003363,0.006029
0.031464,0.017395,0.012715,0.009158,0.005979,0.003512,0.006135
0.030900,0.017099,0.012142,0.009200,0.006179,0.003746,0.006181
0.029979,0.016757,0.011855,0.009471,0.006473,0.004023,0.006181
0.029564,0.016674,0.011450,0.009783,0.006683,0.004018,0.006188
0.029492,0.016799,0.011144,0.010075,0.006745,0.003819,0.006163
0.029580,0.016918,0.010898,0.010335,0.006826,0.003617,0.006140
0.030630,0.017061,0.010702,0.010540,0.006743,0.003404,0.006141
0.031146,0.017215,0.010479,0.010466,0.006733,0.003265,0.006196
0.031710,0.017419,0.010429,0.010376,0.006639,0.003197,0.006281
0.032134,0.017655,0.010414,0.010360,0.006590,0.003124,0.006353
0.032748,0.017786,0.010348,0.010340,0.006412,0.003196,0.006410
0.033510,0.017876,0.010265,0.010293,0.006294,0.003332,0.006383
0.034014,0.017837,0.010159,0.010301,0.006285,0.003520,0.006376
0.033626,0.017638,0.010091,0.010286,0.006393,0.003738,0.006354
0.033649,0.017330,0.009953,0.010235,0.006393,0.004158,0.006347
0.033651,0.017106,0.009866,0.010167,0.006444,0.004413,0.006361
0.033696,0.017163,0.009876,0.010031,0.006400,0.004433,0.006363
0.034045,0.016971,0.009823,0.009909,0.006321,0.004609,0.006312
0.034632,0.016432,0.009712,0.009837,0.006210,0.004966,0.006299
0.035067,0.015998,0.009695,0.009790,0.006275,0.005115,0.006249
0.035345,0.015620,0.009692,0.009733,0.006199,0.005280,0.006184
0.035171,0.015106,0.009681,0.009703,0.006299,0.005531,0.006097
0.034994,0.014933,0.009732,0.009606,0.006319,0.005585,0.006074
0.035146,0.014994,0.009805,0.009344,0.006232,0.005547,0.006025
0.034783,0.014892,0.009811,0.009143,0.006176,0.005712,0.005982
0.034004,0.014857,0.009742,0.008877,0.006239,0.005821,0.006006
0.033185,0.014877,0.009673,0.008629,0.006164,0.005993,0.006031
0.032065,0.014774,0.009519,0.008471,0.006293,0.006289,0.005998
0.031202,0.014647,0.009394,0.008457,0.006419,0.006548,0.005930
0.030369,0.014409,0.009243,0.008370,0.006580,0.006786,0.005840
0.029996,0.013876,0.009037,0.008277,0.006663,0.007241,0.005770
0.029514,0.013303,0.008861,0.008203,0.006822,0.007710,0.005723
0.028588,0.012912,0.008732,0.008083,0.006825,0.007987,0.005826
0.027484,0.012692,0.008633,0.007979,0.006840,0.008255,0.005897
0.026740,0.012412,0.008470,0.007863,0.006846,0.008721,0.005950
0.025486,0.012493,0.008418,0.007764,0.006855,0.008765,0.006011
0.024050,0.012655,0.008420,0.007652,0.006885,0.008746,0.006047
0.022917,0.012496,0.008388,0.007605,0.006905,0.008884,0.006038
0.021657,0.012549,0.008439,0.007559,0.006925,0.008771,0.006064
0.020080,0.012938,0.008571,0.007523,0.006982,0.008431,0.006048
0.018805,0.013027,0.008563,0.007514,0.006945,0.008452,0.006001
0.017433,0.013272,0.008563,0.007520,0.006993,0.008355,0.005961
0.016618,0.013588,0.008512,0.007533,0.006936,0.008285,0.005919
0.016378,0.013706,0.008297,0.007542,0.006832,0.008719,0.005973
0.016765,0.014594,0.008238,0.007505,0.006666,0.009814,0.006151
0.017684,0.017533,0.008082,0.007320,0.006575,0.011346,0.006598
0.019808,0.020174,0.008104,0.007214,0.006463,0.013258,0.006970
0.022161,0.022777,0.008163,0.007042,0.006434,0.015062,0.007363
0.024351,0.025563,0.008304,0.006832,0.006347,0.016734,0.007788
0.027372,0.028203,0.008465,0.006682,0.006239,0.018733,0.008128
0.030709,0.030914,0.008581,0.006538,0.006234,0.020891,0.008441
0.034215,0.033878,0.008788,0.006403,0.006226,0.022882,0.008739
0.038016,0.036943,0.008998,0.006293,0.006195,0.024687,0.009062
0.042247,0.039864,0.009129,0.006173,0.006386,0.026638,0.009327
0.046585,0.042725,0.009325,0.006045,0.006642,0.028450,0.009551
0.050708,0.045879,0.009569,0.005958,0.006971,0.029786,0.009776
0.054695,0.048955,0.009631,0.005859,0.007481,0.031146,0.009969
0.058582,0.051512,0.009593,0.005817,0.008131,0.032476,0.010159
0.062540,0.054084,0.009556,0.005760,0.009130,0.033664,0.010377
0.066759,0.056574,0.009455,0.005663,0.010286,0.034928,0.010592
0.071090,0.058376,0.009464,0.005513,0.011559,0.036039,0.010718
0.075191,0.059918,0.009578,0.005335,0.012902,0.037027,0.010793
0.079251,0.061473,0.009741,0.005150,0.014324,0.038041,0.010843
0.083302,0.062694,0.010026,0.004982,0.015986,0.038848,0.010851
0.087016,0.063884,0.010487,0.004847,0.017850,0.039206,0.010746
0.089416,0.064371,0.010705,0.004719,0.019921,0.039067,0.010574
0.091313,0.062774,0.011044,0.004665,0.021951,0.038488,0.010139
0.091933,0.061305,0.011239,0.004590,0.023982,0.037663,0.009766
0.091929,0.060254,0.011446,0.004476,0.026095,0.036763,0.009406
0.091411,0.059657,0.011591,0.004323,0.028339,0.035900,0.009086
0.090094,0.059267,0.011723,0.004166,0.030790,0.034670,0.008815
0.088406,0.058817,0.012204,0.004029,0.033181,0.033201,0.008587
0.086048,0.058686,0.012774,0.003873,0.035520,0.031317,0.008398
0.083471,0.058603,0.013553,0.003732,0.037747,0.029267,0.008174
0.080664,0.058668,0.014395,0.003567,0.039936,0.027219,0.007930
0.077915,0.058919,0.015210,0.003380,0.042296,0.025200,0.007711
0.075484,0.059096,0.016125,0.003219,0.044651,0.023369,0.007502
0.073317,0.058932,0.017241,0.003120,0.046992,0.021701,0.007303
0.071298,0.058940,0.018502,0.003006,0.049301,0.020177,0.007098
0.068901,0.059008,0.019781,0.002915,0.051268,0.018863,0.006902
0.066105,0.058984,0.021083,0.002857,0.053153,0.017625,0.006736
0.063128,0.059326,0.022254,0.003087,0.054659,0.016625,0.006679
0.060033,0.059813,0.023369,0.003406,0.056084,0.015625,0.006702
0.056820,0.060390,0.024334,0.003843,0.057415,0.014616,0.006743
0.053593,0.060830,0.025188,0.004342,0.058625,0.013595,0.006818
0.050506,0.061260,0.025986,0.004898,0.059695,0.012614,0.006858
0.047626,0.061410,0.026829,0.006069,0.060523,0.011560,0.006800
0.044741,0.061567,0.027596,0.007468,0.061150,0.010509,0.006717
0.041774,0.061485,0.028246,0.008981,0.061796,0.009380,0.006655
0.038933,0.061214,0.028768,0.010529,0.062378,0.008323,0.006607
0.036544,0.060473,0.029283,0.012150,0.062818,0.007232,0.006599
0.034523,0.059790,0.029805,0.014079,0.062991,0.006107,0.006565
0.032696,0.058795,0.030039,0.016145,0.062994,0.005032,0.006484
0.031433,0.057429,0.030120,0.018381,0.062903,0.004385,0.006343
0.030327,0.056127,0.029650,0.020672,0.062827,0.003984,0.006217
0.029274,0.054644,0.029066,0.022997,0.062636,0.003612,0.006155
0.028163,0.053014,0.028341,0.025406,0.062194,0.003304,0.006127
0.026838,0.051379,0.027514,0.027877,0.061624,0.003063,0.006100
0.025294,0.050077,0.026627,0.030374,0.060618,0.002837,0.006096
0.023603,0.049010,0.025558,0.032914,0.059336,0.002655,0.006105
0.022130,0.048144,0.024418,0.036219,0.057735,0.002428,0.006044
0.020856,0.047426,0.023152,0.039678,0.055976,0.002176,0.005964
0.019684,0.046934,0.021869,0.043040,0.054349,0.001922,0.005834
0.018719,0.046796,0.020585,0.046464,0.052639,0.001649,0.005670
0.017831,0.046505,0.019410,0.049538,0.050876,0.001392,0.005515
0.016886,0.046701,0.018300,0.052544,0.048920,0.001239,0.005370
0.015983,0.046895,0.017205,0.055418,0.046811,0.001140,0.005267
0.015104,0.047137,0.016115,0.058117,0.044742,0.001076,0.005237
0.014271,0.047462,0.015076,0.060901,0.042752,0.001056,0.005204
0.013580,0.048004,0.014112,0.063143,0.040699,0.001115,0.005182
0.012985,0.048378,0.013231,0.065256,0.038649,0.001208,0.005122
0.012351,0.048752,0.012404,0.067407,0.036577,0.001325,0.004931
0.011676,0.048889,0.011592,0.069369,0.034503,0.001466,0.004720
0.010832,0.049208,0.010779,0.071254,0.032541,0.001625,0.004483
0.009991,0.049104,0.009999,0.072726,0.030668,0.001782,0.004312
0.009094,0.048930,0.009550,0.074078,0.028801,0.001960,0.004117
0.008308,0.048771,0.009181,0.075361,0.026936,0.002143,0.003891
0.007555,0.048571,0.008930,0.076531,0.025080,0.002326,0.003645
0.006806,0.048316,0.008728,0.077679,0.023256,0.002506,0.003365
0.006214,0.047886,0.008527,0.078794,0.021705,0.002688,0.003059
0.005806,0.047188,0.008404,0.079987,0.020272,0.002822,0.002744
0.005458,0.046163,0.008317,0.080618,0.019115,0.002939,0.002497
0.005102,0.045016,0.008343,0.080949,0.017973,0.003067,0.002284
0.004785,0.043768,0.008354,0.080509,0.016991,0.003182,0.002178
0.004497,0.042416,0.008363,0.079844,0.016063,0.003302,0.002136
0.004315,0.041011,0.008371,0.079410,0.015220,0.003393,0.002175
0.004144,0.039616,0.008365,0.078871,0.014466,0.003477,0.002280
0.003961,0.038331,0.008355,0.078444,0.013801,0.003560,0.002356
0.003828,0.036989,0.008334,0.077601,0.013269,0.003629,0.002447
0.003700,0.035599,0.008320,0.076549,0.012848,0.003689,0.002530
0.003578,0.034137,0.008350,0.075506,0.012519,0.003746,0.002603
0.003473,0.032551,0.008441,0.074154,0.012202,0.003797,0.002739
0.003401,0.030853,0.008533,0.072630,0.011890,0.003837,0.002961
0.003327,0.029279,0.008618,0.070956,0.011593,0.003868,0.003222
0.003331,0.027750,0.008703,0.069130,0.011330,0.003886,0.003570
0.003299,0.026670,0.008863,0.067421,0.011136,0.003906,0.003864
0.003347,0.025570,0.009066,0.065642,0.010992,0.003952,0.004158
0.003464,0.024496,0.009285,0.063916,0.010857,0.004007,0.004444
0.003698,0.023397,0.009587,0.062208,0.010708,0.004093,0.004741
0.004104,0.022264,0.009913,0.060368,0.010551,0.004227,0.005090
0.004586,0.021103,0.010264,0.058504,0.010391,0.004389,0.005475
0.005109,0.020029,0.010590,0.056428,0.010282,0.004617,0.005909
0.005713,0.019113,0.010928,0.054100,0.010179,0.004833,0.006356
0.006371,0.018198,0.011332,0.051643,0.010114,0.005024,0.006836
0.007004,0.017335,0.011810,0.049649,0.010090,0.005223,0.007227
0.007614,0.016490,0.012432,0.047663,0.010140,0.005411,0.007592
0.008236,0.015653,0.013093,0.045625,0.010167,0.005587,0.007880
0.009009,0.014941,0.013840,0.043441,0.010100,0.005774,0.008005
0.010051,0.014212,0.014712,0.041125,0.009991,0.005895,0.008222
0.011132,0.013450,0.015650,0.038514,0.009932,0.006026,0.008481
0.012309,0.012763,0.016580,0.035801,0.009922,0.006143,0.008747
0.013533,0.012200,0.017368,0.033565,0.009842,0.006218,0.008977
0.014490,0.011791,0.018002,0.031855,0.009815,0.006208,0.009134
0.015296,0.011595,0.018586,0.030230,0.009769,0.006128,0.009256
0.016394,0.011504,0.019231,0.028620,0.009705,0.006084,0.009319
0.017732,0.011623,0.019823,0.027213,0.009597,0.005992,0.009321
0.018896,0.011766,0.020547,0.026048,0.009486,0.005896,0.009321
0.019836,0.011935,0.021166,0.024952,0.009399,0.005805,0.009263
0.020978,0.012084,0.021659,0.023887,0.009300,0.005710,0.009206
0.022018,0.012241,0.022058,0.022849,0.009131,0.005585,0.009166
0.022933,0.012478,0.022582,0.021796,0.008989,0.005402,0.009100
0.023942,0.012672,0.023376,0.020721,0.008859,0.005245,0.008995
0.024769,0.013047,0.024580,0.019796,0.008754,0.005013,0.008770
0.025082,0.013500,0.025709,0.018950,0.008641,0.004795,0.008552
0.025181,0.013882,0.026656,0.018313,0.008516,0.004633,0.008287
0.025359,0.014258,0.027329,0.017659,0.008334,0.004443,0.008089
0.025537,0.014645,0.027874,0.017064,0.008141,0.004268,0.007881
0.025653,0.015125,0.028388,0.016574,0.007928,0.004047,0.007664
0.025860,0.015572,0.028863,0.016313,0.007796,0.003780,0.007523
0.025814,0.016012,0.029171,0.016170,0.007679,0.003570,0.007315
0.025819,0.016578,0.029136,0.016305,0.007505,0.003244,0.007123
0.026013,0.017000,0.028736,0.016322,0.007256,0.002961,0.006975
0.026342,0.017306,0.028529,0.016223,0.007074,0.002804,0.006830
0.026896,0.017512,0.028578,0.016006,0.006870,0.002744,0.006706
0.027545,0.017543,0.028694,0.015784,0.006665,0.002780,0.006583
0.027908,0.017505,0.028808,0.015538,0.006506,0.002774,0.006533
0.027782,0.017264,0.028966,0.015189,0.006399,0.002849,0.006616
0.027512,0.016962,0.028939,0.014722,0.006295,0.002980,0.006705
0.027322,0.016626,0.028858,0.014273,0.006191,0.003099,0.006895
0.026673,0.016203,0.028863,0.013784,0.006108,0.003285,0.007143
0.025800,0.015819,0.028986,0.013341,0.006119,0.003482,0.007386
0.024665,0.015385,0.028869,0.013025,0.006107,0.003640,0.007713
0.023415,0.015148,0.028325,0.012710,0.006098,0.003726,0.008050
0.022571,0.014949,0.027416,0.012343,0.006017,0.003745,0.008520
0.022144,0.015024,0.026468,0.011968,0.005901,0.003763,0.009102
0.021902,0.015280,0.025645,0.011586,0.005838,0.003741,0.009587
0.021583,0.015502,0.025045,0.011338,0.005780,0.003744,0.010044
0.021488,0.015671,0.024361,0.011086,0.005704,0.003821,0.010511
0.021461,0.015860,0.023651,0.010782,0.005661,0.004055,0.010919
0.021250,0.016183,0.022779,0.010509,0.005612,0.004255,0.011413
0.021001,0.016597,0.021983,0.010177,0.005591,0.004463,0.011849
0.020677,0.016820,0.021423,0.009925,0.005587,0.004765,0.012269
0.020221,0.017146,0.021257,0.009748,0.005599,0.005014,0.012609
0.019609,0.017150,0.020997,0.009614,0.005612,0.005213,0.012922
0.019083,0.017053,0.020665,0.009571,0.005590,0.005539,0.013275
0.018613,0.017009,0.020388,0.009645,0.005591,0.005863,0.013609
0.017908,0.017241,0.020132,0.009772,0.005584,0.006095,0.013904
0.017389,0.017413,0.019930,0.009888,0.005551,0.006280,0.014246
0.017228,0.017401,0.019671,0.009986,0.005468,0.006442,0.014783
0.017139,0.017357,0.019824,0.010071,0.005388,0.006671,0.015266
0.017142,0.017402,0.020042,0.010128,0.005320,0.006859,0.015782
0.016869,0.017305,0.020421,0.010150,0.005301,0.007149,0.016303
0.016778,0.017081,0.021004,0.010151,0.005254,0.007547,0.016926
0.016573,0.016837,0.021734,0.010151,0.005222,0.007889,0.017553
0.016035,0.016551,0.022477,0.010008,0.005245,0.008302,0.018152
0.015460,0.015788,0.023616,0.009788,0.005329,0.008737,0.018698
0.014821,0.014816,0.025013,0.009653,0.005368,0.009157,0.019427
0.014177,0.013872,0.026435,0.009529,0.005406,0.009604,0.020051
0.013351,0.013147,0.027660,0.009396,0.005452,0.009869,0.020658
0.012469,0.012559,0.029087,0.009221,0.005513,0.010030,0.021286
0.011528,0.011907,0.030619,0.009046,0.005578,0.010268,0.021854
0.010614,0.011000,0.031971,0.008911,0.005632,0.010534,0.022569
0.009684,0.010109,0.033357,0.008700,0.005679,0.010801,0.023294
0.008616,0.009214,0.034516,0.008555,0.005712,0.011189,0.024035
0.007504,0.008598,0.035833,0.008445,0.005724,0.011584,0.024848
0.006344,0.008326,0.036872,0.008284,0.005756,0.011735,0.025475
0.005167,0.008088,0.037819,0.008071,0.005789,0.011815,0.026043
0.004214,0.007293,0.038511,0.008047,0.005740,0.011999,0.026923
0.003392,0.006537,0.038900,0.008047,0.005676,0.012169,0.027694
0.002657,0.006053,0.038944,0.008094,0.005614,0.012304,0.028243
0.001958,0.006106,0.038717,0.008190,0.005584,0.012337,0.028365
0.001387,0.006275,0.038306,0.008324,0.005545,0.012298,0.028298
0.001304,0.006541,0.037647,0.008449,0.005434,0.012047,0.028213
0.001419,0.007083,0.036346,0.008611,0.005355,0.011722,0.027787
0.001640,0.007496,0.034957,0.008787,0.005301,0.011495,0.027256
0.001986,0.007767,0.033467,0.009096,0.005222,0.011433,0.026609
0.002311,0.008873,0.031787,0.009308,0.005166,0.011362,0.025589
0.002689,0.010012,0.029840,0.009560,0.005143,0.011354,0.024367
0.003062,0.011064,0.027851,0.009813,0.005106,0.011293,0.023217
0.003424,0.011933,0.026126,0.010017,0.005097,0.011224,0.022090
0.003863,0.012570,0.024223,0.010262,0.005079,0.011168,0.021003
0.004290,0.013115,0.022328,0.010487,0.005084,0.011112,0.019935
0.004703,0.013780,0.020578,0.010647,0.005099,0.010989,0.018781
0.005161,0.014438,0.018797,0.010813,0.005114,0.010987,0.017587
0.005608,0.015001,0.017162,0.010889,0.005185,0.010900,0.016439
0.006102,0.015253,0.015358,0.010912,0.005285,0.010780,0.015232
0.006579,0.015244,0.013763,0.010965,0.005355,0.010728,0.014160
0.007047,0.015179,0.012198,0.011053,0.005418,0.010716,0.013156
0.007574,0.015252,0.010810,0.010944,0.005528,0.010866,0.011872
0.008195,0.015201,0.009683,0.010831,0.005667,0.011407,0.010529
0.009033,0.015086,0.009014,0.010738,0.005784,0.012073,0.009177
0.009922,0.015581,0.008363,0.010550,0.005833,0.012832,0.008325
0.011565,0.016818,0.008088,0.010342,0.005868,0.014374,0.007533
0.013348,0.018545,0.007954,0.010146,0.005889,0.015882,0.006793
0.015749,0.019849,0.008274,0.009924,0.006021,0.017581,0.006294
0.018334,0.021078,0.008902,0.009640,0.006204,0.019412,0.005888
0.022004,0.022344,0.009457,0.009276,0.006336,0.021605,0.005538
0.025893,0.023403,0.009872,0.009029,0.006416,0.023865,0.005482
0.029757,0.025265,0.010277,0.008720,0.006467,0.025961,0.005532
0.033506,0.027723,0.010666,0.008405,0.006767,0.027798,0.005611
0.037196,0.030250,0.010982,0.008107,0.007303,0.029660,0.005689
0.040917,0.032611,0.011313,0.007753,0.008559,0.031580,0.005721
0.045092,0.033976,0.011670,0.007446,0.010105,0.033564,0.005665
0.049020,0.034772,0.011878,0.007264,0.011833,0.034896,0.005606
0.052386,0.035582,0.012027,0.007027,0.013723,0.035857,0.005533
0.055793,0.036682,0.012169,0.006810,0.015700,0.036785,0.005440
0.059045,0.038725,0.012421,0.006524,0.017894,0.037474,0.005283
0.061799,0.041186,0.012867,0.006137,0.020426,0.038234,0.005135
0.064480,0.043844,0.013110,0.005704,0.022941,0.038915,0.005006
0.066879,0.047101,0.013268,0.005254,0.025606,0.039400,0.004859
0.068354,0.050600,0.013442,0.004793,0.028524,0.039259,0.004762
0.069434,0.054294,0.013575,0.004343,0.031703,0.038792,0.004722
0.070582,0.056335,0.013670,0.003966,0.035230,0.038140,0.004640
0.070984,0.057393,0.013516,0.003614,0.039003,0.036741,0.004611
0.071199,0.058039,0.013197,0.003282,0.042721,0.035532,0.004568
0.070348,0.059284,0.012927,0.002972,0.045777,0.034013,0.004483
0.068841,0.061077,0.012374,0.002724,0.048441,0.032185,0.004443
0.066049,0.063316,0.011923,0.002521,0.051115,0.029810,0.004460
0.063056,0.064789,0.011591,0.002395,0.053787,0.027425,0.004486
0.060042,0.065120,0.011352,0.002341,0.056428,0.025229,0.004534
0.056997,0.064587,0.011091,0.002336,0.058616,0.023496,0.004527
0.054167,0.064171,0.010671,0.002369,0.060446,0.021787,0.004511
0.051282,0.063924,0.010402,0.002412,0.061633,0.019967,0.004553
0.047834,0.064608,0.010181,0.002409,0.062444,0.017969,0.004680
0.044564,0.065977,0.010142,0.002333,0.063134,0.016593,0.004787
0.041691,0.066926,0.010237,0.002299,0.063548,0.015476,0.004895
0.038635,0.067617,0.010385,0.002381,0.063639,0.014426,0.004990
0.035612,0.067596,0.010456,0.002604,0.063113,0.013614,0.005161
0.033054,0.067286,0.010332,0.002858,0.062214,0.012725,0.005311
0.030505,0.066991,0.010389,0.003072,0.061308,0.011945,0.005474
0.028177,0.066121,0.010530,0.003330,0.060548,0.011189,0.005642
0.026560,0.065163,0.010627,0.003711,0.059535,0.010703,0.005765
0.025010,0.064121,0.010616,0.004206,0.058182,0.010370,0.005857
0.023312,0.064194,0.010502,0.004733,0.056476,0.010067,0.005924
0.021451,0.064450,0.010416,0.005337,0.054641,0.009652,0.006041
0.019497,0.064334,0.010342,0.005992,0.052817,0.009177,0.006128
0.017725,0.064077,0.010089,0.006620,0.051504,0.008853,0.006283
0.016381,0.063409,0.009867,0.007287,0.050517,0.008663,0.006429
0.015142,0.062163,0.009695,0.008041,0.049347,0.008454,0.006591
0.013943,0.061172,0.009452,0.008785,0.048146,0.008173,0.006754
0.012773,0.060671,0.009143,0.009539,0.046958,0.007826,0.006888
0.011728,0.060606,0.008884,0.010489,0.045991,0.007301,0.007017
0.010525,0.060222,0.008888,0.011487,0.045075,0.006829,0.007148
0.009315,0.059893,0.008739,0.012523,0.043958,0.006402,0.007251
0.008203,0.059682,0.008542,0.013765,0.042620,0.006099,0.007319
0.007169,0.059352,0.008306,0.014961,0.041128,0.005874,0.007427
0.006303,0.059289,0.008036,0.016021,0.039791,0.005633,0.007564
0.005632,0.058731,0.007767,0.017027,0.038667,0.005335,0.007746
0.005022,0.058563,0.007484,0.017912,0.037778,0.005044,0.007963
0.004462,0.058198,0.007187,0.018895,0.036738,0.004803,0.008240
0.003983,0.057663,0.006899,0.019983,0.035646,0.004544,0.008459
0.003528,0.057036,0.006607,0.021437,0.034182,0.004291,0.008678
0.003104,0.056554,0.006318,0.022920,0.032681,0.004032,0.008899
0.002662,0.056278,0.006090,0.024284,0.031283,0.003835,0.009140
0.002266,0.055562,0.005956,0.025637,0.029889,0.003695,0.009399
0.002017,0.054767,0.005812,0.026664,0.028296,0.003658,0.009637
0.001899,0.054297,0.005655,0.027657,0.026690,0.003627,0.009848
0.001876,0.053367,0.005689,0.028696,0.025140,0.003579,0.010011
0.001901,0.052288,0.005729,0.029570,0.023579,0.003540,0.010217
0.001986,0.051239,0.005747,0.030356,0.022304,0.003534,0.010357
0.002048,0.050405,0.005762,0.031112,0.021062,0.003538,0.010502
0.002115,0.049640,0.005782,0.031787,0.019806,0.003541,0.010629
0.002207,0.048705,0.005831,0.032579,0.018530,0.003539,0.010676
0.002318,0.047777,0.005870,0.033402,0.017272,0.003536,0.010681
0.002401,0.046780,0.005930,0.034258,0.016090,0.003533,0.010637
0.002496,0.045744,0.006009,0.034604,0.015202,0.003513,0.010575
0.002596,0.044703,0.006088,0.034856,0.014395,0.003486,0.010471
0.002669,0.043567,0.006159,0.035197,0.013579,0.003469,0.010392
0.002689,0.043000,0.006222,0.035544,0.012773,0.003472,0.010310
0.002731,0.042447,0.006267,0.035967,0.012137,0.003473,0.010231
0.002761,0.042048,0.006339,0.036533,0.011683,0.003472,0.010116
0.002754,0.041839,0.006465,0.037068,0.011251,0.003477,0.010021
0.002707,0.041865,0.006662,0.037216,0.010911,0.003488,0.009887
0.002643,0.041690,0.006933,0.037341,0.010531,0.003502,0.009843
0.002639,0.040931,0.007218,0.037453,0.010143,0.003508,0.009835
0.002630,0.039954,0.007599,0.037504,0.009787,0.003532,0.009840
0.002592,0.038951,0.008067,0.037417,0.009545,0.003573,0.009841
0.002546,0.037990,0.008563,0.037153,0.009390,0.003614,0.009833
0.002515,0.037269,0.009069,0.036751,0.009258,0.003654,0.009756
0.002457,0.036649,0.009570,0.036459,0.009122,0.003694,0.009617
0.002381,0.036152,0.010095,0.036160,0.008966,0.003745,0.009497
0.002335,0.035487,0.010677,0.035895,0.008833,0.003787,0.009304
0.002307,0.034568,0.011262,0.035517,0.008712,0.003822,0.009132
0.002300,0.033465,0.011840,0.034781,0.008586,0.003855,0.009038
0.002294,0.032427,0.012436,0.033686,0.008507,0.003882,0.008990
0.002308,0.031263,0.013052,0.032469,0.008524,0.003908,0.008955
0.002402,0.030043,0.013675,0.031471,0.008546,0.003956,0.008936
0.002762,0.028852,0.014268,0.030494,0.008578,0.004033,0.008843
0.003212,0.028052,0.014876,0.029544,0.008596,0.004100,0.008664
0.003754,0.027196,0.015416,0.028576,0.008582,0.004178,0.008510
0.004437,0.026006,0.015850,0.027637,0.008529,0.004315,0.008364
0.005165,0.024734,0.016255,0.026522,0.008500,0.004448,0.008228
0.005913,0.023234,0.016649,0.025329,0.008506,0.004579,0.008122
0.006669,0.021736,0.016991,0.024093,0.008504,0.004734,0.008112
0.007477,0.020436,0.017309,0.022700,0.008569,0.004891,0.008051
0.008252,0.019388,0.017677,0.021248,0.008652,0.005053,0.007962
0.009055,0.018427,0.017946,0.019897,0.008708,0.005204,0.007875
0.009888,0.017530,0.017991,0.018942,0.008689,0.005311,0.007830
0.010224,0.016661,0.018073,0.018229,0.008687,0.005322,0.007812
0.010474,0.015969,0.018201,0.017675,0.008657,0.005277,0.007680
0.011163,0.015300,0.018316,0.017155,0.008565,0.005248,0.007489
0.011858,0.014802,0.018400,0.016717,0.008433,0.005218,0.007236
0.012647,0.014472,0.018381,0.016236,0.008298,0.005165,0.007015
0.013127,0.014304,0.018312,0.015903,0.008188,0.005080,0.006838
0.013336,0.014370,0.018089,0.015651,0.008139,0.005010,0.006730
0.013746,0.014528,0.018049,0.015596,0.008043,0.004891,0.006622
0.014189,0.014793,0.018106,0.015587,0.007893,0.004774,0.006532
0.014599,0.015128,0.018155,0.015440,0.007750,0.004641,0.006453
0.014816,0.015464,0.018229,0.015308,0.007634,0.004469,0.006460
0.015098,0.015767,0.017991,0.015212,0.007474,0.004345,0.006536
0.015543,0.016053,0.017751,0.015017,0.007337,0.004215,0.006591
0.015922,0.016400,0.017625,0.014830,0.007229,0.004065,0.006613
0.016170,0.016656,0.017450,0.014560,0.007120,0.003936,0.006711
0.016245,0.016746,0.017232,0.014280,0.007022,0.003910,0.006838
0.016313,0.016868,0.017075,0.014025,0.006918,0.003874,0.006961
0.016234,0.016703,0.016953,0.013800,0.006799,0.003938,0.007039
0.016358,0.016549,0.016914,0.013592,0.006662,0.004105,0.006995
0.016388,0.016275,0.016890,0.013386,0.006519,0.004141,0.007136
0.016279,0.015993,0.017001,0.013147,0.006492,0.004239,0.007158
0.016736,0.015550,0.016857,0.012810,0.006388,0.004438,0.007340
0.017052,0.015022,0.016733,0.012386,0.006311,0.004552,0.007744
0.016848,0.014493,0.016542,0.011945,0.006311,0.004808,0.008028
0.016604,0.013724,0.016712,0.011375,0.006292,0.005216,0.008338
0.016130,0.013012,0.017486,0.010767,0.006345,0.005478,0.008573
0.015793,0.012165,0.018282,0.010109,0.006422,0.005976,0.008708
0.015765,0.011364,0.019051,0.009391,0.006448,0.006443,0.008889
0.015654,0.010508,0.019946,0.008723,0.006515,0.007131,0.008991
0.015971,0.009598,0.020135,0.008136,0.006487,0.008009,0.009144
0.016319,0.008790,0.020358,0.007751,0.006436,0.008616,0.009320
0.016477,0.007999,0.020572,0.007475,0.006413,0.009227,0.009470
0.016601,0.007071,0.021051,0.007236,0.006418,0.009689,0.009853
0.016147,0.006191,0.021619,0.007150,0.006439,0.009977,0.010305
0.015512,0.005381,0.022114,0.007037,0.006482,0.010270,0.010712
0.014810,0.004716,0.022251,0.006985,0.006508,0.010432,0.011060
0.014174,0.004448,0.022281,0.006942,0.006565,0.010496,0.011046
0.013538,0.004349,0.022202,0.006913,0.006625,0.010526,0.010866
0.013002,0.004604,0.022054,0.006966,0.006697,0.010350,0.010702
0.012285,0.004951,0.021695,0.007116,0.006813,0.010133,0.010599
0.011699,0.005361,0.021249,0.007194,0.006924,0.010066,0.010299
0.011333,0.005518,0.020725,0.007261,0.006981,0.010185,0.009995
0.010912,0.005831,0.020337,0.007316,0.007074,0.010290,0.009547
0.010649,0.006300,0.019938,0.007372,0.007107,0.010409,0.009015
0.010438,0.006861,0.019677,0.007543,0.007116,0.010354,0.008638
0.010200,0.007509,0.019054,0.007894,0.007097,0.010124,0.008414
0.010213,0.007771,0.017815,0.008231,0.007006,0.010279,0.008302
0.010819,0.008070,0.016598,0.008584,0.006905,0.010285,0.008247
0.011548,0.008851,0.015600,0.009147,0.006841,0.010077,0.008098
0.012365,0.009562,0.014241,0.009664,0.007068,0.009818,0.007927
0.013172,0.010159,0.013432,0.010278,0.008389,0.009343,0.007697
0.014168,0.010494,0.012564,0.011042,0.010709,0.009164,0.007741
0.015560,0.010341,0.011606,0.011783,0.014743,0.009245,0.008188
0.016594,0.010285,0.010886,0.012938,0.018546,0.009311,0.008790
0.017526,0.010741,0.010359,0.013835,0.021497,0.009581,0.009452
0.017659,0.012692,0.009951,0.014503,0.024007,0.009955,0.010003
0.018474,0.015016,0.010083,0.014915,0.024826,0.010263,0.010330
0.019526,0.017011,0.010276,0.015015,0.025543,0.010540,0.010887
0.020580,0.018411,0.010470,0.015383,0.026184,0.010635,0.011465
0.021712,0.018548,0.010566,0.015632,0.026457,0.010783,0.011879
0.022698,0.018465,0.010577,0.015805,0.026449,0.010804,0.012120
0.023987,0.018142,0.010504,0.015811,0.026438,0.011015,0.012312
0.025176,0.018153,0.010517,0.015661,0.026269,0.011023,0.012530
0.026028,0.018201,0.010558,0.015494,0.026170,0.011069,0.012724
0.026425,0.018139,0.010549,0.015368,0.026134,0.011193,0.012926
0.026487,0.018104,0.010498,0.015108,0.026130,0.011333,0.013072
0.026736,0.017703,0.010395,0.014801,0.026114,0.011552,0.013243
0.026871,0.017448,0.010416,0.014652,0.026096,0.011442,0.013424
0.026681,0.017018,0.010313,0.014513,0.026051,0.011506,0.013705
0.026799,0.016097,0.010103,0.014173,0.025947,0.011928,0.014011
0.026679,0.015887,0.009891,0.013814,0.025530,0.012294,0.014342
0.025958,0.016076,0.009690,0.013274,0.024145,0.012533,0.014681
0.024737,0.016762,0.009614,0.012671,0.021778,0.012370,0.014684
0.023766,0.017219,0.009504,0.012096,0.017811,0.012589,0.014233
0.024204,0.017219,0.009019,0.011119,0.014021,0.013710,0.013358
0.025181,0.016693,0.008331,0.010279,0.011087,0.014800,0.012327
0.027044,0.014666,0.007664,0.009772,0.008507,0.015654,0.011550
0.026820,0.013336,0.007210,0.009472,0.007700,0.015439,0.010914
0.025886,0.011698,0.006747,0.009502,0.007153,0.015365,0.010289
0.025021,0.010252,0.006280,0.009301,0.006692,0.015582,0.009743
0.024113,0.009746,0.005848,0.009045,0.006609,0.015874,0.009311
0.023268,0.009648,0.005617,0.008822,0.006589,0.016071,0.009162
0.021949,0.010193,0.005669,0.008919,0.006630,0.015738,0.009072
0.020899,0.010628,0.005676,0.009135,0.006839,0.015464,0.008956
0.020281,0.010863,0.005687,0.009365,0.007006,0.015263,0.008837
0.020192,0.010995,0.005665,0.009463,0.007078,0.015247,0.008718
0.020366,0.010954,0.005653,0.009595,0.007088,0.015315,0.008660
0.020278,0.011250,0.005708,0.009657,0.007137,0.015279,0.008470
0.020109,0.011612,0.005716,0.009596,0.007189,0.015306,0.008268
0.019826,0.012159,0.005870,0.009603,0.007253,0.015015,0.007926
0.019032,0.012855,0.006053,0.009603,0.007328,0.014592,0.007560
0.018247,0.012994,0.006241,0.009723,0.007399,0.014134,0.007257
0.018364,0.012493,0.006308,0.009916,0.007398,0.014435,0.006901
0.018958,0.011401,0.006208,0.009957,0.007389,0.015149,0.006607
0.019364,0.011050,0.006215,0.009952,0.007218,0.015268,0.006448
0.019030,0.011945,0.006276,0.009987,0.007002,0.014993,0.006613
0.019311,0.013571,0.006417,0.010109,0.006670,0.014817,0.006936
0.020400,0.015319,0.006502,0.010329,0.006559,0.015545,0.007186
0.024593,0.016943,0.006374,0.010681,0.006527,0.017674,0.007453
0.029173,0.018848,0.006359,0.011088,0.006525,0.019497,0.007736
0.033402,0.021016,0.006656,0.011335,0.006973,0.020957,0.007876
0.037828,0.022822,0.006911,0.011661,0.007525,0.022582,0.007976
0.042671,0.023985,0.007102,0.011973,0.008279,0.024890,0.007871
0.047634,0.024772,0.007156,0.012148,0.009007,0.027570,0.007731
0.052060,0.024985,0.007333,0.012359,0.010008,0.029961,0.007647
0.056480,0.025245,0.007550,0.012555,0.011323,0.032128,0.007585
0.060794,0.025503,0.007774,0.012716,0.012902,0.034165,0.007507
0.064995,0.026490,0.007970,0.012616,0.014871,0.036046,0.007491
0.069093,0.028200,0.008309,0.012434,0.017059,0.037576,0.007452
0.073212,0.029843,0.008581,0.012341,0.019233,0.039113,0.007345
0.077332,0.030916,0.008581,0.012291,0.021558,0.040830,0.007292
0.081000,0.031718,0.008446,0.012108,0.024108,0.042638,0.007291
0.084102,0.032760,0.008278,0.011859,0.026801,0.044305,0.007429
0.086206,0.034296,0.008243,0.011591,0.029599,0.045243,0.007682
0.088137,0.035950,0.008266,0.011479,0.032584,0.046086,0.007920
0.089783,0.037720,0.008233,0.011605,0.035501,0.046931,0.008083
0.090974,0.038700,0.008197,0.011774,0.038301,0.047366,0.007953
0.091154,0.039172,0.008148,0.011927,0.041442,0.047353,0.007701
0.089912,0.039873,0.008093,0.011828,0.044647,0.045959,0.007451
0.086814,0.040142,0.007917,0.011632,0.047765,0.044280,0.007215
0.083648,0.040505,0.007611,0.011437,0.050477,0.042880,0.007077
0.080543,0.040812,0.007108,0.011363,0.052602,0.041797,0.007089
0.077397,0.041692,0.006707,0.011324,0.054484,0.040580,0.007191
0.074107,0.042211,0.006367,0.011348,0.056198,0.038991,0.007403
0.070983,0.042200,0.006059,0.011455,0.057698,0.037331,0.007608
0.068028,0.042723,0.005687,0.011531,0.058899,0.035795,0.007821
0.064428,0.043360,0.005405,0.011627,0.059574,0.034000,0.008054
0.060842,0.043845,0.005200,0.011826,0.060065,0.032063,0.008215
0.057359,0.043958,0.005067,0.012223,0.060251,0.030148,0.008221
0.054059,0.043453,0.004782,0.012702,0.060302,0.028629,0.008239
0.050661,0.043053,0.004527,0.013036,0.060297,0.027104,0.008335
0.047152,0.043456,0.004537,0.013180,0.060008,0.025477,0.008419
0.044082,0.044033,0.004664,0.013573,0.059425,0.023765,0.008537
0.041577,0.044201,0.004812,0.014174,0.058505,0.022169,0.008764
0.039301,0.044287,0.004953,0.014767,0.057588,0.020648,0.009042
0.036987,0.044279,0.005084,0.015283,0.056496,0.019137,0.009348
0.034605,0.044215,0.005231,0.015590,0.055452,0.017560,0.009660
0.032210,0.044178,0.005410,0.015875,0.054607,0.016011,0.009989
0.029876,0.043933,0.005503,0.016153,0.053470,0.014697,0.010329
0.027994,0.043442,0.005628,0.016699,0.051916,0.013787,0.010623
0.026294,0.042390,0.005783,0.017431,0.050514,0.013006,0.010903
0.024777,0.041276,0.005990,0.018202,0.049293,0.012161,0.011237
0.023432,0.040204,0.006109,0.019336,0.048131,0.011292,0.011617
0.021884,0.039191,0.006213,0.020898,0.046982,0.010370,0.012017
0.020102,0.038709,0.006234,0.022424,0.046125,0.009293,0.012560
0.018146,0.038724,0.006224,0.023917,0.045359,0.008240,0.013250
0.016311,0.038546,0.006184,0.025545,0.044488,0.007275,0.013964
0.015037,0.038107,0.006048,0.027581,0.043858,0.006681,0.014589
0.013817,0.037887,0.005874,0.029623,0.043392,0.006220,0.015180
0.012664,0.037571,0.005680,0.031911,0.042801,0.005829,0.015677
0.011529,0.037258,0.005478,0.034730,0.041981,0.005454,0.016233
0.010532,0.036894,0.005300,0.038133,0.041305,0.005129,0.016685
0.009662,0.036366,0.005100,0.041685,0.040732,0.004819,0.017179
0.008834,0.035710,0.004912,0.045051,0.040144,0.004501,0.017680
0.008011,0.035050,0.004722,0.048371,0.039768,0.004191,0.018100
0.007199,0.034409,0.004470,0.051719,0.039316,0.003934,0.018542
0.006346,0.033965,0.004179,0.055805,0.038555,0.003730,0.018966
0.005477,0.033610,0.003981,0.060253,0.037792,0.003558,0.019247
0.004642,0.033195,0.003875,0.064199,0.037120,0.003382,0.019488
0.004045,0.032575,0.003778,0.068137,0.036456,0.003311,0.019735
0.003641,0.031786,0.003694,0.071837,0.035681,0.003401,0.019919
0.003362,0.031065,0.003595,0.075407,0.034671,0.003497,0.020025
0.003157,0.030536,0.003481,0.078806,0.033743,0.003566,0.020172
0.003002,0.029886,0.003363,0.082006,0.032763,0.003630,0.020403
0.002895,0.029025,0.003243,0.084917,0.031693,0.003692,0.020697
0.002814,0.028359,0.003203,0.087518,0.030487,0.003746,0.020799
0.002767,0.027700,0.003195,0.089667,0.029357,0.003787,0.020739
0.002719,0.027118,0.003199,0.091593,0.028226,0.003830,0.020668
0.002655,0.026723,0.003213,0.093206,0.027014,0.003881,0.020582
0.002604,0.026402,0.003232,0.094834,0.025626,0.003948,0.020489
0.002568,0.026003,0.003260,0.096248,0.024290,0.004010,0.020424
0.002536,0.025583,0.003355,0.096850,0.023083,0.004056,0.020180
0.002548,0.025100,0.003492,0.095984,0.021867,0.004088,0.020070
0.002552,0.024553,0.003632,0.094737,0.020682,0.004119,0.019955
0.002569,0.024143,0.003797,0.093560,0.019552,0.004154,0.019723
0.002579,0.023958,0.004039,0.092139,0.018428,0.004185,0.019245
0.002568,0.023752,0.004401,0.090733,0.017310,0.004204,0.018615
0.002583,0.023432,0.004858,0.088575,0.016462,0.004209,0.017917
0.002637,0.022832,0.005345,0.085861,0.015597,0.004204,0.017235
0.002681,0.022318,0.005897,0.083015,0.014698,0.004199,0.016466
0.002712,0.022041,0.006494,0.079955,0.013868,0.004190,0.015595
0.002711,0.021796,0.007098,0.076941,0.013272,0.004183,0.014783
0.002707,0.021479,0.007753,0.073748,0.012711,0.004174,0.014076
0.002721,0.021084,0.008470,0.070336,0.012110,0.004155,0.013234
0.002802,0.020750,0.009347,0.066656,0.011636,0.004122,0.012276
0.002905,0.020466,0.010439,0.062684,0.011398,0.004125,0.011273
0.003080,0.020144,0.011544,0.058898,0.011176,0.004182,0.010369
0.003266,0.019874,0.012644,0.055499,0.010974,0.004266,0.009523
0.003568,0.019669,0.013727,0.052272,0.010859,0.004411,0.008661
0.003976,0.019470,0.014809,0.048987,0.010793,0.004541,0.007872
0.004407,0.019173,0.015862,0.045723,0.010741,0.004655,0.007200
0.004853,0.018745,0.016873,0.042373,0.010728,0.004774,0.006714
0.005332,0.018246,0.017795,0.039266,0.010751,0.004893,0.006378
0.005817,0.017743,0.018654,0.037093,0.010679,0.005013,0.006003
0.006319,0.017309,0.019516,0.035364,0.010582,0.005126,0.005579
0.006825,0.016871,0.020350,0.033555,0.010510,0.005234,0.005221
0.007312,0.016356,0.021202,0.031776,0.010420,0.005356,0.004961
0.007811,0.015988,0.021990,0.029848,0.010335,0.005485,0.004767
0.008310,0.015827,0.022689,0.027940,0.010261,0.005620,0.004652
0.008793,0.015826,0.023276,0.026244,0.010238,0.005762,0.004672
0.009261,0.015766,0.023485,0.025094,0.010189,0.005937,0.004782
0.009813,0.015710,0.023666,0.024175,0.010112,0.006081,0.004916
0.010528,0.015881,0.023805,0.023208,0.010033,0.006106,0.005058
0.011098,0.016169,0.023898,0.022405,0.009943,0.006122,0.005182
0.011829,0.016597,0.024004,0.021929,0.009783,0.006121,0.005284
0.012510,0.017066,0.023962,0.021569,0.009593,0.006120,0.005370
0.013150,0.017728,0.023679,0.021355,0.009372,0.006074,0.005411
0.013955,0.018496,0.023341,0.021053,0.009125,0.005929,0.005451
0.014879,0.019398,0.022940,0.020708,0.008869,0.005735,0.005471
0.015785,0.020394,0.022451,0.020405,0.008619,0.005523,0.005480
0.016775,0.021229,0.021918,0.020091,0.008332,0.005335,0.005494
0.017756,0.022043,0.021398,0.019764,0.008026,0.005161,0.005482
0.018668,0.022993,0.020883,0.019628,0.007704,0.004898,0.005441
0.019402,0.024147,0.020346,0.019572,0.007383,0.004626,0.005388
0.019926,0.025249,0.019810,0.019609,0.007161,0.004405,0.005310
0.020419,0.026357,0.019251,0.019466,0.006972,0.004197,0.005260
0.020684,0.027244,0.018711,0.019217,0.006836,0.004041,0.005210
0.020965,0.028105,0.018091,0.019053,0.006714,0.003877,0.005158
0.021206,0.028798,0.017485,0.019021,0.006602,0.003721,0.005099
0.021213,0.029407,0.016896,0.018981,0.006537,0.003614,0.005020
0.021187,0.029972,0.016383,0.018947,0.006457,0.003510,0.004936
0.021207,0.030625,0.016261,0.018991,0.006371,0.003285,0.004866
0.021143,0.031276,0.016153,0.019014,0.006312,0.003034,0.004826
0.020963,0.031724,0.016034,0.019001,0.006292,0.002880,0.004808
0.020980,0.032014,0.015885,0.018885,0.006258,0.002725,0.004837
0.021107,0.031922,0.015633,0.018683,0.006280,0.002627,0.004889
0.021509,0.031736,0.015376,0.018387,0.006294,0.002500,0.004980
0.021958,0.031390,0.015174,0.018113,0.006320,0.002359,0.005096
0.022178,0.030942,0.014963,0.018027,0.006326,0.002254,0.005300
0.022301,0.030386,0.014826,0.017979,0.006322,0.002161,0.005552
0.022300,0.029895,0.014833,0.017842,0.006331,0.002035,0.005855
0.022062,0.029398,0.014876,0.017679,0.006372,0.001915,0.006195
0.021929,0.028810,0.014877,0.017478,0.006400,0.001817,0.006540
0.021895,0.027999,0.014842,0.017053,0.006432,0.001867,0.006914
0.021909,0.027045,0.014857,0.016585,0.006447,0.001966,0.007271
0.022165,0.026115,0.014890,0.016057,0.006405,0.002041,0.007627
0.022492,0.025082,0.014955,0.015615,0.006350,0.002192,0.007946
0.022938,0.024185,0.015040,0.015324,0.006211,0.002380,0.008255
0.023291,0.023347,0.015150,0.015021,0.006058,0.002614,0.008546
0.023660,0.022641,0.015198,0.014675,0.005902,0.002842,0.008808
0.024213,0.022020,0.015293,0.014283,0.005748,0.003029,0.008980
0.024735,0.021427,0.015369,0.013914,0.005618,0.003229,0.009095
0.025203,0.020750,0.015400,0.013449,0.005499,0.003524,0.009157
0.025648,0.020002,0.015407,0.013000,0.005374,0.003890,0.009233
0.026134,0.019404,0.015481,0.012609,0.005276,0.004194,0.009294
0.026555,0.018937,0.015533,0.012274,0.005191,0.004450,0.009347
0.026658,0.018780,0.015722,0.012034,0.005094,0.004675,0.009421
0.026383,0.018757,0.015933,0.011846,0.005032,0.004955,0.009495
0.026072,0.018716,0.016065,0.011608,0.004987,0.005337,0.009558
0.025506,0.018798,0.016229,0.011354,0.005012,0.005684,0.009503
0.024832,0.018945,0.016321,0.011138,0.005055,0.006036,0.009484
0.024178,0.018949,0.016406,0.010929,0.005095,0.006417,0.009441
0.023638,0.019127,0.016454,0.010720,0.005105,0.006782,0.009377
0.023009,0.019395,0.016499,0.010460,0.005145,0.007107,0.009331
0.022382,0.019729,0.016505,0.010349,0.005184,0.007365,0.009269
0.021827,0.020121,0.016569,0.010275,0.005221,0.007587,0.009183
0.020936,0.020427,0.016660,0.010178,0.005293,0.007857,0.009120
0.019916,0.020638,0.016702,0.010041,0.005378,0.008081,0.009174
0.019055,0.020768,0.016602,0.009908,0.005501,0.008315,0.009261
0.018276,0.020942,0.016495,0.009797,0.005616,0.008483,0.009357
0.017405,0.021262,0.016512,0.009688,0.005701,0.008503,0.009529
0.016561,0.021550,0.016530,0.009669,0.005735,0.008628,0.009784
0.015784,0.021781,0.016549,0.009620,0.005760,0.008733,0.010008
0.014985,0.022227,0.016559,0.009568,0.005780,0.008808,0.010276
0.014237,0.022435,0.016450,0.009546,0.005714,0.008873,0.010933
0.013430,0.022353,0.016263,0.009530,0.005605,0.009014,0.011769
0.012635,0.022197,0.016114,0.009575,0.005491,0.009206,0.012588
0.011899,0.022013,0.015832,0.009555,0.005367,0.009383,0.013397
0.011249,0.021920,0.015551,0.009631,0.005203,0.009543,0.014215
0.010564,0.022095,0.015329,0.009720,0.005025,0.009589,0.014951
0.010065,0.022174,0.015121,0.009850,0.004845,0.009582,0.015635
0.009634,0.022084,0.014933,0.010009,0.004684,0.009571,0.016220
0.009248,0.021956,0.014622,0.010224,0.004565,0.009634,0.016726
0.008845,0.021670,0.014295,0.010385,0.004471,0.009682,0.017225
0.008370,0.021821,0.014028,0.010670,0.004358,0.009764,0.017726
0.007887,0.021874,0.013793,0.010961,0.004256,0.009835,0.018203
0.007404,0.022103,0.013598,0.011282,0.004238,0.009941,0.018240
0.007288,0.022513,0.013386,0.011624,0.004199,0.010049,0.018119
0.007421,0.023046,0.013163,0.011964,0.004123,0.010294,0.017884
0.007479,0.023609,0.013015,0.012294,0.004061,0.010461,0.017587
0.007550,0.024064,0.012810,0.012558,0.004050,0.010643,0.017237
