"1 Chan 1","2 Chan 2","3 Chan 3","4 Chan 4","5 Chan 5","6 Chan 6","7 Chan 7"
0.000899,0.033466,0.002251,0.031648,0.026929,0.013494,0.0115190
0.000709,0.030554,0.002278,0.030184,0.026601,0.013250,0.0120795
0.000670,0.028048,0.002284,0.028278,0.026089,0.013042,0.0126746
0.000620,0.025744,0.002275,0.026117,0.025531,0.012846,0.0132962
0.000698,0.023513,0.002234,0.023566,0.024773,0.012696,0.0140080
0.000794,0.021431,0.002158,0.021335,0.023711,0.012553,0.0148648
0.000858,0.020026,0.002085,0.019782,0.022610,0.012373,0.0153469
0.000950,0.018803,0.002024,0.018360,0.021651,0.012089,0.0156690
0.000979,0.017608,0.001961,0.016953,0.020788,0.011805,0.0159573
0.001015,0.016310,0.001899,0.015612,0.019961,0.011533,0.0161849
0.001059,0.015015,0.001831,0.014291,0.019188,0.011293,0.0164506
0.001121,0.013988,0.001767,0.012998,0.018422,0.011111,0.0165347
0.001256,0.013095,0.001694,0.011702,0.017589,0.010985,0.0167557
0.001391,0.012011,0.001598,0.010765,0.016740,0.011026,0.0170458
0.001538,0.011022,0.001517,0.009771,0.016416,0.011148,0.0171980
0.001694,0.010216,0.001494,0.009478,0.016313,0.011179,0.0173169
0.001791,0.009792,0.001477,0.009337,0.016244,0.011261,0.0174424
0.001879,0.009630,0.001455,0.009084,0.016209,0.011334,0.0176001
0.001910,0.009728,0.001430,0.008799,0.016271,0.011390,0.0175730
0.001935,0.009757,0.001412,0.008396,0.016256,0.011418,0.0176928
0.001996,0.009610,0.001373,0.008032,0.015942,0.011529,0.0179766
0.002062,0.009739,0.001346,0.007625,0.015635,0.011659,0.0181148
0.002132,0.009821,0.001317,0.007210,0.015349,0.011692,0.0183053
0.002116,0.009772,0.001291,0.007111,0.015012,0.011713,0.0185850
0.002073,0.009583,0.001259,0.007169,0.014659,0.011739,0.0191393
0.002041,0.009515,0.001241,0.007157,0.014477,0.011766,0.0194281
0.002025,0.009552,0.001238,0.006949,0.014547,0.011750,0.0194760
0.002057,0.009277,0.001228,0.006811,0.014526,0.011707,0.0197580
0.002067,0.008787,0.001209,0.006719,0.014363,0.011775,0.0200263
0.002177,0.008322,0.001202,0.006367,0.014292,0.011797,0.0201343
0.002259,0.008087,0.001197,0.006007,0.014186,0.011762,0.0202007
0.002340,0.007780,0.001199,0.005682,0.014054,0.011738,0.0202864
0.002396,0.007475,0.001192,0.005478,0.013916,0.011688,0.0204879
0.002362,0.007452,0.001191,0.005212,0.013869,0.011654,0.0204516
0.002337,0.007561,0.001189,0.004872,0.013997,0.011548,0.0204274
0.002263,0.007728,0.001189,0.004701,0.014191,0.011496,0.0203611
0.002172,0.007869,0.001187,0.004644,0.014427,0.011526,0.0201820
0.002106,0.007913,0.001167,0.004520,0.014626,0.011519,0.0201275
0.002051,0.008036,0.001177,0.004322,0.014844,0.011524,0.0198715
0.002036,0.007800,0.001187,0.004277,0.014980,0.011531,0.0199670
0.002049,0.007793,0.001232,0.004182,0.015118,0.011555,0.0198733
0.002054,0.007789,0.001290,0.004046,0.015232,0.011543,0.0199201
0.002073,0.007793,0.001351,0.003810,0.015391,0.011533,0.0198153
0.002073,0.007963,0.001423,0.003567,0.015578,0.011601,0.0195116
0.002117,0.008247,0.001573,0.003080,0.015796,0.011663,0.0191052
0.002179,0.008811,0.001733,0.002382,0.016162,0.011765,0.0181856
0.002178,0.009464,0.001878,0.001826,0.016393,0.011863,0.0172853
0.002153,0.010037,0.002026,0.001444,0.016560,0.011952,0.0163497
0.002140,0.010520,0.002187,0.001103,0.016763,0.012008,0.0155170
0.002125,0.010839,0.002367,0.000837,0.017017,0.012000,0.0149223
0.002036,0.011351,0.002460,0.000790,0.017164,0.012037,0.0144615
0.001975,0.011598,0.002545,0.000790,0.017272,0.012121,0.0141339
0.001912,0.012057,0.002618,0.000725,0.017403,0.012204,0.0137714
0.001846,0.012588,0.002683,0.000666,0.017584,0.012304,0.0133801
0.001782,0.013116,0.002737,0.000664,0.017767,0.012379,0.0130830
0.001671,0.014104,0.002779,0.000638,0.017881,0.012502,0.0125544
0.001567,0.014984,0.002820,0.000638,0.017941,0.012608,0.0121251
0.001454,0.016218,0.002857,0.000625,0.017987,0.012618,0.0117411
0.001338,0.017333,0.002914,0.000625,0.018064,0.012705,0.0114477
0.001230,0.018442,0.002954,0.000592,0.018100,0.012760,0.0112066
0.001099,0.020045,0.003050,0.000484,0.018090,0.012827,0.0109728
0.000968,0.021344,0.003150,0.000460,0.018060,0.012841,0.0108728
0.000865,0.022720,0.003304,0.000317,0.018123,0.012853,0.0106763
0.000761,0.023891,0.003464,0.000256,0.018208,0.012875,0.0105555
0.000679,0.025117,0.003619,0.000153,0.018226,0.012792,0.0103658
0.000590,0.026413,0.003688,0.000063,0.018208,0.012761,0.0102749
0.000528,0.027252,0.003688,0.000000,0.018133,0.012725,0.0102024
0.000482,0.028001,0.003623,0.000000,0.018164,0.012717,0.0103490
0.000427,0.028734,0.003499,0.000000,0.018177,0.012731,0.0105161
0.000345,0.029544,0.003373,0.000000,0.018107,0.012762,0.0106741
0.000258,0.030647,0.003210,0.000000,0.018037,0.012893,0.0107337
0.000207,0.031587,0.003136,0.000000,0.018044,0.012980,0.0107297
0.000150,0.032716,0.003071,0.000000,0.018151,0.013060,0.0106756
0.000089,0.033908,0.003010,0.000000,0.018262,0.013162,0.0106077
0.000037,0.034922,0.003034,0.000000,0.018258,0.013213,0.0105835
0.000000,0.035604,0.003126,0.000000,0.018194,0.013212,0.0106863
0.000000,0.035712,0.003334,0.000000,0.018113,0.013127,0.0109465
0.000000,0.035626,0.003602,0.000000,0.017913,0.012993,0.0111639
0.000000,0.035200,0.003922,0.000000,0.017653,0.012864,0.0114345
0.000025,0.034884,0.004245,0.000000,0.017321,0.012650,0.0114513
0.000084,0.034481,0.004582,0.000000,0.017082,0.012481,0.0114042
0.000149,0.033966,0.004918,0.000000,0.016882,0.012362,0.0109633
0.000218,0.033554,0.005122,0.000000,0.016720,0.012282,0.0104425
0.000303,0.033100,0.005218,0.000000,0.016604,0.012219,0.0099408
0.000431,0.032546,0.005263,0.000000,0.016517,0.012182,0.0094006
0.000631,0.031396,0.005382,0.000000,0.016500,0.012237,0.0090329
0.000818,0.030227,0.005509,0.000000,0.016505,0.012235,0.0085998
0.001054,0.029551,0.005900,0.000000,0.016593,0.012184,0.0083943
0.001429,0.028926,0.007010,0.000000,0.016637,0.012131,0.0080609
0.001830,0.028346,0.008377,0.000000,0.017039,0.012169,0.0077375
0.002242,0.028242,0.010123,0.000000,0.017795,0.012248,0.0073360
0.002658,0.027869,0.011897,0.000000,0.018551,0.012252,0.0069363
0.003093,0.027415,0.013634,0.000000,0.019280,0.012311,0.0066602
0.003535,0.026798,0.015365,0.000000,0.020043,0.012382,0.0064120
0.003973,0.026074,0.017169,0.000000,0.021028,0.012394,0.0061760
0.004409,0.025451,0.018987,0.000000,0.022319,0.012437,0.0059189
0.004880,0.024961,0.020869,0.000000,0.023781,0.012578,0.0056007
0.005394,0.024560,0.022660,0.000000,0.025473,0.012778,0.0052342
0.005926,0.024281,0.024472,0.000000,0.027425,0.013028,0.0048935
0.006341,0.024086,0.026093,0.000000,0.029520,0.013309,0.0045732
0.006702,0.023857,0.027553,0.000000,0.031809,0.013578,0.0044128
0.007034,0.023594,0.028831,0.000000,0.034167,0.013814,0.0043848
0.007404,0.023100,0.029725,0.000000,0.037003,0.013954,0.0045942
0.007786,0.022555,0.030768,0.000000,0.040397,0.013995,0.0049197
0.008114,0.021919,0.031831,0.000268,0.043873,0.013988,0.0052913
0.008485,0.021510,0.032851,0.000886,0.047215,0.013918,0.0057576
0.008491,0.021373,0.033567,0.002579,0.050827,0.013739,0.0062607
0.008304,0.021075,0.034321,0.005178,0.054495,0.013505,0.0067023
0.008068,0.020440,0.034990,0.007865,0.058387,0.013279,0.0071054
0.007693,0.019616,0.035065,0.010565,0.062355,0.012994,0.0076032
0.007292,0.018732,0.034954,0.013247,0.066001,0.012611,0.0081628
0.006880,0.017352,0.034333,0.015945,0.069526,0.012213,0.0087269
0.006464,0.015960,0.033582,0.018857,0.073030,0.011814,0.0092630
0.006029,0.014655,0.032653,0.022293,0.076386,0.011345,0.0097021
0.005587,0.013430,0.031553,0.026145,0.079845,0.010827,0.0101004
0.005149,0.012108,0.030288,0.030145,0.083315,0.010324,0.0104628
0.004713,0.010663,0.028986,0.034264,0.086796,0.009800,0.0108549
0.004243,0.009350,0.027623,0.038485,0.090145,0.009258,0.0111303
0.003729,0.008326,0.026256,0.043007,0.093393,0.008719,0.0112915
0.003399,0.007536,0.024796,0.047075,0.096486,0.008196,0.0114675
0.003552,0.006910,0.023409,0.050037,0.098927,0.007722,0.0116119
0.003792,0.006617,0.022160,0.052741,0.101067,0.007314,0.0115499
0.004061,0.006448,0.021089,0.055256,0.103229,0.006937,0.0113145
0.004213,0.006223,0.020319,0.058065,0.105083,0.006564,0.0110817
0.004393,0.006140,0.019454,0.060603,0.106038,0.006291,0.0108243
0.004663,0.006282,0.018498,0.062614,0.106766,0.006062,0.0104980
0.004897,0.006473,0.017520,0.064163,0.107519,0.005874,0.0100995
0.005447,0.006941,0.016747,0.064840,0.107910,0.005741,0.0096880
0.006392,0.007627,0.015903,0.064782,0.108068,0.005656,0.0092738
0.007336,0.008460,0.014930,0.065117,0.107916,0.005551,0.0088644
0.008326,0.009532,0.013901,0.066312,0.107480,0.005400,0.0084193
0.009356,0.010605,0.012856,0.067439,0.106876,0.005262,0.0079658
0.010330,0.011709,0.011931,0.068412,0.105855,0.005103,0.0075786
0.011356,0.012854,0.011077,0.068749,0.104595,0.004976,0.0071386
0.012434,0.013850,0.010313,0.068289,0.103408,0.004908,0.0068071
0.013491,0.014773,0.009712,0.067371,0.101743,0.004895,0.0065031
0.014444,0.015795,0.009196,0.066719,0.099580,0.004880,0.0061859
0.015151,0.016987,0.008608,0.067223,0.096849,0.004800,0.0058063
0.015934,0.018079,0.007958,0.068069,0.094150,0.004701,0.0054355
0.016902,0.018893,0.007310,0.068143,0.091374,0.004619,0.0051902
0.018007,0.019545,0.006665,0.067537,0.088224,0.004578,0.0049320
0.018910,0.020062,0.006083,0.068117,0.085466,0.004472,0.0046400
0.019778,0.020366,0.005508,0.069525,0.082945,0.004319,0.0044055
0.020706,0.020698,0.004925,0.071542,0.080143,0.004117,0.0042498
0.022051,0.021203,0.004364,0.072838,0.077308,0.003976,0.0040825
0.023425,0.021690,0.003844,0.074102,0.074809,0.003859,0.0039085
0.024873,0.022233,0.003435,0.075913,0.072143,0.003724,0.0036870
0.026404,0.022708,0.003135,0.077277,0.069422,0.003620,0.0034763
0.028026,0.023080,0.002859,0.077602,0.066742,0.003596,0.0032874
0.029504,0.023684,0.002614,0.078619,0.063861,0.003524,0.0030872
0.031112,0.024587,0.002381,0.079442,0.060782,0.003467,0.0028844
0.032952,0.025454,0.002147,0.079509,0.057723,0.003471,0.0026908
0.034942,0.026598,0.001904,0.080124,0.054676,0.003427,0.0024897
0.036948,0.027630,0.001666,0.080873,0.051901,0.003367,0.0022777
0.039018,0.028557,0.001472,0.080890,0.049608,0.003371,0.0021679
0.041233,0.029607,0.001386,0.080249,0.047242,0.003443,0.0020580
0.043359,0.030849,0.001308,0.079640,0.045041,0.003509,0.0019457
0.045468,0.032708,0.001224,0.080526,0.042490,0.003455,0.0018267
0.047706,0.034588,0.001165,0.080425,0.040121,0.003465,0.0017355
0.049980,0.036622,0.001104,0.079344,0.037585,0.003531,0.0016746
0.052020,0.038731,0.001036,0.078275,0.035068,0.003663,0.0016087
0.053612,0.040743,0.000971,0.078084,0.033029,0.003766,0.0015378
0.054873,0.042711,0.000922,0.078185,0.031118,0.003840,0.0014872
0.055977,0.044687,0.000882,0.077616,0.029047,0.003960,0.0014909
0.056788,0.047119,0.000841,0.075974,0.027185,0.004145,0.0015258
0.057119,0.049668,0.000804,0.074340,0.025315,0.004316,0.0015735
0.057320,0.052230,0.000766,0.073367,0.023367,0.004470,0.0016054
0.057264,0.054609,0.000740,0.071751,0.021750,0.004697,0.0016394
0.056889,0.057381,0.000710,0.070450,0.020190,0.004899,0.0016755
0.056112,0.060470,0.000684,0.069932,0.018698,0.005074,0.0016938
0.055243,0.063382,0.000671,0.068328,0.017588,0.005360,0.0017418
0.054196,0.066170,0.000660,0.067619,0.016413,0.005587,0.0017897
0.052613,0.069093,0.000646,0.067827,0.015217,0.005773,0.0018206
0.050825,0.071966,0.000627,0.068465,0.014182,0.005928,0.0018538
0.048873,0.074720,0.000612,0.068995,0.013596,0.006105,0.0018901
0.046656,0.077426,0.000604,0.070168,0.013065,0.006228,0.0019072
0.044121,0.079965,0.000600,0.072093,0.012631,0.006337,0.0019185
0.041621,0.082344,0.000604,0.074099,0.012255,0.006465,0.0019471
0.039140,0.084170,0.000625,0.074471,0.012400,0.006686,0.0020041
0.036668,0.085850,0.000641,0.074421,0.012557,0.006960,0.0020675
0.033995,0.087402,0.000659,0.074549,0.012924,0.007258,0.0021210
0.031383,0.088483,0.000681,0.075204,0.013338,0.007482,0.0021626
0.028864,0.089237,0.000711,0.076282,0.013636,0.007676,0.0022148
0.026452,0.089878,0.000782,0.076897,0.013961,0.007877,0.0023331
0.024084,0.090317,0.000864,0.077008,0.014475,0.008093,0.0024791
0.021939,0.089841,0.000952,0.077720,0.014925,0.008296,0.0026407
0.019964,0.088646,0.001050,0.079044,0.015238,0.008445,0.0027814
0.017991,0.087157,0.001146,0.079736,0.015720,0.008613,0.0029803
0.016073,0.085533,0.001240,0.080345,0.016259,0.008749,0.0032031
0.014240,0.083278,0.001337,0.080564,0.016957,0.008913,0.0035537
0.012644,0.080383,0.001438,0.080089,0.017721,0.009088,0.0039523
0.011164,0.076932,0.001535,0.078841,0.017995,0.009297,0.0044459
0.009800,0.073094,0.001643,0.076067,0.018557,0.009489,0.0049992
0.008710,0.068780,0.001745,0.072312,0.019157,0.009654,0.0059107
0.007623,0.064141,0.001808,0.067820,0.019657,0.009903,0.0068021
0.006727,0.059609,0.001876,0.063265,0.019677,0.010151,0.0076511
0.005997,0.055113,0.001932,0.059140,0.019357,0.010394,0.0084217
0.005385,0.050680,0.001982,0.055369,0.019104,0.010565,0.0092435
0.004889,0.046095,0.002019,0.051450,0.018896,0.010712,0.0101263
0.004464,0.041467,0.002110,0.047223,0.018771,0.010891,0.0109508
0.004129,0.036774,0.002191,0.043188,0.018736,0.011056,0.0118320
0.003894,0.032101,0.002255,0.039497,0.018630,0.011111,0.0127527
0.003645,0.027926,0.002328,0.035763,0.018469,0.011107,0.0137318
0.003371,0.024149,0.002405,0.031749,0.018420,0.011102,0.0146420
0.003137,0.020552,0.002440,0.027885,0.018264,0.011156,0.0154547
0.002972,0.017019,0.002401,0.024767,0.017965,0.011193,0.0162679
0.002819,0.013978,0.002368,0.021604,0.017729,0.011163,0.0169991
0.002628,0.011638,0.002327,0.018210,0.017541,0.011167,0.0177568
0.002459,0.009577,0.002268,0.015198,0.017192,0.011250,0.0185086
0.002434,0.007893,0.002211,0.012376,0.016682,0.011322,0.0191177
0.002500,0.006596,0.002145,0.010153,0.016088,0.011387,0.0194908
0.002634,0.005738,0.002071,0.008612,0.015411,0.011437,0.0197870
0.002687,0.005505,0.002003,0.008023,0.015264,0.011439,0.0198704
0.002632,0.005274,0.001915,0.007998,0.015016,0.011514,0.0201715
0.002569,0.005677,0.001863,0.007665,0.014991,0.011619,0.0200653
0.002478,0.006151,0.001860,0.007255,0.015035,0.011731,0.0200224
0.002403,0.006703,0.001846,0.007089,0.015072,0.011787,0.0200684
0.002299,0.007146,0.001839,0.007132,0.015165,0.011764,0.0203951
0.002222,0.007567,0.001845,0.006973,0.015156,0.011764,0.0205429
0.002085,0.008115,0.001847,0.006920,0.015182,0.011808,0.0205750
0.002017,0.008434,0.001796,0.006888,0.015226,0.011844,0.0205069
0.001990,0.008897,0.001768,0.006734,0.015254,0.011825,0.0203274
0.001922,0.009185,0.001741,0.006768,0.015219,0.011822,0.0203412
0.001838,0.009329,0.001683,0.006852,0.015117,0.011836,0.0204457
0.001771,0.009432,0.001602,0.007154,0.014924,0.011836,0.0207577
0.001769,0.009644,0.001528,0.007135,0.014876,0.011750,0.0209641
0.001800,0.009732,0.001501,0.007071,0.014763,0.011617,0.0213707
0.001755,0.009691,0.001443,0.007273,0.014562,0.011479,0.0221249
0.001735,0.009547,0.001398,0.007481,0.014354,0.011437,0.0226543
0.001767,0.009401,0.001381,0.007559,0.014257,0.011286,0.0230344
0.001795,0.009342,0.001370,0.007523,0.014229,0.011164,0.0231625
0.001785,0.009114,0.001377,0.007694,0.014140,0.011045,0.0233837
0.001727,0.008866,0.001392,0.007983,0.014040,0.010947,0.0236168
0.001709,0.008714,0.001423,0.007962,0.013992,0.010872,0.0236024
0.001700,0.008498,0.001441,0.007947,0.014029,0.010730,0.0236116
0.001654,0.007868,0.001432,0.008157,0.014077,0.010669,0.0236860
0.001606,0.007330,0.001429,0.008394,0.014065,0.010604,0.0237047
0.001602,0.006978,0.001421,0.008346,0.014080,0.010610,0.0236290
0.001633,0.006847,0.001430,0.008044,0.014131,0.010622,0.0233272
0.001630,0.006697,0.001449,0.007916,0.014212,0.010628,0.0232120
0.001666,0.006740,0.001513,0.007564,0.014292,0.010643,0.0228466
0.001578,0.006290,0.001525,0.007968,0.013966,0.011708,0.0225030
0.001467,0.005767,0.001515,0.008432,0.013668,0.013043,0.0224030
0.001384,0.005475,0.001519,0.008654,0.013452,0.014392,0.0221178
0.001322,0.005332,0.001551,0.008806,0.013277,0.015832,0.0216213
0.001284,0.005229,0.001532,0.008855,0.013109,0.017352,0.0208265
0.001200,0.004933,0.001481,0.009193,0.012885,0.019155,0.0202294
0.001103,0.004844,0.001476,0.009354,0.012893,0.020663,0.0192820
0.001046,0.006226,0.001543,0.008714,0.013150,0.021382,0.0178636
0.000988,0.007370,0.001569,0.008106,0.013372,0.022235,0.0167315
0.000900,0.008631,0.001585,0.007517,0.013598,0.023105,0.0157905
0.000740,0.009643,0.001580,0.007292,0.013783,0.023998,0.0152288
0.000627,0.010810,0.001579,0.006897,0.014052,0.024530,0.0147160
0.000547,0.011964,0.001543,0.006446,0.014263,0.025433,0.0141805
0.000526,0.012140,0.001555,0.006351,0.014342,0.026352,0.0139945
0.000523,0.012768,0.001640,0.006029,0.014458,0.027107,0.0133905
0.000583,0.013147,0.001930,0.005737,0.014419,0.027839,0.0128077
0.000742,0.013052,0.002351,0.005338,0.014361,0.028728,0.0123286
0.000814,0.013082,0.002895,0.005159,0.014269,0.029650,0.0119031
0.000737,0.012488,0.003385,0.005803,0.013954,0.031206,0.0114468
0.000687,0.012307,0.003784,0.006069,0.013727,0.032859,0.0109346
0.000602,0.012088,0.004155,0.006495,0.013511,0.034406,0.0107431
0.000602,0.012785,0.004474,0.006044,0.013797,0.034908,0.0106456
0.000602,0.012798,0.004793,0.006016,0.013895,0.035883,0.0102150
0.000602,0.012835,0.004903,0.006004,0.014036,0.036621,0.0097348
0.000602,0.013733,0.005031,0.005539,0.014234,0.036948,0.0094342
0.000602,0.014354,0.005268,0.005230,0.014405,0.036778,0.0092854
0.000602,0.014586,0.005533,0.005100,0.014559,0.036299,0.0091422
0.000602,0.014816,0.005821,0.005113,0.014385,0.036167,0.0091388
0.000602,0.014023,0.005993,0.005533,0.014147,0.036261,0.0095123
0.000583,0.013398,0.006188,0.006040,0.013895,0.036120,0.0097775
0.000576,0.012835,0.006387,0.006399,0.013635,0.035778,0.0099166
0.000576,0.012164,0.006675,0.006791,0.013392,0.035391,0.0100216
0.000694,0.011373,0.007007,0.006791,0.013145,0.035391,0.0100639
0.000823,0.010393,0.007280,0.006791,0.012999,0.034954,0.0101440
0.000831,0.010343,0.007411,0.006791,0.012909,0.034416,0.0101372
0.000859,0.010049,0.007499,0.006791,0.012752,0.034157,0.0102336
0.000860,0.009906,0.007506,0.006791,0.012674,0.033467,0.0103154
0.000827,0.010165,0.007292,0.006791,0.012703,0.032565,0.0103415
0.000811,0.010206,0.006987,0.006791,0.012716,0.031591,0.0103009
0.000882,0.011197,0.006674,0.006089,0.012945,0.030021,0.0102461
0.000906,0.012250,0.006424,0.005622,0.013154,0.028405,0.0101190
0.000936,0.013178,0.006176,0.005190,0.013317,0.026830,0.0099462
0.000945,0.014036,0.006040,0.004888,0.013404,0.025240,0.0098218
0.001006,0.015669,0.005992,0.004171,0.013690,0.022910,0.0098017
0.001205,0.017294,0.006327,0.003504,0.013888,0.020858,0.0098715
0.001492,0.017820,0.007207,0.003285,0.013925,0.019188,0.0097985
0.001827,0.018183,0.008171,0.002907,0.013961,0.017978,0.0098041
0.001987,0.019001,0.009645,0.002906,0.013943,0.016842,0.0097579
0.002104,0.019713,0.011254,0.003123,0.014049,0.015705,0.0097204
0.002213,0.019964,0.013174,0.003701,0.014226,0.015181,0.0096896
0.002308,0.020037,0.015153,0.004216,0.014562,0.014644,0.0098606
0.002308,0.019691,0.017203,0.005308,0.014762,0.014266,0.0102660
0.002308,0.019302,0.019178,0.006699,0.014997,0.013830,0.0107915
0.002189,0.018799,0.020941,0.008433,0.015451,0.013347,0.0114390
0.002060,0.018540,0.022533,0.010320,0.016177,0.012957,0.0120553
0.002247,0.017956,0.024253,0.011382,0.017463,0.012669,0.0126942
0.002495,0.017291,0.025937,0.012383,0.019196,0.012297,0.0133944
0.002669,0.016703,0.027646,0.013799,0.021064,0.012325,0.0141191
0.002877,0.016150,0.029204,0.015071,0.023436,0.012369,0.0147816
0.003128,0.015508,0.030601,0.016371,0.026062,0.012377,0.0156836
0.003397,0.014517,0.032112,0.017747,0.028779,0.012373,0.0167919
0.003545,0.013147,0.033521,0.019627,0.031754,0.012283,0.0179015
0.003611,0.011751,0.034862,0.022453,0.035048,0.012128,0.0189876
0.003785,0.010196,0.035999,0.025416,0.038540,0.012004,0.0198533
0.003904,0.008550,0.036968,0.028261,0.042139,0.011919,0.0207009
0.003956,0.006923,0.037626,0.030774,0.045919,0.011829,0.0211989
0.003873,0.005526,0.037670,0.033628,0.050062,0.011644,0.0216858
0.003717,0.004736,0.037597,0.036628,0.054125,0.011361,0.0219436
0.003601,0.003782,0.036830,0.039320,0.058054,0.010982,0.0221922
0.003484,0.002840,0.035839,0.042207,0.062241,0.010532,0.0224267
0.003375,0.002011,0.034576,0.044992,0.066177,0.010093,0.0224380
0.003281,0.001420,0.033127,0.047658,0.070412,0.009629,0.0222232
0.003281,0.001053,0.031543,0.050096,0.074663,0.009185,0.0218588
0.003281,0.001052,0.029791,0.052785,0.078781,0.008764,0.0212137
0.003302,0.001406,0.028141,0.055509,0.082453,0.008329,0.0203882
0.003512,0.001747,0.026655,0.057533,0.085536,0.007850,0.0195934
0.003503,0.002090,0.025113,0.059400,0.087955,0.007373,0.0188807
0.003373,0.002429,0.023618,0.061352,0.090295,0.006960,0.0180564
0.003427,0.002678,0.021924,0.062453,0.092567,0.006599,0.0172288
0.003462,0.002995,0.020406,0.063687,0.094103,0.006245,0.0164581
0.003558,0.003481,0.019008,0.065164,0.095074,0.005926,0.0154489
0.003660,0.003978,0.017555,0.066778,0.096027,0.005626,0.0142642
0.003996,0.004549,0.016213,0.067612,0.096555,0.005392,0.0131349
0.004529,0.005220,0.014926,0.067633,0.096442,0.005225,0.0120057
0.005054,0.006085,0.013786,0.067891,0.095936,0.005028,0.0110939
0.005789,0.007075,0.012666,0.068375,0.094566,0.004793,0.0103426
0.006441,0.008096,0.011684,0.069494,0.092912,0.004527,0.0097648
0.006999,0.009102,0.010738,0.070595,0.091093,0.004290,0.0091807
0.007591,0.009858,0.009786,0.071444,0.089368,0.004111,0.0087467
0.008390,0.010800,0.009001,0.071852,0.087850,0.004044,0.0083222
0.009523,0.011895,0.008214,0.071716,0.085694,0.004066,0.0078810
0.010810,0.013203,0.007450,0.072035,0.083166,0.004036,0.0074147
0.012165,0.014730,0.006815,0.073705,0.080076,0.003960,0.0069202
0.013455,0.016203,0.006255,0.075378,0.077282,0.003866,0.0063771
0.014686,0.017294,0.005854,0.076060,0.074858,0.003831,0.0060338
0.016058,0.018216,0.005441,0.076726,0.072568,0.003789,0.0057811
0.017573,0.019137,0.005115,0.077589,0.070230,0.003716,0.0055427
0.019174,0.020286,0.004790,0.078821,0.067965,0.003613,0.0053045
0.020843,0.021499,0.004455,0.080385,0.065264,0.003486,0.0050476
0.022331,0.022919,0.004170,0.082396,0.062573,0.003312,0.0047160
0.023793,0.024219,0.003922,0.084060,0.060176,0.003168,0.0043797
0.025231,0.025383,0.003683,0.085017,0.057960,0.003082,0.0041134
0.026669,0.026522,0.003429,0.085881,0.055630,0.002999,0.0038758
0.028026,0.027692,0.003168,0.087603,0.053258,0.002847,0.0036182
0.029237,0.028987,0.002916,0.090462,0.050991,0.002597,0.0033687
0.030494,0.030354,0.002688,0.093552,0.048869,0.002374,0.0031073
0.031389,0.031682,0.002540,0.095766,0.047508,0.002197,0.0027482
0.032536,0.033018,0.002379,0.097611,0.045913,0.002041,0.0024767
0.034088,0.034473,0.002225,0.098776,0.043978,0.001921,0.0022712
0.035657,0.036264,0.002051,0.101463,0.041583,0.001776,0.0020280
0.036952,0.037962,0.001878,0.104425,0.039149,0.001613,0.0017751
0.037936,0.039567,0.001741,0.107343,0.037163,0.001422,0.0015251
0.038745,0.040827,0.001613,0.109172,0.035764,0.001267,0.0013352
0.039613,0.041963,0.001487,0.108955,0.034593,0.001233,0.0012358
0.040642,0.043323,0.001350,0.108767,0.033097,0.001198,0.0011360
0.041852,0.045013,0.001203,0.109834,0.031074,0.001105,0.0009983
0.043127,0.046776,0.001102,0.112173,0.028855,0.001022,0.0008421
0.044079,0.048429,0.001006,0.114517,0.027022,0.000938,0.0006755
0.044708,0.049840,0.000931,0.116191,0.025324,0.000819,0.0005163
0.045234,0.051183,0.000853,0.116866,0.023774,0.000728,0.0004726
0.045903,0.052402,0.000784,0.117344,0.022173,0.000654,0.0004854
0.046394,0.053575,0.000738,0.117455,0.020658,0.000630,0.0005050
0.046838,0.054979,0.000686,0.119049,0.019025,0.000570,0.0004741
0.047302,0.056091,0.000640,0.119130,0.017798,0.000642,0.0004751
0.047736,0.056927,0.000600,0.117972,0.016902,0.000810,0.0005288
0.048117,0.057633,0.000569,0.115267,0.016201,0.001108,0.0006133
0.048320,0.058508,0.000551,0.111858,0.015317,0.001406,0.0007266
0.048563,0.059324,0.000530,0.109506,0.014213,0.001659,0.0008319
0.048755,0.060052,0.000518,0.107275,0.013381,0.001892,0.0009271
0.048522,0.060689,0.000510,0.104602,0.012979,0.002179,0.0010243
0.048073,0.060865,0.000519,0.099018,0.013233,0.002604,0.0012104
0.047698,0.061150,0.000537,0.092802,0.013647,0.003064,0.0014176
0.047461,0.061711,0.000552,0.088162,0.013622,0.003422,0.0015823
0.047268,0.062421,0.000560,0.084758,0.013344,0.003732,0.0017194
0.046780,0.063461,0.000564,0.082263,0.013033,0.003994,0.0018370
0.045945,0.064725,0.000569,0.079227,0.012889,0.004274,0.0019677
0.044801,0.065430,0.000607,0.074406,0.013184,0.004576,0.0021476
0.043250,0.066102,0.000666,0.068636,0.013708,0.004861,0.0023345
0.041563,0.066827,0.000727,0.063685,0.014264,0.005138,0.0025021
0.040028,0.067334,0.000772,0.060343,0.014703,0.005434,0.0026228
0.038539,0.067805,0.000809,0.057885,0.015086,0.005778,0.0027189
0.036715,0.068210,0.000844,0.055277,0.015562,0.006214,0.0028198
0.034789,0.068600,0.000911,0.053072,0.015977,0.006603,0.0029696
0.032824,0.068599,0.001024,0.049958,0.016624,0.006993,0.0031822
0.030772,0.068720,0.001139,0.048627,0.016967,0.007225,0.0033691
0.028675,0.068872,0.001315,0.047955,0.017151,0.007436,0.0035068
0.026454,0.068693,0.001489,0.045719,0.017748,0.007800,0.0037427
0.024287,0.067869,0.001666,0.043430,0.018468,0.008223,0.0040805
0.022232,0.066504,0.001850,0.041338,0.019198,0.008733,0.0044396
0.019991,0.064726,0.002035,0.039509,0.019934,0.009253,0.0048549
0.017909,0.062734,0.002210,0.038537,0.020123,0.009694,0.0054000
0.016032,0.060753,0.002383,0.038936,0.019901,0.009967,0.0061163
0.014350,0.058393,0.002511,0.039834,0.019536,0.010112,0.0068348
0.012573,0.055760,0.002552,0.039027,0.019407,0.010428,0.0077132
0.010803,0.052880,0.002583,0.037402,0.019438,0.010745,0.0086325
0.009176,0.049617,0.002618,0.035189,0.019573,0.011027,0.0094790
0.007811,0.045909,0.002658,0.033256,0.019648,0.011333,0.0102690
0.006628,0.042473,0.002713,0.032337,0.019514,0.011577,0.0110953
0.005561,0.038658,0.002759,0.031396,0.019324,0.011973,0.0119780
0.004660,0.034810,0.002822,0.029755,0.019065,0.012351,0.0128178
0.003790,0.031278,0.002893,0.027782,0.018838,0.012685,0.0135975
0.002905,0.027911,0.003005,0.025834,0.018484,0.012918,0.0146698
0.002279,0.024611,0.003121,0.024167,0.018080,0.013048,0.0156929
0.001931,0.021602,0.003163,0.022647,0.017661,0.013205,0.0164012
0.001632,0.018738,0.003180,0.020879,0.017303,0.013236,0.0171650
0.001366,0.016202,0.003179,0.018758,0.016866,0.013251,0.0178976
0.001169,0.013876,0.003100,0.016596,0.016363,0.013245,0.0185976
0.001229,0.011849,0.002962,0.016147,0.015569,0.013083,0.0190289
0.001307,0.009939,0.002820,0.015803,0.014821,0.012895,0.0193625
0.001400,0.008285,0.002645,0.015120,0.014191,0.012640,0.0200086
0.001492,0.007017,0.002461,0.014130,0.013614,0.012354,0.0207192
0.001621,0.005907,0.002302,0.013003,0.013421,0.012137,0.0212299
0.001708,0.004972,0.002140,0.012109,0.013445,0.011987,0.0216348
0.001725,0.004311,0.002028,0.011195,0.013551,0.011900,0.0220704
0.001715,0.003682,0.001995,0.010540,0.013799,0.011723,0.0223819
0.001727,0.003378,0.001998,0.009785,0.014024,0.011609,0.0224630
0.001776,0.003308,0.002015,0.009351,0.014129,0.011555,0.0223569
0.001824,0.003247,0.002011,0.008954,0.014197,0.011452,0.0224161
0.001900,0.003179,0.001962,0.008518,0.014236,0.011363,0.0224897
0.002042,0.003394,0.001920,0.007783,0.014296,0.011167,0.0224844
0.002130,0.003593,0.001849,0.007328,0.014367,0.010962,0.0227829
0.002164,0.003841,0.001762,0.007035,0.014381,0.010783,0.0231362
0.002246,0.003915,0.001642,0.006572,0.014481,0.010709,0.0232390
0.002316,0.004089,0.001528,0.006108,0.014526,0.010641,0.0232433
0.002358,0.004067,0.001467,0.005863,0.014439,0.010521,0.0235356
0.002285,0.003879,0.001367,0.006187,0.014200,0.010729,0.0240192
0.002260,0.003545,0.001320,0.006434,0.013940,0.011027,0.0243279
0.002238,0.003143,0.001405,0.006711,0.013724,0.011325,0.0247162
0.002178,0.002677,0.001535,0.007117,0.013421,0.011552,0.0253254
0.002100,0.002305,0.001790,0.007574,0.013087,0.011700,0.0261303
0.002007,0.002188,0.002090,0.007869,0.012895,0.011940,0.0263812
0.001915,0.002310,0.002438,0.008021,0.012787,0.012040,0.0261445
0.001786,0.002290,0.002723,0.008361,0.012607,0.012046,0.0262411
0.001685,0.002290,0.002877,0.008621,0.012342,0.012330,0.0262137
0.001589,0.002290,0.003025,0.008942,0.012155,0.012689,0.0260473
0.001496,0.002290,0.003054,0.009212,0.012071,0.013119,0.0257667
0.001351,0.002186,0.003039,0.009793,0.011925,0.013514,0.0257295
0.001192,0.001815,0.003013,0.010490,0.011745,0.013920,0.0258056
0.001025,0.001487,0.003093,0.011215,0.011506,0.014722,0.0254424
0.000836,0.001272,0.003271,0.011863,0.011324,0.015327,0.0251228
0.000645,0.001187,0.003468,0.012491,0.011110,0.015894,0.0248098
0.000467,0.000987,0.003676,0.013176,0.010776,0.016734,0.0242497
0.000334,0.000740,0.003891,0.013713,0.010373,0.017976,0.0236275
0.000213,0.000666,0.004088,0.014203,0.010000,0.019247,0.0230348
0.000099,0.000491,0.004269,0.014705,0.009669,0.020368,0.0226840
0.000001,0.000341,0.004487,0.015202,0.009458,0.021567,0.0221356
0.000001,0.000341,0.004712,0.015204,0.009369,0.022599,0.0212319
0.000001,0.000341,0.004883,0.015211,0.009360,0.023640,0.0204791
0.000152,0.000705,0.004950,0.014489,0.009582,0.024272,0.0197372
0.000363,0.000718,0.005024,0.013783,0.009809,0.024954,0.0190106
0.000363,0.000718,0.004870,0.013819,0.009932,0.026273,0.0178367
0.000504,0.000718,0.004601,0.013408,0.010123,0.027426,0.0168478
0.000747,0.000584,0.004284,0.012829,0.010326,0.028788,0.0163045
0.001013,0.000579,0.004212,0.012140,0.010544,0.030142,0.0155125
0.001274,0.000579,0.004248,0.011422,0.010797,0.031628,0.0147734
0.001461,0.000579,0.004326,0.010828,0.010938,0.033142,0.0140606
0.001671,0.000812,0.004648,0.010126,0.011117,0.034061,0.0137031
0.001685,0.000812,0.004978,0.010052,0.011070,0.035433,0.0132383
0.001684,0.000812,0.005351,0.010025,0.010980,0.036845,0.0129557
0.001729,0.000812,0.005438,0.009774,0.011090,0.037991,0.0129184
0.001732,0.000924,0.005446,0.009635,0.011213,0.038892,0.0127954
0.001781,0.001098,0.005517,0.009309,0.011418,0.039588,0.0127444
0.001900,0.001098,0.005645,0.008802,0.011730,0.039773,0.0126698
0.002083,0.001220,0.005861,0.008038,0.012285,0.039075,0.0127851
0.002280,0.001221,0.006077,0.007226,0.012856,0.038171,0.0128052
0.002280,0.001620,0.006393,0.007015,0.013239,0.037027,0.0127225
0.002280,0.001620,0.006649,0.007017,0.013426,0.036287,0.0126576
0.002335,0.001784,0.006805,0.006759,0.013733,0.035624,0.0125554
0.002402,0.002104,0.006999,0.006387,0.013995,0.034895,0.0123869
0.002407,0.002184,0.007112,0.006387,0.014050,0.034607,0.0120830
0.002348,0.002712,0.007191,0.006374,0.014079,0.034298,0.0116375
0.002521,0.002955,0.007358,0.005610,0.014220,0.033425,0.0116436
0.002482,0.003670,0.007633,0.005311,0.014237,0.032145,0.0118107
0.002275,0.004721,0.007901,0.005311,0.014161,0.030782,0.0119086
0.002041,0.005892,0.007804,0.005311,0.014151,0.029517,0.0119380
0.001812,0.007183,0.007707,0.005311,0.014150,0.027764,0.0119308
0.001699,0.008452,0.007750,0.005307,0.014079,0.025923,0.0119511
0.001581,0.009658,0.007899,0.005307,0.013895,0.024588,0.0115992
0.001669,0.011013,0.008114,0.004655,0.013987,0.022805,0.0112552
0.001851,0.011875,0.008306,0.003985,0.014112,0.020914,0.0108797
0.002007,0.012608,0.008758,0.003504,0.014094,0.018909,0.0105970
0.002192,0.013123,0.009306,0.002949,0.014040,0.017400,0.0102573
0.002263,0.013466,0.009686,0.002632,0.014045,0.016152,0.0099523
0.002280,0.014208,0.009875,0.002381,0.014061,0.015205,0.0096351
0.002284,0.014932,0.010647,0.002381,0.013795,0.014771,0.0093270
0.002369,0.015601,0.011565,0.002381,0.013628,0.014433,0.0091088
0.002437,0.016028,0.012748,0.002640,0.013707,0.014433,0.0087877
0.002549,0.016757,0.014051,0.002814,0.013991,0.013977,0.0088704
0.002504,0.017353,0.016053,0.003823,0.014140,0.013326,0.0090720
0.002935,0.017438,0.018124,0.003502,0.015082,0.012828,0.0095616
0.003269,0.017313,0.019958,0.003502,0.016378,0.012291,0.0100256
0.003612,0.016979,0.021613,0.003502,0.017957,0.011747,0.0105694
0.003943,0.016819,0.023290,0.003537,0.019798,0.011174,0.0109963
0.004141,0.016160,0.025018,0.004291,0.021874,0.011046,0.0113273
0.004321,0.015402,0.026841,0.005068,0.024140,0.010973,0.0115821
0.004709,0.014437,0.028608,0.005307,0.026558,0.010879,0.0120343
0.005197,0.013422,0.030486,0.005374,0.029175,0.010863,0.0125143
0.005731,0.012272,0.032016,0.005241,0.032339,0.010896,0.0130811
0.006234,0.010928,0.033195,0.005241,0.036148,0.010979,0.0135935
0.006703,0.009652,0.034427,0.005241,0.040062,0.011046,0.0141124
0.007102,0.008790,0.035905,0.005241,0.044351,0.011125,0.0147410
0.007464,0.008057,0.037245,0.005241,0.049010,0.011203,0.0153750
0.007951,0.007425,0.038121,0.005241,0.053749,0.011258,0.0160229
0.008502,0.006771,0.038999,0.005524,0.058440,0.011224,0.0165951
0.008796,0.006123,0.039937,0.006617,0.062839,0.011105,0.0170500
0.008964,0.005504,0.040197,0.007969,0.066996,0.010886,0.0173831
0.009081,0.005037,0.040315,0.009355,0.071166,0.010691,0.0176369
0.009403,0.004469,0.039954,0.010088,0.075460,0.010536,0.0179114
0.009710,0.004004,0.039419,0.010461,0.079753,0.010374,0.0178486
0.010147,0.003280,0.038141,0.010255,0.084139,0.010288,0.0178437
0.009928,0.002875,0.036794,0.012076,0.088153,0.010011,0.0176596
0.009662,0.002556,0.035709,0.013825,0.091707,0.009731,0.0175302
0.009167,0.002349,0.034816,0.016442,0.094769,0.009411,0.0173574
0.008663,0.002297,0.034103,0.019379,0.096957,0.009106,0.0170542
0.008408,0.002375,0.033225,0.021877,0.098703,0.008843,0.0167157
0.008405,0.002274,0.032085,0.024308,0.100231,0.008575,0.0163579
0.008343,0.002422,0.030940,0.027188,0.101401,0.008280,0.0158397
0.008213,0.002441,0.029555,0.030070,0.102574,0.007980,0.0152846
0.008099,0.002471,0.028310,0.032434,0.103466,0.007691,0.0146542
0.008060,0.002423,0.027163,0.034544,0.103767,0.007412,0.0141922
0.008228,0.002344,0.025892,0.036275,0.104283,0.007191,0.0137778
0.008394,0.002344,0.024339,0.038117,0.104391,0.007005,0.0132564
0.008616,0.002364,0.022850,0.039746,0.103901,0.006865,0.0127233
0.008876,0.002551,0.021701,0.041132,0.103012,0.006740,0.0122043
0.009308,0.002826,0.020591,0.042458,0.101877,0.006636,0.0116630
0.010126,0.003222,0.019582,0.042714,0.100482,0.006602,0.0111619
0.011013,0.003574,0.018528,0.042905,0.099395,0.006633,0.0106440
0.011946,0.004231,0.017452,0.043841,0.098064,0.006610,0.0100981
0.013054,0.004932,0.016367,0.044564,0.096230,0.006593,0.0096418
0.014273,0.005546,0.015258,0.044900,0.094424,0.006583,0.0092829
0.015515,0.006383,0.014310,0.044552,0.092538,0.006632,0.0088687
0.017008,0.007224,0.013344,0.043112,0.089921,0.006748,0.0084463
0.018580,0.008123,0.012425,0.041364,0.087264,0.006901,0.0080676
0.020431,0.009142,0.011523,0.039138,0.084706,0.007088,0.0077124
0.022219,0.010351,0.010418,0.037279,0.082589,0.007199,0.0073691
0.023835,0.011690,0.009407,0.035734,0.080326,0.007256,0.0070214
0.025537,0.013139,0.008570,0.033872,0.077954,0.007339,0.0067593
0.027251,0.014516,0.007961,0.032398,0.075786,0.007391,0.0064920
0.029149,0.016010,0.007496,0.031554,0.073255,0.007395,0.0062168
0.031167,0.017643,0.007050,0.030270,0.070677,0.007432,0.0059855
0.033190,0.019442,0.006610,0.028578,0.068012,0.007494,0.0057966
0.035229,0.021274,0.006103,0.027350,0.064957,0.007512,0.0056283
0.037325,0.023099,0.005608,0.025635,0.061737,0.007540,0.0054588
0.039322,0.024655,0.005126,0.024006,0.058815,0.007587,0.0052858
0.041302,0.026143,0.004664,0.022815,0.056119,0.007575,0.0051028
0.043018,0.027706,0.004242,0.022732,0.053514,0.007500,0.0048664
0.044632,0.029152,0.003788,0.023326,0.051456,0.007379,0.0047023
0.046494,0.031012,0.003378,0.024554,0.049383,0.007198,0.0045201
0.048708,0.032481,0.002997,0.024077,0.047627,0.007130,0.0044066
0.050892,0.033694,0.002746,0.022496,0.046209,0.007151,0.0043209
0.052995,0.035150,0.002576,0.021257,0.044716,0.007168,0.0042126
0.054942,0.036676,0.002406,0.021625,0.043026,0.007073,0.0040793
0.056746,0.038426,0.002222,0.023767,0.041279,0.006861,0.0039344
0.058763,0.040045,0.002031,0.025260,0.039835,0.006699,0.0038321
0.060571,0.041458,0.001848,0.026439,0.038639,0.006569,0.0037427
0.062342,0.042622,0.001684,0.028219,0.037387,0.006432,0.0036329
0.064296,0.043609,0.001529,0.029621,0.036338,0.006341,0.0035260
0.066120,0.044475,0.001372,0.030608,0.035520,0.006278,0.0034437
0.067598,0.045542,0.001209,0.032821,0.034341,0.006148,0.0033265
0.068733,0.046566,0.001047,0.034898,0.033292,0.006041,0.0032153
0.069561,0.047587,0.000893,0.038301,0.031940,0.005829,0.0030886
0.070381,0.048717,0.000758,0.042149,0.030514,0.005585,0.0029486
0.071022,0.049459,0.000714,0.043993,0.029462,0.005499,0.0028292
0.071229,0.050191,0.000673,0.047273,0.028300,0.005325,0.0026760
0.071428,0.051306,0.000619,0.051471,0.026886,0.005049,0.0025029
0.071495,0.052364,0.000565,0.056094,0.025416,0.004762,0.0023222
0.072129,0.053272,0.000508,0.059480,0.024037,0.004596,0.0022018
0.072994,0.054059,0.000454,0.061488,0.022955,0.004587,0.0021515
0.073489,0.054523,0.000409,0.062615,0.022102,0.004656,0.0021406
0.073233,0.055467,0.000366,0.065084,0.020852,0.004632,0.0020911
0.072865,0.056510,0.000318,0.067282,0.019812,0.004628,0.0020454
0.072429,0.057545,0.000282,0.069857,0.018715,0.004592,0.0019975
0.071873,0.058743,0.000247,0.072259,0.017581,0.004566,0.0019551
0.071381,0.059802,0.000219,0.073573,0.016758,0.004628,0.0019326
0.070619,0.060839,0.000197,0.074930,0.015936,0.004668,0.0019130
0.069903,0.061890,0.000180,0.075422,0.015143,0.004769,0.0019050
0.069182,0.062775,0.000170,0.074137,0.014735,0.004982,0.0019435
0.068256,0.063557,0.000165,0.072870,0.014363,0.005219,0.0019778
0.067005,0.064208,0.000167,0.072508,0.013826,0.005466,0.0019970
0.065783,0.064623,0.000182,0.070268,0.013671,0.005867,0.0020719
0.064576,0.065077,0.000203,0.067356,0.013616,0.006336,0.0021547
0.062966,0.065544,0.000225,0.063748,0.013904,0.006889,0.0022372
0.060654,0.065790,0.000268,0.061256,0.014021,0.007320,0.0022834
0.058036,0.066121,0.000314,0.060221,0.013762,0.007639,0.0023036
0.055708,0.066010,0.000367,0.058043,0.013935,0.008096,0.0023844
0.053188,0.065602,0.000439,0.055909,0.014345,0.008532,0.0024790
0.050547,0.065163,0.000510,0.053120,0.014894,0.009036,0.0025848
0.047379,0.064462,0.000597,0.049789,0.015574,0.009587,0.0026932
0.043867,0.063311,0.000685,0.046977,0.016024,0.010141,0.0027820
0.040429,0.061940,0.000772,0.043814,0.016418,0.010732,0.0028924
0.037246,0.059893,0.000853,0.040328,0.017000,0.011416,0.0031180
0.033987,0.057565,0.001034,0.039131,0.017083,0.011936,0.0035010
0.030736,0.054644,0.001238,0.037769,0.017132,0.012516,0.0039505
0.027696,0.051334,0.001471,0.035658,0.017200,0.013160,0.0044915
0.024664,0.047755,0.001732,0.033169,0.017179,0.013823,0.0051784
0.021614,0.044200,0.001986,0.031890,0.016894,0.014328,0.0061301
0.018671,0.040717,0.002267,0.031113,0.016528,0.014779,0.0070242
0.015832,0.037427,0.002437,0.030478,0.016131,0.015215,0.0080436
0.013180,0.034187,0.002595,0.029407,0.015787,0.015578,0.0090712
0.010745,0.030968,0.002699,0.028324,0.015552,0.015828,0.0101610
0.008433,0.027826,0.002774,0.027768,0.015382,0.016036,0.0111121
0.006249,0.024893,0.002830,0.027371,0.015354,0.016114,0.0118563
0.004522,0.021861,0.002920,0.027501,0.015138,0.016139,0.0125841
0.003438,0.018862,0.002989,0.026668,0.015252,0.016242,0.0133267
0.002637,0.016257,0.003041,0.026308,0.015398,0.016303,0.0140107
0.001915,0.014098,0.003093,0.025823,0.015520,0.016309,0.0146068
0.001482,0.012135,0.003142,0.024406,0.015494,0.016356,0.0151863
0.001172,0.010074,0.003177,0.022993,0.015394,0.016424,0.0159406
0.000940,0.008282,0.003148,0.021962,0.015197,0.016339,0.0167575
0.000779,0.006997,0.003137,0.021316,0.014895,0.016129,0.0174628
0.000666,0.005744,0.003122,0.021054,0.014523,0.015852,0.0182905
0.000594,0.004819,0.003117,0.020675,0.014068,0.015552,0.0190141
0.000589,0.004210,0.003009,0.019355,0.013852,0.015332,0.0195418
0.000583,0.003927,0.002894,0.018126,0.013715,0.015053,0.0200389
0.000567,0.003976,0.002748,0.016889,0.013830,0.014788,0.0203073
0.000520,0.004127,0.002571,0.016024,0.014050,0.014598,0.0203961
0.000520,0.004173,0.002397,0.015092,0.014301,0.014485,0.0202600
0.000520,0.004173,0.002185,0.014470,0.014444,0.014313,0.0203029
0.000520,0.004173,0.002043,0.014247,0.014430,0.014034,0.0207380
0.000483,0.004173,0.001902,0.014221,0.014608,0.013825,0.0209592
0.000430,0.004173,0.001818,0.014093,0.014725,0.013685,0.0212737
0.000416,0.004101,0.001740,0.013795,0.014697,0.013402,0.0220059
0.000382,0.003768,0.001687,0.013671,0.014498,0.013212,0.0229706
0.000380,0.003530,0.001614,0.013421,0.014351,0.013052,0.0239179
0.000428,0.003309,0.001563,0.013015,0.014143,0.013025,0.0246323
0.000464,0.003009,0.001516,0.012632,0.013944,0.012939,0.0255210
0.000536,0.002747,0.001481,0.012324,0.013785,0.012883,0.0261727
0.000574,0.002550,0.001439,0.012061,0.013766,0.012840,0.0267954
0.000639,0.002585,0.001400,0.011697,0.013858,0.012754,0.0270980
0.000678,0.002523,0.001408,0.011414,0.013933,0.012722,0.0271940
0.000708,0.002346,0.001403,0.011251,0.013996,0.012664,0.0274020
0.000764,0.002276,0.001417,0.010988,0.013906,0.012658,0.0274219
0.000802,0.001974,0.001470,0.010965,0.013835,0.012956,0.0274635
0.000897,0.001697,0.001542,0.010734,0.013812,0.013299,0.0273556
0.000976,0.001533,0.001599,0.010482,0.013773,0.013674,0.0272470
0.001042,0.001197,0.001651,0.010404,0.013727,0.013996,0.0273158
0.001036,0.000975,0.001701,0.010522,0.013599,0.014596,0.0273177
0.001036,0.000929,0.001734,0.010545,0.013509,0.015492,0.0272131
0.001036,0.000929,0.001702,0.010543,0.013444,0.016096,0.0270704
0.001036,0.000929,0.001793,0.010466,0.013481,0.016690,0.0266139
0.001036,0.000929,0.001919,0.010398,0.013384,0.017309,0.0262865
0.001040,0.000929,0.002152,0.010277,0.013345,0.018021,0.0256180
0.001208,0.001179,0.002421,0.009513,0.013531,0.018497,0.0245571
0.001341,0.001653,0.002750,0.008764,0.013749,0.018657,0.0233745
0.001486,0.001860,0.003104,0.008081,0.013822,0.019191,0.0220040
0.001535,0.002545,0.003362,0.007548,0.013885,0.019635,0.0207050
0.001626,0.003053,0.003591,0.006979,0.013953,0.020125,0.0193976
0.001709,0.003333,0.003717,0.006542,0.013881,0.020501,0.0183863
0.001684,0.003210,0.003826,0.006660,0.013662,0.021320,0.0174381
0.001682,0.003532,0.003870,0.006408,0.013508,0.022190,0.0166942
0.001651,0.004159,0.003878,0.006142,0.013414,0.023070,0.0160266
0.001667,0.004638,0.003943,0.005812,0.013402,0.023985,0.0153995
0.001688,0.004910,0.004046,0.005600,0.013554,0.024937,0.0148842
0.001725,0.005442,0.004122,0.005175,0.013755,0.025531,0.0144016
0.001656,0.006221,0.004168,0.005032,0.013902,0.026050,0.0140854
0.001750,0.006221,0.004228,0.004845,0.014048,0.026499,0.0137589
0.001871,0.006486,0.004330,0.004536,0.014291,0.026609,0.0134186
0.002055,0.006827,0.004424,0.003886,0.014563,0.026752,0.0131478
0.002144,0.007401,0.004595,0.003359,0.014738,0.026523,0.0128602
0.002164,0.007962,0.004846,0.003074,0.014817,0.026630,0.0126063
0.002283,0.008692,0.005038,0.002402,0.015005,0.026449,0.0121742
0.002283,0.009659,0.005179,0.002000,0.015073,0.026616,0.0118528
0.002279,0.010343,0.005292,0.001756,0.014994,0.026558,0.0116650
0.002111,0.010968,0.005406,0.002025,0.014747,0.026525,0.0115640
0.001978,0.011451,0.005362,0.002216,0.014527,0.026800,0.0114107
0.001833,0.012130,0.005351,0.002363,0.014407,0.026648,0.0114556
0.001734,0.012190,0.005422,0.002580,0.014336,0.026447,0.0115537
0.001635,0.012629,0.005591,0.002580,0.014393,0.025931,0.0115054
0.001499,0.013351,0.005692,0.002580,0.014538,0.025579,0.0114805
0.001517,0.014107,0.005749,0.002078,0.014769,0.025337,0.0114848
0.001463,0.014430,0.005814,0.002078,0.014918,0.025076,0.0113419
0.001458,0.014561,0.005932,0.002078,0.015022,0.024816,0.0112399
0.001409,0.014997,0.006134,0.002078,0.015053,0.024529,0.0110922
0.001285,0.015189,0.006297,0.002443,0.014887,0.024149,0.0109290
0.001173,0.015776,0.006528,0.002616,0.014773,0.023483,0.0107160
0.001104,0.016366,0.006865,0.002616,0.014684,0.022428,0.0104774
0.000932,0.017551,0.007249,0.002616,0.014571,0.021421,0.0102355
0.000783,0.018332,0.007550,0.002616,0.014379,0.020782,0.0099929
0.000678,0.018948,0.007798,0.002616,0.014249,0.019757,0.0097552
0.000654,0.019489,0.007934,0.002482,0.014250,0.018809,0.0095223
0.000768,0.019626,0.008080,0.002105,0.014346,0.017894,0.0091117
0.000787,0.019626,0.008179,0.002104,0.014356,0.017357,0.0086849
0.000881,0.019502,0.008393,0.001829,0.014437,0.016428,0.0081837
0.000984,0.019671,0.008622,0.001435,0.014581,0.015606,0.0076913
0.001142,0.019644,0.008945,0.001169,0.014656,0.015146,0.0072672
0.001225,0.019400,0.010103,0.001494,0.014468,0.014648,0.0071907
0.001342,0.019252,0.011532,0.001728,0.014296,0.014246,0.0071256
0.001523,0.019199,0.013398,0.002092,0.014192,0.013904,0.0072609
0.001870,0.018713,0.015185,0.002379,0.014201,0.013923,0.0075530
0.002020,0.017951,0.017471,0.003611,0.014719,0.013817,0.0079260
0.002062,0.017432,0.019989,0.005126,0.015218,0.013159,0.0083455
0.002136,0.016636,0.022600,0.006531,0.015787,0.012476,0.0089636
0.002190,0.015687,0.025130,0.007743,0.016492,0.011804,0.0096860
0.002357,0.014665,0.027048,0.008555,0.017390,0.011147,0.0103037
0.002551,0.013993,0.028995,0.009204,0.018654,0.010490,0.0108141
0.002771,0.012873,0.030781,0.009925,0.020001,0.010118,0.0113417
0.002919,0.011505,0.032312,0.011023,0.021796,0.010105,0.0118734
0.002997,0.010319,0.033628,0.012229,0.023909,0.010065,0.0124066
0.003069,0.009273,0.034782,0.013374,0.026322,0.010004,0.0129716
0.003157,0.008316,0.035887,0.014374,0.028924,0.009942,0.0134627
0.003192,0.007202,0.036965,0.015542,0.031660,0.009887,0.0139127
0.003058,0.006503,0.038032,0.017149,0.034414,0.009781,0.0144384
0.002920,0.005773,0.039071,0.018933,0.037228,0.009632,0.0151640
0.002827,0.004930,0.040025,0.020567,0.040290,0.009489,0.0159387
0.002723,0.004078,0.040757,0.022203,0.043714,0.009357,0.0166680
0.002565,0.003229,0.041145,0.023790,0.047542,0.009167,0.0173315
0.002491,0.002516,0.040570,0.024967,0.051667,0.009017,0.0177395
0.002424,0.001778,0.039576,0.026077,0.055834,0.008835,0.0180361
0.002245,0.001084,0.038094,0.027247,0.060072,0.008620,0.0182116
0.001906,0.000624,0.036599,0.028952,0.063970,0.008389,0.0182237
0.001842,0.000357,0.034601,0.029539,0.067161,0.008210,0.0180913
0.001794,0.000120,0.032380,0.030068,0.070412,0.008030,0.0178491
0.001680,0.000003,0.030111,0.030888,0.073916,0.007834,0.0174935
0.001570,0.000003,0.027872,0.032125,0.077218,0.007602,0.0170605
0.001351,0.000000,0.026076,0.033984,0.080308,0.007351,0.0166905
0.001158,0.000000,0.024274,0.035638,0.083386,0.007084,0.0163752
0.000938,0.000000,0.022545,0.037668,0.086327,0.006829,0.0160442
0.000784,0.000000,0.020925,0.039491,0.088682,0.006668,0.0155667
0.000659,0.000107,0.019472,0.041037,0.090866,0.006562,0.0149090
0.000523,0.000208,0.018313,0.042753,0.092597,0.006450,0.0142372
0.000419,0.000490,0.017318,0.045277,0.093354,0.006296,0.0137808
0.000464,0.000860,0.016335,0.047466,0.093652,0.006157,0.0134516
0.000678,0.001318,0.015299,0.049413,0.093900,0.006033,0.0130733
0.000914,0.001917,0.014306,0.051877,0.093979,0.005880,0.0124453
0.001179,0.002523,0.013311,0.054667,0.093771,0.005727,0.0117964
0.001469,0.003005,0.012421,0.057292,0.093334,0.005593,0.0112405
0.001727,0.003556,0.011758,0.060992,0.092580,0.005408,0.0106806
0.001914,0.004150,0.011280,0.065149,0.092076,0.005177,0.0101574
0.002269,0.004878,0.010829,0.069254,0.090975,0.004911,0.0097551
0.002885,0.005632,0.010421,0.072938,0.089741,0.004652,0.0093976
0.003619,0.006608,0.010037,0.076403,0.088245,0.004390,0.0090738
0.004558,0.007672,0.009769,0.079366,0.086561,0.004161,0.0088002
0.005683,0.008697,0.009540,0.082189,0.084931,0.003936,0.0085272
0.006914,0.009869,0.009327,0.086056,0.082982,0.003632,0.0082218
0.008225,0.011010,0.009147,0.089936,0.081215,0.003362,0.0079010
0.009641,0.012285,0.008888,0.093651,0.079284,0.003112,0.0075619
0.011000,0.013634,0.008528,0.096764,0.077282,0.002907,0.0070911
0.012323,0.014949,0.008169,0.099676,0.075197,0.002703,0.0065709
0.013553,0.016277,0.007850,0.102827,0.073152,0.002433,0.0061683
0.014762,0.017513,0.007520,0.105674,0.070941,0.002158,0.0059265
0.016139,0.018848,0.007094,0.107908,0.068893,0.001935,0.0056713
0.017719,0.020122,0.006616,0.110048,0.067588,0.001704,0.0052826
0.019492,0.021185,0.006201,0.110950,0.066490,0.001581,0.0048905
0.021513,0.022259,0.005827,0.110887,0.065131,0.001535,0.0045383
0.023792,0.023171,0.005453,0.109506,0.063782,0.001611,0.0042308
0.026029,0.024087,0.005075,0.107625,0.062361,0.001730,0.0039574
0.028477,0.024781,0.004722,0.104500,0.061138,0.001929,0.0036987
0.030794,0.025397,0.004375,0.100615,0.059760,0.002189,0.0034484
0.033062,0.026048,0.004065,0.095889,0.057861,0.002504,0.0032179
0.035168,0.026711,0.003791,0.091247,0.056142,0.002819,0.0029870
0.037211,0.027476,0.003517,0.086282,0.054201,0.003162,0.0027753
0.039202,0.028080,0.003214,0.081097,0.052643,0.003519,0.0025701
0.040979,0.028649,0.002938,0.076610,0.051308,0.003812,0.0023504
0.042743,0.029513,0.002672,0.072358,0.049786,0.004096,0.0021470
0.044520,0.030369,0.002407,0.066947,0.048227,0.004475,0.0019805
0.046474,0.031449,0.002145,0.061913,0.046330,0.004805,0.0018057
0.048561,0.032418,0.001978,0.058043,0.044355,0.005048,0.0016694
0.050385,0.033531,0.001872,0.054323,0.042293,0.005303,0.0016904
0.051990,0.034915,0.001771,0.051176,0.040219,0.005487,0.0017443
0.053613,0.036327,0.001679,0.048688,0.037963,0.005612,0.0018182
0.055120,0.037801,0.001590,0.047066,0.035611,0.005682,0.0018694
0.056348,0.039282,0.001501,0.046463,0.033046,0.005677,0.0019003
0.057212,0.040858,0.001404,0.046648,0.030318,0.005664,0.0019240
0.058166,0.042667,0.001299,0.048729,0.027684,0.005532,0.0018993
0.059051,0.044245,0.001194,0.051519,0.025359,0.005338,0.0018639
0.059599,0.045661,0.001103,0.054932,0.023123,0.005095,0.0018037
0.060123,0.047093,0.001010,0.058576,0.021051,0.004814,0.0017367
0.060282,0.048934,0.000918,0.063297,0.018745,0.004430,0.0016481
0.060599,0.050841,0.000821,0.067508,0.016583,0.004070,0.0015831
0.060997,0.052590,0.000725,0.072237,0.014533,0.003695,0.0015076
0.061390,0.054568,0.000623,0.077592,0.012761,0.003316,0.0014210
0.061345,0.056578,0.000531,0.083256,0.011169,0.002902,0.0013415
0.060803,0.058594,0.000487,0.088371,0.009685,0.002477,0.0012686
0.060177,0.060388,0.000458,0.093134,0.008360,0.002065,0.0012072
0.059381,0.061832,0.000433,0.097546,0.007209,0.001704,0.0011543
0.058343,0.063030,0.000416,0.101056,0.006270,0.001420,0.0011203
0.057140,0.063984,0.000411,0.103059,0.005732,0.001259,0.0011241
0.055731,0.064821,0.000419,0.103100,0.005720,0.001253,0.0011695
0.054614,0.065765,0.000427,0.103091,0.005849,0.001296,0.0012048
0.053510,0.066355,0.000443,0.101442,0.006345,0.001514,0.0012844
0.052121,0.067068,0.000454,0.099001,0.006864,0.001817,0.0013836
0.050681,0.067767,0.000458,0.095864,0.007449,0.002191,0.0015090
0.049189,0.068244,0.000471,0.092749,0.008093,0.002589,0.0016402
0.047663,0.068363,0.000500,0.088826,0.008879,0.003116,0.0017828
0.045682,0.068274,0.000533,0.084420,0.009679,0.003710,0.0019495
0.043304,0.068065,0.000576,0.079500,0.010826,0.004376,0.0021179
0.040732,0.067397,0.000627,0.074034,0.012736,0.005112,0.0022981
0.038107,0.066459,0.000681,0.068427,0.014737,0.005912,0.0024708
0.035568,0.065370,0.000728,0.063259,0.016647,0.006745,0.0027079
0.032999,0.064003,0.000816,0.058523,0.018398,0.007579,0.0030260
0.030414,0.062673,0.000954,0.054536,0.019833,0.008468,0.0033458
0.027511,0.060211,0.001114,0.050472,0.021059,0.009291,0.0038098
0.024895,0.057135,0.001273,0.046707,0.022289,0.010117,0.0043294
0.022675,0.053752,0.001464,0.043458,0.023334,0.011036,0.0049992
0.020480,0.050553,0.001642,0.040396,0.023705,0.011985,0.0057831
0.018334,0.047237,0.001818,0.037391,0.023716,0.012948,0.0066524
0.016365,0.044011,0.001907,0.034508,0.023702,0.013796,0.0076250
0.014302,0.040840,0.002082,0.032313,0.023637,0.014551,0.0085511
0.012210,0.037759,0.002251,0.030832,0.023319,0.015162,0.0097419
0.010143,0.034492,0.002435,0.029718,0.022877,0.015551,0.0109226
0.008319,0.031359,0.002545,0.029640,0.022152,0.015870,0.0120650
0.006888,0.028308,0.002659,0.029280,0.021711,0.016062,0.0131409
0.005626,0.024973,0.002769,0.029382,0.021304,0.016159,0.0143707
0.004539,0.021852,0.002816,0.028884,0.021010,0.016283,0.0154736
0.003585,0.018822,0.002829,0.027769,0.020772,0.016387,0.0164868
0.002711,0.015853,0.002837,0.026764,0.020545,0.016476,0.0174452
0.001986,0.012981,0.002839,0.026470,0.019986,0.016416,0.0184610
0.001495,0.010956,0.002830,0.026607,0.018708,0.016238,0.0194119
0.001107,0.009230,0.002876,0.026884,0.017369,0.016015,0.0202113
0.000772,0.007544,0.002923,0.027048,0.016056,0.015779,0.0210395
0.000489,0.005838,0.002930,0.026966,0.014847,0.015530,0.0219686
0.000276,0.004173,0.002899,0.025892,0.014025,0.015182,0.0229043
0.000312,0.003343,0.002851,0.024311,0.013553,0.014941,0.0236065
0.000345,0.002889,0.002810,0.022688,0.012992,0.014729,0.0242670
0.000400,0.002677,0.002713,0.021304,0.012465,0.014380,0.0248783
0.000400,0.002450,0.002551,0.020218,0.012456,0.013997,0.0256410
0.000400,0.002432,0.002383,0.019084,0.012798,0.013615,0.0262455
0.000400,0.002432,0.002280,0.018656,0.012926,0.013344,0.0268434
0.000400,0.002427,0.002091,0.018371,0.013017,0.013058,0.0273856
0.000407,0.002480,0.001900,0.018056,0.013123,0.012779,0.0276338
0.000407,0.002649,0.001699,0.017745,0.013197,0.012700,0.0277868
0.000407,0.003070,0.001574,0.017374,0.013324,0.012562,0.0277860
0.000374,0.003450,0.001470,0.017063,0.013417,0.012534,0.0278259
0.000361,0.004009,0.001400,0.016611,0.013568,0.012603,0.0274588
0.000334,0.004626,0.001402,0.016181,0.013680,0.012656,0.0272912
0.000307,0.005279,0.001442,0.015829,0.013775,0.012653,0.0273186
0.000293,0.005740,0.001499,0.015459,0.013813,0.012586,0.0274079
0.000276,0.006337,0.001543,0.014904,0.013904,0.012605,0.0274587
0.000303,0.006497,0.001610,0.014442,0.013908,0.012629,0.0275942
0.000334,0.006450,0.001616,0.014072,0.013840,0.012637,0.0279023
0.000357,0.006323,0.001626,0.013714,0.013807,0.012586,0.0281251
0.000349,0.006555,0.001633,0.013344,0.013833,0.012537,0.0280539
0.000338,0.006928,0.001630,0.012855,0.013841,0.012557,0.0279412
0.000389,0.007308,0.001638,0.012269,0.013800,0.012535,0.0277497
0.000418,0.007765,0.001610,0.011748,0.013862,0.012458,0.0274956
0.000404,0.008693,0.001595,0.011045,0.013949,0.012460,0.0270350
0.000422,0.009878,0.001644,0.010141,0.014164,0.012491,0.0262611
0.000440,0.011026,0.001697,0.009259,0.014297,0.012509,0.0255318
0.000487,0.012037,0.001759,0.008380,0.014512,0.012476,0.0246422
0.000488,0.013279,0.001904,0.007562,0.014660,0.012454,0.0238482
0.000483,0.014483,0.002160,0.006801,0.014796,0.012599,0.0231040
0.000483,0.015453,0.002577,0.006172,0.014880,0.012644,0.0224819
0.000483,0.016162,0.002993,0.005581,0.014924,0.012719,0.0220253
0.000484,0.016696,0.003418,0.005109,0.014973,0.012771,0.0214019
0.000482,0.017297,0.003808,0.004620,0.014944,0.012845,0.0211530
0.000482,0.017759,0.004146,0.004171,0.014941,0.012920,0.0209033
0.000482,0.018189,0.004517,0.003711,0.014923,0.012891,0.0206759
0.000480,0.018898,0.004657,0.003152,0.015052,0.012923,0.0202854
0.000480,0.019433,0.004779,0.002641,0.015153,0.012974,0.0197041
0.000453,0.020417,0.004859,0.002151,0.015276,0.013072,0.0191842
0.000410,0.021583,0.004948,0.001665,0.015448,0.013165,0.0185297
0.000362,0.022740,0.005133,0.001170,0.015670,0.013263,0.0179213
0.000330,0.024098,0.005249,0.000741,0.015943,0.013501,0.0172212
0.000276,0.025388,0.005356,0.000440,0.016226,0.013773,0.0165219
0.000189,0.026493,0.005454,0.000288,0.016379,0.014007,0.0160766
0.000127,0.027779,0.005680,0.000063,0.016564,0.014282,0.0156221
0.000086,0.028725,0.005882,0.000012,0.016725,0.014551,0.0151504
0.000069,0.029569,0.006117,0.000005,0.016767,0.014798,0.0146543
0.000050,0.030096,0.006477,0.000000,0.016846,0.014952,0.0141312
0.000003,0.030517,0.006867,0.000000,0.016877,0.014987,0.0138309
0.000002,0.030668,0.007207,0.000000,0.016935,0.015047,0.0135900
0.000059,0.030351,0.007447,0.000000,0.016958,0.015017,0.0133496
0.000189,0.029462,0.007561,0.000000,0.016985,0.014932,0.0131243
0.000380,0.028370,0.007847,0.000000,0.017006,0.014829,0.0129198
0.000626,0.027229,0.008022,0.000000,0.016996,0.014704,0.0129715
0.000832,0.026308,0.008072,0.000000,0.016973,0.014489,0.0127102
0.001048,0.025360,0.008176,0.000000,0.016946,0.014296,0.0123840
0.001269,0.024518,0.008104,0.000000,0.017019,0.014223,0.0118907
0.001505,0.023567,0.008217,0.000000,0.017005,0.014155,0.0115445
0.001737,0.022810,0.008349,0.000000,0.016960,0.014074,0.0113941
0.001855,0.022073,0.008398,0.000000,0.016926,0.013998,0.0111152
0.001976,0.021224,0.008419,0.000000,0.016927,0.013918,0.0109702
0.002090,0.020559,0.008342,0.000000,0.016908,0.013873,0.0106933
0.002166,0.019686,0.008364,0.000136,0.016713,0.013651,0.0105956
0.002264,0.018600,0.008408,0.000355,0.016459,0.013262,0.0107970
0.002350,0.017612,0.008473,0.000668,0.016294,0.012884,0.0109266
0.002483,0.016479,0.008433,0.000796,0.016105,0.012478,0.0110006
0.002605,0.015137,0.008540,0.001033,0.015839,0.012017,0.0111357
0.002726,0.013636,0.008720,0.001262,0.015573,0.011561,0.0113473
0.002784,0.012507,0.008992,0.001709,0.015227,0.011167,0.0115821
0.002835,0.011590,0.009330,0.002004,0.014899,0.010889,0.0115732
0.002847,0.010781,0.009828,0.002419,0.014478,0.010601,0.0114785
0.002789,0.010190,0.010539,0.002957,0.014006,0.010294,0.0115522
0.002770,0.009970,0.011244,0.003463,0.013636,0.010120,0.0118873
0.002627,0.009948,0.012340,0.004461,0.013099,0.009961,0.0122806
0.002476,0.009932,0.013580,0.005308,0.012573,0.009826,0.0126141
0.002431,0.009753,0.015094,0.006075,0.012205,0.009758,0.0131408
0.002449,0.009584,0.016677,0.006918,0.011950,0.009701,0.0138423
0.002447,0.009123,0.018660,0.007986,0.011736,0.009631,0.0149176
0.002326,0.008816,0.020624,0.009127,0.012006,0.009508,0.0157930
0.002136,0.008594,0.022636,0.010501,0.012397,0.009366,0.0165927
0.002018,0.008127,0.024849,0.012131,0.012908,0.009211,0.0174806
0.001996,0.007800,0.026590,0.013426,0.013843,0.009066,0.0183878
0.001958,0.007450,0.028240,0.014797,0.015380,0.008928,0.0192646
0.001949,0.006957,0.029882,0.016100,0.017261,0.008836,0.0201368
0.001850,0.006645,0.031635,0.017517,0.019163,0.008862,0.0207137
0.001767,0.006382,0.033293,0.018814,0.021176,0.008932,0.0212274
0.001633,0.006075,0.034969,0.020344,0.023236,0.008991,0.0218440
0.001512,0.005852,0.036646,0.022231,0.025325,0.009039,0.0225349
0.001401,0.005718,0.037986,0.024168,0.028048,0.009069,0.0232202
0.001463,0.005648,0.039065,0.025397,0.031365,0.009122,0.0237695
0.001412,0.005403,0.040039,0.027278,0.035182,0.009132,0.0243927
0.001400,0.005077,0.040792,0.029251,0.039382,0.009123,0.0249684
0.001400,0.005187,0.041032,0.030975,0.043848,0.009121,0.0251351
0.001289,0.005479,0.041151,0.032863,0.048206,0.009070,0.0250103
0.001240,0.005810,0.040593,0.034412,0.052721,0.008995,0.0249035
0.001288,0.006203,0.039955,0.035952,0.057338,0.008961,0.0246838
0.001177,0.006530,0.039202,0.037900,0.061982,0.008874,0.0243696
0.000965,0.006765,0.038416,0.039850,0.066754,0.008741,0.0238871
0.000746,0.006900,0.037457,0.041707,0.071688,0.008589,0.0230762
0.000632,0.007049,0.036583,0.044219,0.075346,0.008392,0.0224948
0.000641,0.007262,0.035622,0.046439,0.078470,0.008179,0.0219731
0.000773,0.007460,0.034494,0.048157,0.081454,0.007976,0.0214129
0.000865,0.007538,0.033664,0.050212,0.084088,0.007762,0.0208523
0.001058,0.007615,0.032853,0.051937,0.086103,0.007540,0.0203599
0.001277,0.007606,0.031919,0.053565,0.088173,0.007324,0.0198110
0.001567,0.007503,0.030758,0.054513,0.090367,0.007126,0.0192133
0.001657,0.007498,0.029642,0.056268,0.092149,0.006856,0.0186057
0.001831,0.007505,0.028502,0.058109,0.093540,0.006599,0.0179938
0.002161,0.007552,0.027214,0.058877,0.094567,0.006424,0.0173669
0.002701,0.007518,0.026152,0.059179,0.094933,0.006306,0.0167505
0.003278,0.007371,0.025134,0.059961,0.094840,0.006160,0.0163101
0.003929,0.007566,0.024147,0.060790,0.094490,0.006016,0.0156378
0.004474,0.007948,0.023180,0.061760,0.093978,0.005872,0.0149590
0.005159,0.008282,0.022418,0.062564,0.093107,0.005737,0.0144868
0.005926,0.008623,0.021625,0.063078,0.092254,0.005629,0.0139830
0.006860,0.009069,0.020743,0.063305,0.091183,0.005547,0.0133166
0.007814,0.009588,0.019793,0.063629,0.090128,0.005444,0.0126834
0.009016,0.010085,0.018721,0.063223,0.089138,0.005386,0.0121271
0.010232,0.010686,0.017601,0.062813,0.087912,0.005343,0.0115515
0.011442,0.011618,0.016389,0.062442,0.086451,0.005300,0.0109871
0.012632,0.012507,0.015152,0.061467,0.085668,0.005289,0.0103967
0.013856,0.013315,0.013919,0.060792,0.085114,0.005287,0.0097836
0.015195,0.014326,0.012716,0.060560,0.084297,0.005257,0.0091321
0.016835,0.015243,0.011699,0.059429,0.083136,0.005304,0.0084672
0.018459,0.016048,0.010753,0.058043,0.081853,0.005389,0.0078266
0.020132,0.017196,0.009905,0.057019,0.080013,0.005426,0.0072045
0.021749,0.018478,0.009141,0.057056,0.077987,0.005389,0.0066355
0.023584,0.019726,0.008409,0.056584,0.076249,0.005378,0.0061197
0.025526,0.021147,0.007681,0.055884,0.074567,0.005377,0.0055836
0.027519,0.022486,0.006971,0.055944,0.072971,0.005327,0.0050385
0.029346,0.023824,0.006277,0.056302,0.071190,0.005233,0.0044865
0.031045,0.025452,0.005581,0.057016,0.069196,0.005116,0.0039114
0.032765,0.027026,0.004873,0.057400,0.066829,0.005009,0.0035531
0.034640,0.028598,0.004160,0.058274,0.063834,0.004867,0.0032433
0.036234,0.030049,0.003538,0.059590,0.060771,0.004705,0.0029264
0.037707,0.031561,0.003028,0.061369,0.057720,0.004515,0.0026293
0.039104,0.033005,0.002707,0.063760,0.054800,0.004283,0.0023881
0.040567,0.034409,0.002471,0.066343,0.051608,0.004059,0.0022148
0.042170,0.035905,0.002327,0.068669,0.048388,0.003850,0.0020641
0.043794,0.037443,0.002186,0.070816,0.045184,0.003644,0.0019205
0.045219,0.039085,0.002046,0.072990,0.041888,0.003447,0.0017693
0.046566,0.040888,0.001903,0.075241,0.038638,0.003238,0.0016209
0.047741,0.042544,0.001799,0.076977,0.035666,0.003057,0.0014869
0.048831,0.044216,0.001700,0.079368,0.032683,0.002840,0.0013727
0.049494,0.046169,0.001608,0.082600,0.029884,0.002555,0.0012415
0.049997,0.048203,0.001512,0.086497,0.027174,0.002233,0.0011231
0.050232,0.049979,0.001434,0.089513,0.024879,0.001969,0.0010578
0.050521,0.051978,0.001364,0.092094,0.022683,0.001736,0.0010161
0.051031,0.053728,0.001297,0.093415,0.020671,0.001611,0.0010088
0.051477,0.055116,0.001232,0.094401,0.018821,0.001515,0.0010276
0.051673,0.056623,0.001168,0.094609,0.017388,0.001460,0.0010612
0.051727,0.058034,0.001109,0.094007,0.016429,0.001467,0.0011008
0.051775,0.059251,0.001050,0.093711,0.015474,0.001454,0.0011447
0.051879,0.060527,0.000992,0.093029,0.014634,0.001479,0.0011955
0.051756,0.061533,0.000939,0.091688,0.014284,0.001637,0.0012437
0.051611,0.062435,0.000890,0.090580,0.014163,0.001787,0.0012844
0.051286,0.063181,0.000849,0.089215,0.013992,0.001962,0.0013313
0.050927,0.063771,0.000812,0.087105,0.014004,0.002191,0.0013976
0.050294,0.064242,0.000776,0.085143,0.014106,0.002394,0.0014622
0.049307,0.064622,0.000741,0.084016,0.013994,0.002549,0.0015165
0.048308,0.064890,0.000707,0.082463,0.013912,0.002746,0.0015975
0.047429,0.064767,0.000678,0.079896,0.014113,0.003022,0.0017102
0.046522,0.064143,0.000662,0.076716,0.014422,0.003355,0.0018234
0.045550,0.063714,0.000649,0.074043,0.014683,0.003678,0.0019237
0.044365,0.063028,0.000663,0.070725,0.015283,0.004064,0.0020386
0.042967,0.062080,0.000681,0.068176,0.015670,0.004418,0.0021545
0.041519,0.061155,0.000699,0.065598,0.016016,0.004766,0.0022820
0.040230,0.060178,0.000717,0.063426,0.016223,0.005109,0.0024079
0.038899,0.058746,0.000747,0.060844,0.016480,0.005494,0.0025434
0.037299,0.057330,0.000781,0.058892,0.016696,0.005855,0.0026693
0.035493,0.055974,0.000822,0.056711,0.017152,0.006247,0.0027987
0.033571,0.054403,0.000871,0.055051,0.017544,0.006585,0.0029401
0.031739,0.052864,0.000918,0.053714,0.017926,0.006854,0.0030946
0.029812,0.051231,0.000969,0.051543,0.018535,0.007179,0.0032659
0.027694,0.049381,0.001022,0.049572,0.019229,0.007497,0.0034646
0.025659,0.047535,0.001082,0.047631,0.019996,0.007783,0.0036689
0.023761,0.045624,0.001138,0.045402,0.020813,0.008107,0.0038822
0.022015,0.043871,0.001190,0.043245,0.021666,0.008418,0.0040841
0.020236,0.042245,0.001245,0.041681,0.022358,0.008716,0.0042558
0.018596,0.040479,0.001299,0.040226,0.022640,0.009102,0.0044664
0.016897,0.038363,0.001358,0.038432,0.022917,0.009672,0.0047132
0.015080,0.036225,0.001410,0.037424,0.023146,0.010262,0.0049873
0.013337,0.034437,0.001444,0.037315,0.022955,0.010854,0.0052462
0.011744,0.032757,0.001504,0.037560,0.022385,0.011368,0.0056872
0.010280,0.030555,0.001575,0.037309,0.021778,0.011972,0.0063215
0.008904,0.028238,0.001656,0.036260,0.021244,0.012511,0.0071519
0.007808,0.026100,0.001775,0.034387,0.021007,0.012954,0.0079627
0.006879,0.023965,0.001937,0.032336,0.020773,0.013366,0.0087036
0.006005,0.021812,0.002134,0.030467,0.020543,0.013664,0.0094303
0.005187,0.019988,0.002283,0.028893,0.020359,0.013944,0.0099568
0.004364,0.018397,0.002406,0.027673,0.020121,0.014092,0.0104464
0.003606,0.016947,0.002521,0.026951,0.019837,0.014176,0.0108533
0.003009,0.015445,0.002598,0.026396,0.019464,0.014230,0.0114991
0.002419,0.013939,0.002671,0.026429,0.018883,0.014309,0.0122419
0.001923,0.012400,0.002706,0.026476,0.018199,0.014403,0.0130531
0.001565,0.010936,0.002743,0.026422,0.017401,0.014501,0.0138974
0.001337,0.009647,0.002783,0.026073,0.016477,0.014570,0.0146678
0.001143,0.008584,0.002804,0.025562,0.015482,0.014617,0.0154017
0.001011,0.007590,0.002817,0.024845,0.014613,0.014707,0.0159882
0.000833,0.006495,0.002791,0.023982,0.013865,0.014853,0.0165779
0.000546,0.005556,0.002760,0.022833,0.013565,0.014968,0.0171291
0.000376,0.004848,0.002727,0.021849,0.013335,0.014874,0.0177438
0.000330,0.004106,0.002744,0.020601,0.013143,0.014698,0.0184034
0.000317,0.003308,0.002774,0.019282,0.013154,0.014414,0.0192144
0.000280,0.002675,0.002772,0.018051,0.013465,0.014201,0.0197634
0.000265,0.002446,0.002757,0.017088,0.013751,0.013759,0.0201863
0.000265,0.002396,0.002739,0.016705,0.013873,0.013325,0.0205396
0.000276,0.002302,0.002671,0.016451,0.013923,0.013010,0.0209074
0.000310,0.002188,0.002533,0.016115,0.014019,0.012737,0.0213120
0.000336,0.002177,0.002430,0.015731,0.014125,0.012571,0.0216202
0.000337,0.001991,0.002368,0.015351,0.014061,0.012395,0.0222504
0.000369,0.001694,0.002327,0.014890,0.013913,0.012340,0.0229074
0.000384,0.001380,0.002279,0.014700,0.013727,0.012274,0.0237034
0.000384,0.001252,0.002275,0.014432,0.013684,0.012265,0.0241298
0.000377,0.001187,0.002246,0.014169,0.013665,0.012242,0.0244803
0.000460,0.001259,0.002180,0.013639,0.013746,0.012317,0.0247469
0.000596,0.001536,0.002117,0.012958,0.013918,0.012414,0.0247566
0.000674,0.001903,0.002041,0.012356,0.014126,0.012469,0.0248673
0.000633,0.003003,0.001979,0.011823,0.014384,0.012557,0.0248422
0.000595,0.003966,0.001930,0.011374,0.014484,0.012613,0.0250907
0.000581,0.005160,0.001959,0.010747,0.014773,0.012650,0.0253168
0.000581,0.006605,0.001977,0.010019,0.015041,0.012669,0.0255675
0.000581,0.008236,0.002014,0.009289,0.015282,0.012745,0.0257620
0.000581,0.009884,0.002067,0.008568,0.015507,0.012823,0.0258127
0.000581,0.011138,0.002206,0.007834,0.015713,0.012897,0.0256452
0.000581,0.012452,0.002349,0.007071,0.015908,0.012967,0.0254674
0.000581,0.013688,0.002463,0.006324,0.015934,0.013253,0.0252813
0.000581,0.013688,0.002597,0.006288,0.015802,0.014101,0.0248722
0.000570,0.014065,0.002810,0.005982,0.015755,0.014833,0.0244241
0.000517,0.014531,0.003167,0.005766,0.015725,0.015600,0.0239725
0.000460,0.014949,0.003409,0.005587,0.015686,0.016382,0.0236383
0.000414,0.015363,0.003619,0.005348,0.015701,0.017336,0.0231318
0.000367,0.015879,0.003817,0.005156,0.015729,0.018627,0.0223824
0.000352,0.017083,0.004024,0.004464,0.015848,0.019459,0.0215146
0.000353,0.017883,0.004214,0.004008,0.015882,0.020303,0.0208291
0.000353,0.019065,0.004430,0.003360,0.015923,0.021250,0.0200660
0.000248,0.019665,0.004671,0.003476,0.015687,0.022802,0.0192077
0.000113,0.019629,0.004921,0.004048,0.015388,0.024511,0.0184719
0.000001,0.019675,0.005409,0.004474,0.015084,0.025777,0.0178891
0.000001,0.019241,0.005900,0.004714,0.014807,0.027313,0.0174349
0.000001,0.018826,0.006298,0.004933,0.014568,0.028988,0.0168156
0.000001,0.017402,0.006444,0.005651,0.014044,0.031376,0.0160488
0.000001,0.016925,0.006626,0.005697,0.013809,0.033198,0.0153095
0.000001,0.016861,0.006758,0.005697,0.013612,0.035038,0.0145051
0.000001,0.016713,0.006622,0.005697,0.013439,0.036857,0.0136474
0.000001,0.017407,0.006427,0.005697,0.013399,0.038529,0.0128609
0.000001,0.017980,0.006213,0.005697,0.013401,0.040455,0.0120617
0.000001,0.019118,0.006141,0.005678,0.013675,0.041487,0.0114564
0.000001,0.021272,0.006146,0.004957,0.014060,0.041812,0.0109378
0.000001,0.022972,0.006180,0.004486,0.014329,0.042060,0.0105206
0.000001,0.024462,0.006089,0.004062,0.014547,0.042600,0.0100373
0.000001,0.025452,0.006123,0.003605,0.014622,0.042816,0.0096994
0.000001,0.026551,0.006323,0.003179,0.014769,0.042423,0.0094707
0.000001,0.026995,0.006501,0.003084,0.014896,0.041608,0.0093057
0.000001,0.026710,0.006676,0.003412,0.014847,0.041230,0.0091736
0.000000,0.027312,0.006860,0.003269,0.014918,0.040633,0.0089752
0.000037,0.027614,0.007056,0.003259,0.015141,0.039650,0.0088380
0.000046,0.028474,0.007268,0.002921,0.015526,0.037950,0.0087147
0.000046,0.029722,0.007611,0.002349,0.015797,0.036063,0.0087033
0.000046,0.030907,0.007719,0.001922,0.016009,0.034724,0.0085423
0.000046,0.031742,0.007770,0.001682,0.016186,0.033082,0.0084283
0.000084,0.032067,0.007894,0.001464,0.016375,0.031277,0.0083016
0.000091,0.033313,0.008332,0.000827,0.016489,0.028648,0.0083760
0.000117,0.033285,0.008757,0.000892,0.016375,0.026576,0.0083677
0.000176,0.032849,0.009037,0.000892,0.016341,0.024474,0.0082952
0.000307,0.032199,0.009670,0.000892,0.016282,0.022347,0.0082858
0.000452,0.030993,0.010237,0.000892,0.016149,0.020404,0.0082498
0.000578,0.030194,0.010759,0.000892,0.015968,0.018217,0.0083410
0.000671,0.028931,0.011248,0.000892,0.015714,0.016829,0.0081179
0.000747,0.027887,0.011631,0.000892,0.015550,0.015670,0.0079309
0.000819,0.026892,0.011867,0.000892,0.015379,0.014708,0.0076768
0.000894,0.026064,0.011995,0.000892,0.015257,0.013414,0.0074863
0.000997,0.025718,0.012239,0.000892,0.015202,0.012430,0.0071510
0.001175,0.024823,0.012472,0.000892,0.015046,0.011848,0.0068277
0.001395,0.024417,0.012938,0.000599,0.014877,0.011359,0.0068032
0.001565,0.024237,0.013885,0.000722,0.014682,0.010951,0.0066827
0.001976,0.023442,0.015202,0.000644,0.014761,0.010844,0.0066811
0.002380,0.022662,0.016947,0.000644,0.015032,0.011030,0.0066703
0.002815,0.021983,0.018974,0.000666,0.016086,0.011205,0.0070121
0.003272,0.021305,0.020857,0.000715,0.017509,0.011358,0.0072793
0.003743,0.020485,0.022704,0.000857,0.019062,0.011437,0.0074967
0.004227,0.019632,0.024533,0.001161,0.020586,0.011505,0.0077289
0.004781,0.019241,0.026153,0.001161,0.022268,0.011591,0.0080638
0.005326,0.018840,0.027643,0.001080,0.024498,0.011719,0.0083614
0.005875,0.018498,0.029117,0.000969,0.026851,0.011811,0.0087963
0.006358,0.017978,0.030449,0.000969,0.029114,0.011845,0.0093836
0.006764,0.017636,0.031567,0.000969,0.031532,0.011949,0.0100038
0.006984,0.017544,0.032646,0.001286,0.034001,0.011960,0.0105563
0.007168,0.017039,0.033401,0.001835,0.036743,0.011896,0.0111270
0.007327,0.016248,0.033971,0.002608,0.039733,0.011829,0.0117360
0.007444,0.015397,0.034394,0.003907,0.042958,0.011673,0.0123904
0.007665,0.014482,0.034662,0.005797,0.046200,0.011501,0.0130319
0.007814,0.013516,0.034999,0.008109,0.049266,0.011289,0.0134774
0.007840,0.012560,0.035114,0.010723,0.052441,0.011056,0.0139373
0.007923,0.012135,0.035122,0.012710,0.055815,0.010902,0.0143570
0.007966,0.011744,0.034953,0.014524,0.059864,0.010733,0.0146456
0.007970,0.011198,0.034284,0.016310,0.064214,0.010485,0.0149893
0.007680,0.010764,0.033289,0.018790,0.068026,0.010116,0.0151618
0.007351,0.010138,0.031919,0.021243,0.071313,0.009731,0.0152791
0.006938,0.009458,0.030273,0.024325,0.073877,0.009304,0.0150007
0.006481,0.008869,0.028588,0.027691,0.076130,0.008864,0.0147842
0.006104,0.008349,0.026847,0.030799,0.078025,0.008449,0.0145879
0.005951,0.008068,0.025232,0.033629,0.079803,0.008050,0.0143238
0.005829,0.007854,0.023899,0.036536,0.081290,0.007676,0.0140466
0.005948,0.007616,0.022586,0.038976,0.082065,0.007349,0.0138090
0.006093,0.007386,0.021217,0.040891,0.082524,0.007075,0.0134614
0.006329,0.007397,0.020019,0.042590,0.082902,0.006859,0.0130526
0.006804,0.007629,0.018863,0.043760,0.082993,0.006698,0.0126361
0.007390,0.007714,0.017756,0.045025,0.082982,0.006592,0.0122226
0.007969,0.007975,0.017003,0.047077,0.082232,0.006437,0.0117426
0.008684,0.008525,0.016326,0.049098,0.081029,0.006271,0.0112725
0.009409,0.009207,0.015749,0.050795,0.079913,0.006171,0.0106810
0.010139,0.009934,0.015299,0.051822,0.079043,0.006100,0.0101019
0.010996,0.010727,0.014795,0.052504,0.078336,0.006049,0.0097436
0.011905,0.011566,0.014293,0.052763,0.077638,0.006021,0.0093286
0.012785,0.012267,0.013777,0.053264,0.076866,0.005975,0.0088890
0.013765,0.012964,0.013195,0.053618,0.075544,0.005922,0.0084645
0.014917,0.013772,0.012562,0.054476,0.073906,0.005829,0.0080518
0.016019,0.014715,0.011867,0.055494,0.072313,0.005735,0.0075998
0.017239,0.015805,0.011107,0.056320,0.070941,0.005639,0.0071137
0.018668,0.016651,0.010368,0.056149,0.069804,0.005617,0.0067548
0.020027,0.017425,0.009668,0.055967,0.068742,0.005583,0.0063683
0.021360,0.018277,0.009061,0.056263,0.067938,0.005506,0.0059802
0.022470,0.018915,0.008404,0.056348,0.067404,0.005449,0.0056373
0.023460,0.019513,0.007715,0.056135,0.066813,0.005430,0.0052779
0.024280,0.019974,0.007013,0.056296,0.066246,0.005404,0.0048980
0.025049,0.020699,0.006366,0.057974,0.065466,0.005274,0.0045022
0.025967,0.021390,0.005846,0.059764,0.064702,0.005134,0.0040968
0.026837,0.022010,0.005347,0.061422,0.064117,0.004997,0.0037202
0.027942,0.022788,0.004872,0.063076,0.063499,0.004854,0.0034165
0.029052,0.023402,0.004422,0.063773,0.063319,0.004788,0.0031355
0.029995,0.023741,0.004011,0.063472,0.063408,0.004810,0.0028945
0.031060,0.023993,0.003651,0.062319,0.063157,0.004860,0.0027178
0.032185,0.024274,0.003368,0.061808,0.062909,0.004866,0.0025377
0.033092,0.024521,0.003186,0.061676,0.062476,0.004863,0.0023497
0.034066,0.024977,0.003017,0.062584,0.061512,0.004772,0.0021677
0.035028,0.025364,0.002845,0.063948,0.060226,0.004660,0.0019736
0.036073,0.025630,0.002717,0.064853,0.058901,0.004573,0.0017954
0.037014,0.025684,0.002662,0.064440,0.057757,0.004579,0.0016627
0.038358,0.025575,0.002591,0.062978,0.056723,0.004650,0.0016269
0.039974,0.025539,0.002507,0.061421,0.055486,0.004737,0.0016645
0.041530,0.025709,0.002415,0.060863,0.053818,0.004762,0.0016983
0.043095,0.025984,0.002321,0.060546,0.051984,0.004783,0.0017194
0.044651,0.025970,0.002230,0.059273,0.050209,0.004873,0.0017638
0.046068,0.026092,0.002134,0.058569,0.048204,0.004930,0.0018059
0.047825,0.026449,0.002006,0.058800,0.046227,0.004908,0.0018224
0.049499,0.027070,0.001897,0.059196,0.044416,0.004857,0.0018407
0.050960,0.027477,0.001806,0.057616,0.042765,0.004963,0.0018971
0.052301,0.027951,0.001731,0.056475,0.040826,0.005027,0.0019456
0.053731,0.028657,0.001656,0.056836,0.038560,0.004978,0.0019579
0.054993,0.029234,0.001586,0.056574,0.036560,0.004973,0.0019885
0.056214,0.030060,0.001514,0.057417,0.034378,0.004891,0.0020012
0.057482,0.031239,0.001429,0.059277,0.032011,0.004727,0.0019992
0.058560,0.032503,0.001342,0.062025,0.029543,0.004494,0.0019880
0.059229,0.033975,0.001258,0.064999,0.026756,0.004231,0.0019623
0.060105,0.035509,0.001181,0.066873,0.024283,0.004056,0.0019602
0.061062,0.036851,0.001104,0.067580,0.022264,0.003977,0.0019900
0.061887,0.038403,0.001025,0.068331,0.020429,0.003883,0.0020266
0.062531,0.040224,0.000942,0.070563,0.018466,0.003670,0.0020238
0.062816,0.042091,0.000869,0.073117,0.016388,0.003437,0.0020111
0.062767,0.044040,0.000820,0.076449,0.014301,0.003159,0.0019719
0.062350,0.045760,0.000788,0.080137,0.012382,0.002864,0.0019220
0.061819,0.047296,0.000771,0.083067,0.010652,0.002663,0.0018734
0.060953,0.048563,0.000769,0.083835,0.009366,0.002638,0.0018796
0.059795,0.050171,0.000760,0.084990,0.007978,0.002584,0.0018887
0.058735,0.051635,0.000753,0.085930,0.006638,0.002556,0.0019164
0.057327,0.053213,0.000749,0.086836,0.005406,0.002525,0.0019406
0.056073,0.054887,0.000750,0.087632,0.004349,0.002516,0.0019504
0.054966,0.056406,0.000743,0.088821,0.003673,0.002590,0.0019471
0.053357,0.057536,0.000743,0.088966,0.003569,0.002782,0.0019775
0.051236,0.058465,0.000750,0.087862,0.003833,0.003067,0.0020284
0.048914,0.059489,0.000755,0.087277,0.003808,0.003349,0.0020511
0.046574,0.060036,0.000755,0.085223,0.004068,0.003872,0.0021029
0.044217,0.060411,0.000815,0.083300,0.004410,0.004408,0.0021342
0.042044,0.060494,0.000895,0.080562,0.005073,0.005188,0.0021634
0.040091,0.060375,0.001014,0.077031,0.005870,0.006100,0.0022288
0.038100,0.060240,0.001139,0.074303,0.006517,0.006938,0.0022838
0.036017,0.060019,0.001267,0.071824,0.007232,0.007759,0.0023582
0.033971,0.059430,0.001403,0.069358,0.007986,0.008610,0.0024252
0.031608,0.057978,0.001552,0.065167,0.009068,0.009767,0.0025657
0.029408,0.056275,0.001704,0.061146,0.010005,0.010807,0.0027718
0.027188,0.054035,0.001863,0.057344,0.010770,0.011915,0.0029985
0.024868,0.051707,0.001988,0.052867,0.011668,0.013012,0.0034329
0.022447,0.049314,0.002037,0.048624,0.012410,0.013875,0.0040347
0.020388,0.046825,0.002048,0.046024,0.012979,0.014538,0.0047866
0.018565,0.044039,0.002116,0.043564,0.013629,0.015039,0.0057850
0.016765,0.041272,0.002204,0.041087,0.014324,0.015496,0.0067233
0.014956,0.038159,0.002289,0.038394,0.015042,0.015915,0.0077843
0.013045,0.034765,0.002374,0.035787,0.015771,0.016349,0.0087787
0.011202,0.031505,0.002468,0.033742,0.016323,0.016662,0.0097149
0.009774,0.028509,0.002550,0.032336,0.016391,0.016972,0.0104944
0.008584,0.025553,0.002632,0.031292,0.016307,0.017375,0.0111388
0.007588,0.022447,0.002636,0.029940,0.016286,0.017809,0.0118746
0.006708,0.019760,0.002642,0.028665,0.016282,0.018078,0.0125624
0.005887,0.017024,0.002591,0.027000,0.016266,0.018448,0.0132412
0.004998,0.014484,0.002535,0.025938,0.016099,0.018584,0.0139550
0.004135,0.011956,0.002443,0.024869,0.015884,0.018516,0.0148804
0.003261,0.009356,0.002334,0.023730,0.015772,0.018404,0.0157979
0.002374,0.006833,0.002231,0.022742,0.015609,0.018198,0.0167001
0.001493,0.004589,0.002111,0.021610,0.015508,0.018040,0.0176377
0.000925,0.003094,0.001995,0.021507,0.015122,0.017578,0.0184642
0.000609,0.001938,0.001855,0.021121,0.014871,0.017166,0.0191512
0.000358,0.001369,0.001712,0.020321,0.014819,0.016681,0.0196807
0.000193,0.000987,0.001611,0.020141,0.014642,0.016213,0.0199809
0.000132,0.000656,0.001569,0.019887,0.014448,0.015923,0.0204785
0.000139,0.000607,0.001566,0.019501,0.014212,0.015738,0.0206305
0.000139,0.000607,0.001496,0.019262,0.013953,0.015652,0.0207301
0.000139,0.000607,0.001414,0.018994,0.013785,0.015571,0.0210183
0.000139,0.000607,0.001341,0.018582,0.013710,0.015526,0.0212709
0.000139,0.000607,0.001265,0.018208,0.013535,0.015530,0.0216298
0.000139,0.000607,0.001183,0.017862,0.013373,0.015593,0.0217539
0.000143,0.000571,0.001111,0.017575,0.013398,0.015506,0.0220297
0.000222,0.000613,0.001058,0.017016,0.013533,0.015232,0.0222565
0.000303,0.000757,0.001091,0.016473,0.013633,0.014904,0.0224419
0.000389,0.001149,0.001140,0.015941,0.013601,0.014648,0.0225756
0.000458,0.001777,0.001192,0.015372,0.013610,0.014293,0.0225792
0.000554,0.002252,0.001223,0.014769,0.013635,0.013785,0.0228721
0.000630,0.002954,0.001267,0.014102,0.013703,0.013479,0.0226760
0.000656,0.003418,0.001298,0.013692,0.013616,0.013217,0.0228827
0.000670,0.003770,0.001320,0.013207,0.013528,0.013061,0.0230748
0.000707,0.004139,0.001329,0.012623,0.013406,0.012848,0.0232045
0.000737,0.004139,0.001321,0.012199,0.013311,0.012663,0.0234504
0.000753,0.004075,0.001342,0.011909,0.013203,0.012608,0.0237019
0.000778,0.003928,0.001372,0.011624,0.013066,0.012590,0.0240275
0.000819,0.003996,0.001411,0.011156,0.013001,0.012618,0.0241298
0.000893,0.004347,0.001510,0.010611,0.013048,0.012653,0.0238018
0.000896,0.004565,0.001602,0.010458,0.012977,0.012631,0.0237331
0.000927,0.004890,0.001710,0.010171,0.012949,0.012647,0.0234474
0.000939,0.005280,0.001797,0.009902,0.012858,0.012754,0.0229201
0.000978,0.005742,0.001888,0.009505,0.012739,0.012896,0.0222786
0.001024,0.006083,0.001968,0.009052,0.012662,0.012983,0.0216715
0.001186,0.006414,0.002036,0.008246,0.012672,0.013019,0.0213699
0.001330,0.006810,0.002064,0.007446,0.012771,0.013167,0.0210486
0.001403,0.007029,0.002142,0.006965,0.012751,0.013434,0.0210058
0.001458,0.007384,0.002306,0.006470,0.012840,0.013727,0.0208119
0.001502,0.007367,0.002458,0.006190,0.013011,0.013935,0.0206681
0.001592,0.007059,0.002856,0.005993,0.013089,0.014173,0.0207483
0.001590,0.007188,0.003274,0.005920,0.013095,0.014535,0.0204618
0.001570,0.007181,0.003685,0.006013,0.013067,0.014822,0.0202700
0.001649,0.007554,0.004020,0.005554,0.013244,0.015096,0.0196441
0.001635,0.008041,0.004258,0.005409,0.013339,0.015851,0.0188113
0.001598,0.008455,0.004519,0.005400,0.013398,0.016562,0.0180185
0.001590,0.009558,0.004648,0.005047,0.013563,0.017312,0.0170804
0.001585,0.010496,0.004841,0.004712,0.013716,0.017905,0.0163348
0.001511,0.010886,0.005070,0.004871,0.013717,0.018786,0.0157560
0.001570,0.011313,0.005327,0.004586,0.013793,0.019823,0.0153032
0.001595,0.011914,0.005595,0.004324,0.013969,0.020365,0.0149248
0.001689,0.012680,0.005898,0.003779,0.014192,0.020896,0.0144981
0.001745,0.013246,0.006141,0.003336,0.014313,0.021426,0.0141465
0.001817,0.013707,0.006358,0.002895,0.014367,0.022353,0.0138665
0.001865,0.014190,0.006442,0.002565,0.014494,0.023386,0.0135084
0.001859,0.015065,0.006724,0.002207,0.014622,0.023849,0.0130876
0.001812,0.015403,0.007062,0.002209,0.014580,0.024234,0.0128223
0.001765,0.015457,0.007372,0.002341,0.014494,0.024603,0.0125866
0.001736,0.015537,0.007706,0.002432,0.014477,0.024844,0.0122596
0.001713,0.015303,0.007878,0.002575,0.014437,0.025089,0.0120793
0.001679,0.015316,0.008140,0.002575,0.014419,0.024913,0.0119542
0.001556,0.015824,0.008094,0.002669,0.014475,0.024619,0.0117238
0.001496,0.016215,0.007921,0.002606,0.014534,0.024416,0.0113921
0.001459,0.016529,0.007872,0.002460,0.014610,0.024141,0.0113230
0.001366,0.016951,0.007823,0.002464,0.014585,0.023934,0.0112911
0.001366,0.017668,0.007872,0.002073,0.014680,0.023249,0.0113674
0.001378,0.018233,0.007931,0.001662,0.014780,0.022514,0.0114914
0.001357,0.018392,0.008052,0.001427,0.014809,0.021770,0.0117586
0.001345,0.018497,0.008144,0.001222,0.014821,0.021118,0.0118866
0.001348,0.019373,0.008186,0.000583,0.015012,0.020194,0.0118713
0.001201,0.020108,0.008186,0.000583,0.015035,0.019046,0.0117690
0.001235,0.020222,0.008160,0.000589,0.014962,0.018316,0.0116892
0.001304,0.020185,0.008079,0.000589,0.014893,0.017634,0.0114854
0.001380,0.020390,0.008237,0.000589,0.014867,0.016963,0.0111386
0.001465,0.020591,0.008513,0.000589,0.014888,0.015841,0.0108353
0.001582,0.020584,0.008921,0.000589,0.014898,0.014596,0.0107057
0.001825,0.019860,0.009292,0.000589,0.014884,0.013912,0.0105997
0.001894,0.019678,0.009677,0.000580,0.014960,0.013301,0.0103198
0.001982,0.019679,0.010437,0.000449,0.014958,0.012636,0.0101403
0.002040,0.019783,0.011126,0.000358,0.014959,0.012038,0.0099097
0.002201,0.019951,0.012435,0.000214,0.015000,0.011490,0.0097667
0.002329,0.019983,0.013765,0.000569,0.014950,0.011364,0.0096186
0.002463,0.019470,0.015375,0.001162,0.015241,0.011374,0.0095900
0.002629,0.018744,0.017091,0.001981,0.015597,0.011337,0.0097457
0.002810,0.017960,0.018638,0.003165,0.015912,0.011358,0.0098479
0.002993,0.016913,0.020262,0.004475,0.016243,0.011333,0.0099614
0.003153,0.015557,0.021966,0.005956,0.016454,0.011265,0.0102649
0.003296,0.014293,0.023417,0.007526,0.016862,0.011266,0.0106312
0.003438,0.013137,0.024976,0.009155,0.017447,0.011265,0.0109004
0.003491,0.012094,0.026535,0.011124,0.018904,0.011251,0.0112039
0.003598,0.010829,0.028252,0.013235,0.020731,0.011177,0.0115634
0.003856,0.009559,0.029712,0.014809,0.022757,0.011148,0.0120846
0.003969,0.008607,0.031029,0.016239,0.024869,0.011174,0.0125550
0.003998,0.007736,0.032288,0.017786,0.027163,0.011172,0.0130485
0.003947,0.006653,0.033331,0.019838,0.029750,0.011132,0.0136137
0.003818,0.005601,0.034155,0.022302,0.032890,0.011038,0.0141609
0.003615,0.004663,0.035004,0.024892,0.036073,0.010940,0.0146285
0.003426,0.004200,0.035632,0.027466,0.039089,0.010811,0.0151076
0.003576,0.003712,0.036261,0.029295,0.042399,0.010652,0.0156429
0.003767,0.003261,0.036560,0.030688,0.046056,0.010534,0.0159987
0.004013,0.002862,0.036847,0.031807,0.049749,0.010421,0.0163554
0.004160,0.002613,0.036607,0.033487,0.053328,0.010220,0.0166009
0.004436,0.002197,0.036179,0.034744,0.057179,0.010091,0.0167789
0.004818,0.002077,0.035576,0.035511,0.060787,0.009925,0.0167677
0.004981,0.002067,0.035051,0.037172,0.064818,0.009698,0.0166335
0.005017,0.002199,0.034502,0.038906,0.068478,0.009465,0.0164438
0.004991,0.002297,0.033843,0.040852,0.071957,0.009236,0.0162270
0.005130,0.002327,0.032936,0.042844,0.075741,0.009004,0.0159803
0.005441,0.002502,0.032261,0.044403,0.079374,0.008805,0.0156837
0.005814,0.002674,0.031697,0.045694,0.082674,0.008618,0.0153870
0.006210,0.002934,0.031108,0.046510,0.084948,0.008463,0.0151676
0.006638,0.003095,0.030322,0.046890,0.086611,0.008334,0.0149484
0.007023,0.003421,0.029670,0.048169,0.087916,0.008159,0.0147120
0.007254,0.003926,0.029109,0.050078,0.089378,0.007962,0.0143996
0.007393,0.004578,0.028426,0.053019,0.090450,0.007679,0.0141314
0.007548,0.005202,0.027687,0.055999,0.091516,0.007385,0.0139255
0.007710,0.005612,0.027050,0.058757,0.092593,0.007117,0.0138097
0.007905,0.005982,0.026336,0.060799,0.093706,0.006899,0.0137118
0.007950,0.006437,0.025698,0.063032,0.094854,0.006658,0.0135071
0.007860,0.006924,0.024985,0.066034,0.095673,0.006412,0.0132274
0.008175,0.007514,0.024154,0.067729,0.095782,0.006267,0.0130217
0.008725,0.008092,0.023339,0.069716,0.095707,0.006095,0.0128530
0.009299,0.008625,0.022448,0.071077,0.095505,0.005942,0.0126666
0.009691,0.009102,0.021616,0.072412,0.094811,0.005775,0.0124599
0.009895,0.009444,0.020691,0.074336,0.094162,0.005556,0.0123072
0.010311,0.009770,0.019501,0.075263,0.092989,0.005379,0.0122796
0.010940,0.010159,0.018330,0.075380,0.092223,0.005252,0.0121698
0.011777,0.010809,0.017275,0.075927,0.091377,0.005084,0.0120145
0.012514,0.011526,0.016380,0.076904,0.090145,0.004886,0.0117592
0.013167,0.012285,0.015482,0.078365,0.088615,0.004663,0.0114242
0.013896,0.013297,0.014436,0.080259,0.086851,0.004418,0.0110474
0.014767,0.014503,0.013362,0.082079,0.084803,0.004180,0.0105009
0.015695,0.015837,0.012344,0.083786,0.082715,0.003967,0.0098543
0.016617,0.016863,0.011440,0.085474,0.080761,0.003755,0.0092537
0.017763,0.017661,0.010505,0.086465,0.078545,0.003593,0.0087704
0.019070,0.018556,0.009708,0.087312,0.076196,0.003456,0.0082580
0.020401,0.019556,0.008967,0.088579,0.073427,0.003305,0.0076713
0.021683,0.020713,0.008234,0.089212,0.070124,0.003212,0.0070026
0.023019,0.021954,0.007527,0.090280,0.066631,0.003092,0.0063587
0.024557,0.023323,0.006798,0.091475,0.063197,0.002963,0.0057806
0.026281,0.024793,0.006076,0.092681,0.059507,0.002829,0.0052231
0.027716,0.026235,0.005494,0.095678,0.056243,0.002585,0.0046335
0.028986,0.027706,0.004877,0.099328,0.052881,0.002344,0.0040392
0.030174,0.029365,0.004320,0.102575,0.049533,0.002113,0.0034728
0.031382,0.031150,0.003782,0.105036,0.046528,0.001893,0.0030063
0.032798,0.032991,0.003295,0.106609,0.043423,0.001740,0.0026042
0.034359,0.034778,0.003005,0.107166,0.040572,0.001681,0.0021884
0.035887,0.036730,0.002750,0.107799,0.037654,0.001593,0.0018846
0.037418,0.038580,0.002501,0.107657,0.034876,0.001542,0.0016435
0.038989,0.040672,0.002258,0.107650,0.031930,0.001495,0.0014218
0.040470,0.042843,0.002023,0.107683,0.029216,0.001436,0.0011964
0.041739,0.044721,0.001798,0.106183,0.027083,0.001481,0.0010854
0.042888,0.046896,0.001567,0.105229,0.025039,0.001466,0.0010374
0.043979,0.049192,0.001324,0.105041,0.023006,0.001379,0.0010784
0.044932,0.051472,0.001082,0.104401,0.020962,0.001317,0.0011323
0.045619,0.053613,0.000894,0.103824,0.019023,0.001253,0.0011712
0.046004,0.055521,0.000768,0.101781,0.017540,0.001284,0.0012527
0.046481,0.057610,0.000674,0.099897,0.015995,0.001297,0.0013331
0.047304,0.059826,0.000595,0.099664,0.014419,0.001239,0.0013727
0.048153,0.061857,0.000540,0.099862,0.012963,0.001177,0.0013883
0.048761,0.063581,0.000515,0.099286,0.011734,0.001165,0.0014277
0.048891,0.065119,0.000502,0.098529,0.010761,0.001192,0.0014648
0.048594,0.066484,0.000493,0.098158,0.009704,0.001194,0.0014869
0.048174,0.067490,0.000498,0.097449,0.008823,0.001205,0.0015083
0.047625,0.068214,0.000496,0.097124,0.008095,0.001239,0.0015096
0.047062,0.068942,0.000500,0.096673,0.007419,0.001310,0.0015159
0.046525,0.069654,0.000505,0.096601,0.006702,0.001364,0.0015097
0.045818,0.070364,0.000509,0.097605,0.005751,0.001357,0.0014827
0.044889,0.070493,0.000532,0.098619,0.005025,0.001396,0.0014513
0.043712,0.070501,0.000562,0.099291,0.004402,0.001489,0.0014232
0.042460,0.070292,0.000590,0.099456,0.004007,0.001684,0.0014269
0.041216,0.070130,0.000617,0.099731,0.003589,0.001922,0.0014313
0.040031,0.069878,0.000635,0.101189,0.003033,0.002100,0.0014043
0.038763,0.068870,0.000675,0.100848,0.003198,0.002419,0.0014176
0.037142,0.067389,0.000732,0.098449,0.003807,0.002905,0.0014851
0.035434,0.065822,0.000792,0.095681,0.004436,0.003440,0.0015671
0.033889,0.064368,0.000851,0.093160,0.005019,0.003959,0.0016434
0.032572,0.062846,0.000904,0.091345,0.005438,0.004513,0.0016930
0.031237,0.061092,0.000958,0.088289,0.006163,0.005164,0.0017662
0.029617,0.059154,0.001028,0.083869,0.007182,0.005845,0.0018859
0.027935,0.057349,0.001097,0.078992,0.008230,0.006584,0.0020253
0.026174,0.055425,0.001166,0.075109,0.009031,0.007330,0.0021390
0.024500,0.053403,0.001254,0.070917,0.009975,0.008079,0.0022640
0.023056,0.050950,0.001380,0.065946,0.011018,0.008872,0.0025673
0.021507,0.048328,0.001567,0.060388,0.012173,0.009747,0.0030428
0.019951,0.045652,0.001737,0.055456,0.013084,0.010798,0.0036153
0.018520,0.042924,0.001905,0.051276,0.013828,0.011774,0.0042188
0.016890,0.040016,0.002061,0.047196,0.014341,0.012677,0.0050714
0.015258,0.037032,0.002192,0.043035,0.014837,0.013485,0.0060087
0.013794,0.034203,0.002303,0.039201,0.015208,0.014199,0.0072654
0.012434,0.031386,0.002361,0.035701,0.015528,0.014880,0.0084546
0.011079,0.028558,0.002430,0.031905,0.015925,0.015430,0.0095291
0.009722,0.025530,0.002501,0.027816,0.016379,0.015849,0.0106351
0.008394,0.022612,0.002575,0.023878,0.016668,0.016326,0.0117404
0.007157,0.019979,0.002619,0.021719,0.016600,0.016674,0.0128407
0.006224,0.017709,0.002620,0.021291,0.016318,0.016942,0.0135007
0.005413,0.015594,0.002603,0.021391,0.016144,0.017009,0.0142241
0.004688,0.013488,0.002593,0.021236,0.016051,0.016944,0.0150257
0.004034,0.011566,0.002574,0.020798,0.016029,0.016830,0.0158348
0.003383,0.009829,0.002560,0.020295,0.015999,0.016675,0.0165565
0.002792,0.008280,0.002551,0.019574,0.015712,0.016588,0.0171618
0.002166,0.006935,0.002532,0.018887,0.015322,0.016511,0.0177547
0.001715,0.005827,0.002499,0.017629,0.014999,0.016428,0.0183363
0.001358,0.004993,0.002433,0.016868,0.014578,0.016294,0.0189648
0.001045,0.004514,0.002335,0.016461,0.014221,0.016128,0.0194727
0.000846,0.004581,0.002176,0.016203,0.013822,0.015909,0.0197220
0.000839,0.004750,0.002024,0.015384,0.013625,0.015474,0.0199475
0.000800,0.004744,0.001877,0.014967,0.013510,0.014970,0.0201757
0.000906,0.004975,0.001739,0.014339,0.013678,0.014558,0.0200814
0.000978,0.005249,0.001637,0.013735,0.013818,0.014343,0.0198123
0.001041,0.005628,0.001528,0.013077,0.013915,0.014194,0.0192821
0.001075,0.005862,0.001475,0.012717,0.014056,0.013986,0.0189509
0.001094,0.005862,0.001414,0.012579,0.014184,0.013837,0.0188746
0.001129,0.005862,0.001348,0.012387,0.014304,0.013781,0.0187798
0.001129,0.005862,0.001274,0.012272,0.014442,0.013610,0.0188997
0.001149,0.005862,0.001222,0.011752,0.014652,0.013337,0.0189632
0.001149,0.005823,0.001176,0.011279,0.014778,0.012947,0.0197520
0.001149,0.005772,0.001132,0.010698,0.014755,0.012774,0.0204492
0.001107,0.005772,0.001083,0.010255,0.014684,0.012801,0.0209097
0.001046,0.005685,0.001052,0.009830,0.014597,0.012837,0.0213857
0.000958,0.005532,0.001018,0.009574,0.014478,0.012911,0.0219507
0.000861,0.005588,0.000956,0.009572,0.014374,0.013018,0.0226390
0.000789,0.005731,0.000929,0.009553,0.014345,0.013103,0.0229564
0.000759,0.005963,0.000914,0.009362,0.014422,0.013143,0.0231649
0.000749,0.006084,0.000907,0.009123,0.014467,0.013156,0.0234574
0.000703,0.006337,0.000887,0.009068,0.014400,0.013234,0.0236943
0.000660,0.006880,0.000867,0.008850,0.014376,0.013326,0.0238134
0.000624,0.006994,0.000875,0.008886,0.014319,0.013371,0.0240791
0.000558,0.007360,0.000879,0.008895,0.014182,0.013537,0.0242542
0.000446,0.007893,0.000881,0.008990,0.014052,0.013702,0.0244430
0.000373,0.008940,0.000878,0.008777,0.013984,0.013803,0.0246716
0.000310,0.009915,0.000988,0.008530,0.013905,0.013810,0.0248481
0.000276,0.010433,0.001201,0.008404,0.013907,0.013833,0.0250169
0.000257,0.011288,0.001429,0.008011,0.013979,0.013867,0.0247630
0.000222,0.012274,0.001664,0.007596,0.014053,0.013875,0.0244783
0.000222,0.013065,0.001930,0.007183,0.014145,0.013956,0.0240118
0.000202,0.013630,0.002355,0.006959,0.014182,0.014199,0.0235011
0.000202,0.014132,0.002717,0.006739,0.014306,0.014950,0.0224487
0.000202,0.014616,0.003113,0.006529,0.014366,0.015655,0.0213886
0.000202,0.015521,0.003547,0.006109,0.014392,0.016356,0.0205601
0.000202,0.016318,0.003954,0.005734,0.014459,0.017051,0.0198745
0.000202,0.017074,0.004340,0.005395,0.014487,0.018053,0.0190406
0.000202,0.017421,0.004585,0.005242,0.014501,0.018974,0.0182187
0.000202,0.017563,0.004893,0.005209,0.014440,0.019417,0.0180778
0.000157,0.017005,0.005084,0.005750,0.014203,0.020592,0.0178798
0.000101,0.016315,0.005236,0.006388,0.013940,0.021909,0.0174506
0.000071,0.016189,0.005418,0.006618,0.013860,0.023416,0.0168630
0.000035,0.016200,0.005598,0.006816,0.013785,0.024788,0.0165055
0.000000,0.016447,0.005770,0.006868,0.013783,0.026143,0.0159815
0.000000,0.017222,0.005899,0.006499,0.013873,0.027403,0.0155217
0.000000,0.017692,0.005976,0.006273,0.013929,0.028919,0.0149730
0.000000,0.017747,0.006009,0.006241,0.014005,0.030638,0.0144254
0.000000,0.017498,0.005898,0.006381,0.014025,0.032420,0.0139332
0.000000,0.018096,0.005713,0.006031,0.013990,0.033853,0.0133541
0.000000,0.018738,0.005508,0.005749,0.013902,0.035331,0.0130624
0.000000,0.018620,0.005221,0.005826,0.013796,0.037526,0.0124571
0.000000,0.019200,0.004911,0.005522,0.013793,0.039479,0.0119435
0.000000,0.020090,0.004519,0.005114,0.013810,0.040891,0.0115858
0.000000,0.020983,0.004412,0.004625,0.013824,0.041725,0.0113421
0.000000,0.021243,0.004284,0.004505,0.013880,0.042475,0.0113607
0.000000,0.021000,0.004178,0.004570,0.013936,0.043058,0.0112889
0.000000,0.021484,0.004104,0.004332,0.013946,0.043141,0.0111906
0.000000,0.022203,0.004107,0.004072,0.014016,0.042147,0.0113078
0.000000,0.023237,0.004230,0.003743,0.014050,0.041131,0.0113937
0.000000,0.024267,0.004160,0.003464,0.014090,0.040591,0.0112775
0.000000,0.025878,0.004221,0.002829,0.014251,0.039366,0.0111119
0.000000,0.027660,0.004441,0.002103,0.014443,0.038028,0.0109238
0.000000,0.028701,0.004780,0.001591,0.014521,0.036330,0.0109267
0.000000,0.029117,0.005135,0.001379,0.014542,0.034694,0.0108786
0.000000,0.029673,0.005456,0.001080,0.014600,0.033152,0.0107413
0.000000,0.029599,0.005724,0.001080,0.014564,0.031601,0.0104713
0.000000,0.029536,0.006280,0.001039,0.014498,0.029767,0.0103603
0.000000,0.029706,0.006718,0.001031,0.014420,0.027743,0.0102916
0.000000,0.030267,0.007105,0.000888,0.014457,0.025745,0.0100885
0.000000,0.030594,0.007421,0.000888,0.014450,0.024126,0.0097365
0.000000,0.030453,0.007877,0.000888,0.014383,0.022427,0.0093799
0.000004,0.030910,0.008638,0.000608,0.014325,0.020038,0.0094000
0.000004,0.030902,0.009294,0.000608,0.014213,0.017869,0.0092901
0.000225,0.030555,0.010217,0.000622,0.014046,0.016206,0.0091588
0.000453,0.030132,0.011415,0.000712,0.014026,0.014696,0.0091485
0.000516,0.030389,0.013384,0.001214,0.014411,0.013272,0.0088797
0.000649,0.030605,0.015342,0.001776,0.015144,0.011963,0.0088552
0.000715,0.030097,0.017314,0.002971,0.016161,0.011108,0.0087791
0.000715,0.029171,0.019336,0.004497,0.017406,0.011028,0.0087957
0.000715,0.027993,0.021422,0.006104,0.018860,0.010950,0.0088537
0.000715,0.026735,0.023511,0.007753,0.020564,0.010826,0.0088223
0.000715,0.025323,0.025439,0.009186,0.022975,0.010718,0.0089972
0.000715,0.023642,0.027231,0.010523,0.025660,0.010592,0.0092962
0.000715,0.022219,0.028817,0.011952,0.028305,0.010571,0.0095827
0.000715,0.020820,0.030174,0.013426,0.030957,0.010566,0.0099922
0.000715,0.019499,0.031283,0.014974,0.033725,0.010547,0.0103752
0.000715,0.018165,0.032301,0.016589,0.036618,0.010568,0.0108912
0.000715,0.016785,0.032824,0.018466,0.039805,0.010507,0.0114211
0.000715,0.015141,0.033411,0.020519,0.042918,0.010381,0.0118009
0.000715,0.013476,0.034084,0.022649,0.046004,0.010230,0.0122828
0.000715,0.011806,0.034836,0.024783,0.049297,0.010074,0.0127906
0.000715,0.010450,0.035438,0.026930,0.052767,0.009950,0.0133341
0.000711,0.009155,0.035694,0.029218,0.056399,0.009841,0.0137834
0.000711,0.007923,0.035920,0.031599,0.060238,0.009659,0.0140739
0.000490,0.006915,0.035765,0.034729,0.064236,0.009393,0.0141790
0.000262,0.006043,0.035141,0.038494,0.068116,0.009056,0.0142917
0.000199,0.005118,0.033743,0.041567,0.071263,0.008691,0.0144493
0.000065,0.004586,0.032374,0.044699,0.073836,0.008306,0.0143448
0.000000,0.004105,0.031064,0.047391,0.076329,0.007940,0.0141074
0.000000,0.003758,0.029853,0.049739,0.078602,0.007564,0.0136203
0.000000,0.003539,0.028653,0.052173,0.080645,0.007177,0.0130817
0.000000,0.003452,0.027480,0.054626,0.082465,0.006773,0.0125307
0.000000,0.003411,0.026294,0.057250,0.083631,0.006357,0.0120822
0.000000,0.003549,0.025113,0.060090,0.084542,0.005944,0.0117092
0.000000,0.003578,0.023967,0.062793,0.085548,0.005541,0.0113536
0.000000,0.003746,0.022924,0.065435,0.086348,0.005171,0.0108513
0.000000,0.003955,0.022143,0.068527,0.086799,0.004781,0.0103291
0.000000,0.004274,0.021590,0.071991,0.087181,0.004377,0.0097324
0.000126,0.004854,0.021242,0.075725,0.087161,0.004018,0.0091434
0.000445,0.005289,0.021076,0.078486,0.087231,0.003716,0.0088042
0.000820,0.005658,0.020997,0.080245,0.087183,0.003494,0.0084100
0.001118,0.006041,0.020831,0.082120,0.087140,0.003263,0.0080817
0.001526,0.006324,0.020549,0.083767,0.087141,0.003069,0.0077483
0.002091,0.006582,0.020318,0.085105,0.086979,0.002893,0.0074976
0.002787,0.006564,0.020088,0.086064,0.086810,0.002802,0.0075746
0.003483,0.006495,0.019827,0.086409,0.086585,0.002793,0.0078792
0.004273,0.006398,0.019557,0.086790,0.086182,0.002792,0.0081645
0.005157,0.006603,0.019279,0.088034,0.085710,0.002732,0.0083762
0.005939,0.006584,0.018881,0.089394,0.085802,0.002680,0.0085266
0.006815,0.006752,0.018391,0.090546,0.085839,0.002663,0.0086695
0.007815,0.006884,0.017854,0.091687,0.086036,0.002644,0.0088766
0.008898,0.007100,0.017378,0.093605,0.086073,0.002572,0.0090834
0.010040,0.007220,0.016980,0.095336,0.086437,0.002522,0.0092941
0.011434,0.007201,0.016688,0.095204,0.086897,0.002599,0.0094781
0.012786,0.007568,0.016329,0.095178,0.086832,0.002698,0.0094668
0.014338,0.008279,0.015864,0.095523,0.086882,0.002770,0.0093712
0.016012,0.009088,0.015482,0.095655,0.087006,0.002841,0.0093267
0.017789,0.009954,0.015101,0.095859,0.086829,0.002883,0.0093366
0.019608,0.011009,0.014635,0.096753,0.086481,0.002857,0.0093743
0.021240,0.012120,0.014128,0.097872,0.085850,0.002818,0.0092490
0.022766,0.013560,0.013521,0.100314,0.084897,0.002734,0.0088855
0.024397,0.015271,0.012818,0.103640,0.083964,0.002586,0.0085230
0.026107,0.016881,0.012173,0.105647,0.082920,0.002459,0.0081836
0.027848,0.018597,0.011657,0.106835,0.081349,0.002385,0.0078307
0.029393,0.020226,0.011216,0.108262,0.079694,0.002299,0.0074486
0.030755,0.022296,0.010793,0.110397,0.077491,0.002133,0.0068988
0.032131,0.024642,0.010298,0.112487,0.075123,0.001946,0.0062371
0.033501,0.027093,0.009768,0.113691,0.072432,0.001801,0.0055603
0.034604,0.029354,0.009229,0.114826,0.069911,0.001699,0.0049081
0.035982,0.031606,0.008723,0.115864,0.066999,0.001601,0.0043545
0.037209,0.033616,0.008225,0.116013,0.064038,0.001495,0.0039074
0.038244,0.035527,0.007578,0.116135,0.060574,0.001382,0.0034844
0.039231,0.037751,0.006831,0.115985,0.057089,0.001313,0.0030595
0.040176,0.039862,0.006080,0.115311,0.053162,0.001265,0.0026438
0.040911,0.042289,0.005377,0.116591,0.048987,0.001077,0.0021797
0.041710,0.044450,0.004742,0.117254,0.045529,0.000920,0.0018428
0.042262,0.046183,0.004241,0.116047,0.042181,0.000908,0.0016007
0.042604,0.047863,0.003762,0.115518,0.038884,0.000849,0.0013578
0.042776,0.049620,0.003292,0.114876,0.036008,0.000805,0.0011309
0.042940,0.051394,0.002851,0.113416,0.033048,0.000827,0.0009060
0.043203,0.052926,0.002503,0.110840,0.030423,0.000924,0.0008180
0.043357,0.054328,0.002166,0.107594,0.028056,0.001026,0.0008733
0.043321,0.055661,0.001844,0.103764,0.025879,0.001170,0.0009584
0.043469,0.057219,0.001503,0.101952,0.023327,0.001254,0.0010247
0.043708,0.058834,0.001160,0.100493,0.021177,0.001320,0.0010802
0.043913,0.060649,0.000816,0.099943,0.018936,0.001307,0.0011153
0.044176,0.062239,0.000586,0.098985,0.016997,0.001344,0.0011559
0.044349,0.063507,0.000489,0.097549,0.015291,0.001420,0.0012184
0.044313,0.064687,0.000438,0.095604,0.014432,0.001545,0.0012933
0.044348,0.065942,0.000411,0.092036,0.014130,0.001745,0.0014096
0.044122,0.067187,0.000390,0.088308,0.013839,0.001949,0.0015310
0.043877,0.068373,0.000367,0.086088,0.013273,0.002117,0.0016123
0.043662,0.069609,0.000338,0.084109,0.012821,0.002284,0.0016838
0.043406,0.070250,0.000316,0.081545,0.012554,0.002485,0.0017672
0.043108,0.070755,0.000300,0.079368,0.012479,0.002693,0.0018370
0.042797,0.071415,0.000276,0.078009,0.012439,0.002880,0.0018889
0.042423,0.072333,0.000257,0.077118,0.012259,0.003069,0.0019218
0.041966,0.073182,0.000257,0.077018,0.012003,0.003233,0.0019376
0.041350,0.073705,0.000262,0.075968,0.011911,0.003559,0.0019654
0.040334,0.073894,0.000282,0.074534,0.011915,0.003905,0.0019985
0.038989,0.073609,0.000365,0.072741,0.012379,0.004335,0.0020385
0.037520,0.073368,0.000463,0.071333,0.013064,0.004763,0.0020610
0.036090,0.072925,0.000573,0.069818,0.013799,0.005209,0.0020811
0.034661,0.071953,0.000694,0.068343,0.014391,0.005665,0.0021219
0.033011,0.070440,0.000832,0.066113,0.015140,0.006209,0.0022020
0.031081,0.068765,0.000976,0.064690,0.015837,0.006690,0.0022559
0.029222,0.067127,0.001120,0.062188,0.016670,0.007252,0.0023297
0.027263,0.065416,0.001279,0.059476,0.017557,0.007876,0.0024066
0.025256,0.063687,0.001475,0.056947,0.018224,0.008534,0.0025671
0.023185,0.060660,0.001666,0.054261,0.018682,0.009280,0.0029829
0.021168,0.057222,0.001841,0.052686,0.018722,0.010021,0.0035568
0.019234,0.053517,0.002003,0.051220,0.018446,0.010801,0.0043720
0.017376,0.049864,0.002189,0.049478,0.018278,0.011627,0.0052008
0.015557,0.046301,0.002374,0.047484,0.018260,0.012393,0.0061422
0.013742,0.042884,0.002588,0.045170,0.018405,0.013115,0.0071797
0.011952,0.039685,0.002840,0.043062,0.018288,0.013866,0.0081544
0.010135,0.036242,0.003108,0.040114,0.018241,0.014583,0.0090741
0.008358,0.032485,0.003342,0.037078,0.018150,0.015308,0.0098483
0.006711,0.028954,0.003492,0.034834,0.017913,0.015887,0.0106950
0.005312,0.025620,0.003630,0.033114,0.017653,0.016319,0.0115824
0.004377,0.022398,0.003688,0.031256,0.017302,0.016730,0.0124462
0.003760,0.019490,0.003652,0.029604,0.016863,0.016946,0.0131973
0.003268,0.016696,0.003609,0.027713,0.016319,0.017046,0.0138744
0.002822,0.014068,0.003553,0.025882,0.015772,0.017029,0.0146290
0.002376,0.011876,0.003485,0.024770,0.015262,0.017022,0.0153191
0.002012,0.010199,0.003404,0.023397,0.014883,0.017008,0.0159775
0.001729,0.008899,0.003322,0.021707,0.014541,0.016992,0.0165744
0.001449,0.007310,0.003232,0.019898,0.014198,0.016990,0.0173736
0.001305,0.005578,0.003110,0.018254,0.013885,0.016937,0.0183805
0.001168,0.003799,0.002922,0.017208,0.013596,0.016887,0.0196086
0.001231,0.003389,0.002747,0.016815,0.013135,0.016662,0.0205563
0.001343,0.003068,0.002594,0.016071,0.012782,0.016399,0.0213886
0.001396,0.002949,0.002463,0.015485,0.012809,0.016055,0.0219631
0.001433,0.002949,0.002303,0.014912,0.012958,0.015686,0.0224626
0.001440,0.003189,0.002167,0.014301,0.013118,0.015473,0.0225904
0.001478,0.003423,0.002009,0.013799,0.013184,0.015222,0.0225362
0.001516,0.003464,0.001788,0.013416,0.013390,0.014832,0.0227543
0.001522,0.003611,0.001579,0.013083,0.013576,0.014541,0.0229786
0.001522,0.003668,0.001393,0.012814,0.013727,0.014256,0.0234542
0.001527,0.003834,0.001286,0.012417,0.013831,0.013992,0.0237681
0.001527,0.003834,0.001175,0.012150,0.013864,0.013619,0.0243146
0.001527,0.003862,0.001148,0.011910,0.014008,0.013340,0.0247035
0.001530,0.003957,0.001182,0.011382,0.014055,0.013215,0.0250601
0.001491,0.003874,0.001215,0.011142,0.014121,0.013153,0.0255142
0.001412,0.004070,0.001254,0.010904,0.014218,0.013218,0.0256763
0.001328,0.004348,0.001286,0.010593,0.014286,0.013228,0.0259184
0.001186,0.004615,0.001312,0.010416,0.014252,0.013381,0.0260632
0.001050,0.004679,0.001333,0.010296,0.014191,0.013541,0.0262609
0.000901,0.005000,0.001373,0.010350,0.014208,0.013681,0.0261177
0.000746,0.005384,0.001379,0.010356,0.014166,0.013782,0.0258369
0.000707,0.005796,0.001424,0.009982,0.014189,0.013817,0.0251931
0.000661,0.005806,0.001432,0.009918,0.014164,0.013859,0.0248491
0.000635,0.005889,0.001448,0.009858,0.014280,0.013739,0.0245829
0.000671,0.005906,0.001467,0.009642,0.014422,0.013635,0.0242066
0.000723,0.005915,0.001488,0.009365,0.014487,0.013599,0.0238402
0.000803,0.006160,0.001513,0.008926,0.014606,0.013525,0.0235660
0.000828,0.006197,0.001615,0.008797,0.014637,0.013398,0.0237745
0.000908,0.006653,0.001769,0.008307,0.014706,0.013394,0.0234500
0.000966,0.007333,0.001897,0.007741,0.014791,0.013416,0.0229179
0.000966,0.008657,0.002031,0.007124,0.014886,0.013472,0.0222466
0.000961,0.009378,0.002109,0.006778,0.014895,0.014314,0.0215780
0.000961,0.010457,0.002181,0.006148,0.014912,0.015300,0.0207261
0.000961,0.011616,0.002238,0.005545,0.014872,0.016433,0.0197640
0.000937,0.012192,0.002338,0.005338,0.014717,0.017745,0.0191455
0.000917,0.012616,0.002441,0.005175,0.014451,0.019093,0.0187011
0.000871,0.012555,0.002562,0.005333,0.014106,0.020565,0.0184858
0.000861,0.012982,0.002764,0.005042,0.013951,0.021247,0.0182804
0.000861,0.012674,0.003122,0.005180,0.013729,0.022181,0.0182258
0.000822,0.012274,0.003438,0.005384,0.013554,0.023238,0.0181161
0.000826,0.012351,0.003721,0.005144,0.013492,0.024030,0.0178862
0.000761,0.012917,0.004044,0.004978,0.013465,0.025020,0.0175111
0.000699,0.012760,0.004399,0.005200,0.013298,0.026578,0.0171381
0.000630,0.012930,0.004742,0.005309,0.013162,0.028162,0.0165857
0.000539,0.013069,0.004913,0.005573,0.012980,0.029856,0.0157789
0.000449,0.013543,0.005089,0.005685,0.012820,0.031189,0.0151638
0.000361,0.014253,0.005272,0.005669,0.012785,0.032529,0.0146212
0.000273,0.013768,0.005397,0.006347,0.012562,0.034417,0.0140969
0.000211,0.014087,0.005453,0.006464,0.012573,0.035700,0.0132512
0.000114,0.013897,0.005472,0.006978,0.012532,0.036905,0.0128581
0.000089,0.013308,0.005520,0.007405,0.012562,0.037899,0.0127482
0.000202,0.011999,0.005539,0.007687,0.012645,0.039126,0.0126239
0.000202,0.011112,0.005574,0.008234,0.012612,0.039770,0.0125737
0.000202,0.010033,0.005701,0.008889,0.012531,0.040331,0.0124043
0.000202,0.008845,0.005726,0.009521,0.012423,0.040906,0.0124916
0.000202,0.008084,0.005696,0.009896,0.012474,0.041379,0.0122704
0.000202,0.007557,0.005647,0.010140,0.012542,0.041812,0.0118436
0.000202,0.007215,0.005684,0.010241,0.012593,0.041633,0.0116314
0.000202,0.006261,0.005701,0.010742,0.012439,0.042169,0.0113868
0.000292,0.006718,0.005547,0.010179,0.012717,0.041544,0.0112105
0.000394,0.007245,0.005437,0.009684,0.012979,0.040328,0.0111275
0.000386,0.007527,0.005364,0.009679,0.013044,0.039318,0.0112162
0.000386,0.007752,0.005426,0.009679,0.013086,0.038134,0.0114646
0.000386,0.008816,0.005383,0.009261,0.013260,0.036517,0.0117045
0.000386,0.009980,0.005249,0.008800,0.013524,0.034877,0.0116774
0.000403,0.010878,0.005266,0.008207,0.013738,0.033293,0.0118164
0.000423,0.011535,0.005266,0.007716,0.013912,0.032121,0.0118984
0.000455,0.012022,0.005295,0.007355,0.013960,0.030845,0.0119836
0.000516,0.013074,0.005240,0.006562,0.014166,0.028947,0.0120988
0.000573,0.013539,0.005323,0.006145,0.014164,0.027700,0.0120493
0.000605,0.014307,0.005461,0.005631,0.014139,0.026492,0.0118553
0.000607,0.015306,0.005706,0.005204,0.014022,0.025386,0.0115914
0.000547,0.016485,0.006028,0.004922,0.013790,0.023901,0.0113773
0.000615,0.017632,0.006432,0.004191,0.013745,0.022250,0.0110937
0.000665,0.018422,0.007018,0.003826,0.013614,0.020673,0.0108693
0.000726,0.019187,0.007838,0.003509,0.013671,0.018837,0.0107175
0.000832,0.019938,0.009137,0.003645,0.013672,0.016877,0.0108122
0.001015,0.020692,0.010520,0.003725,0.013868,0.014964,0.0109589
0.001258,0.021699,0.012388,0.003445,0.014448,0.013587,0.0107965
0.001615,0.022763,0.014300,0.002749,0.015240,0.012345,0.0106042
0.001856,0.023024,0.016281,0.002881,0.015953,0.011858,0.0102745
0.002038,0.023160,0.018185,0.003218,0.016907,0.011829,0.0099603
0.002213,0.022695,0.020196,0.004039,0.017971,0.011821,0.0099262
0.002291,0.021735,0.022266,0.005364,0.019213,0.011795,0.0098899
0.002383,0.020847,0.024371,0.006660,0.020653,0.011662,0.0099522
0.002524,0.019948,0.026534,0.007708,0.022131,0.011581,0.0101737
0.002615,0.019322,0.028648,0.008771,0.023770,0.011504,0.0103680
0.002762,0.018729,0.030495,0.009476,0.025507,0.011416,0.0104039
0.002730,0.018129,0.032470,0.010679,0.027502,0.011319,0.0102867
0.002669,0.017598,0.034892,0.012034,0.029936,0.011216,0.0102839
0.002612,0.017009,0.037068,0.013523,0.032946,0.011172,0.0104122
0.002560,0.016432,0.039141,0.015024,0.036218,0.011112,0.0105572
0.002518,0.015503,0.040490,0.016647,0.039333,0.011047,0.0108140
0.002465,0.014489,0.041759,0.018331,0.042560,0.010999,0.0110757
0.002397,0.013559,0.042924,0.020265,0.045572,0.010905,0.0115159
0.002347,0.013226,0.043705,0.022568,0.048578,0.010770,0.0118028
0.002286,0.013055,0.044089,0.024927,0.051969,0.010652,0.0118730
0.002180,0.012915,0.044052,0.026838,0.055567,0.010561,0.0117369
0.001997,0.012619,0.044027,0.029063,0.059360,0.010439,0.0114867
0.001754,0.011993,0.043305,0.032046,0.062608,0.010215,0.0113411
0.001397,0.011340,0.042459,0.035564,0.065652,0.009890,0.0112394
0.001065,0.010654,0.041473,0.038895,0.068535,0.009554,0.0111947
0.000782,0.010037,0.040270,0.041887,0.071053,0.009251,0.0111704
0.000875,0.009688,0.038663,0.043452,0.073220,0.009038,0.0109616
0.001060,0.009465,0.036811,0.045277,0.074701,0.008774,0.0106436
0.001210,0.009322,0.034973,0.047456,0.075892,0.008460,0.0102748
0.001272,0.009088,0.033338,0.050349,0.077247,0.008106,0.0098672
0.001330,0.008883,0.031882,0.053655,0.078836,0.007719,0.0094614
0.001250,0.008688,0.030918,0.056909,0.080550,0.007432,0.0091076
0.001451,0.008435,0.029788,0.059034,0.082035,0.007235,0.0088895
0.001933,0.008520,0.028310,0.060813,0.082659,0.007062,0.0086970
0.002678,0.008827,0.026675,0.062759,0.082452,0.006845,0.0084828
0.003643,0.009273,0.024966,0.064743,0.081681,0.006595,0.0082660
0.004622,0.009937,0.023853,0.066792,0.081510,0.006383,0.0079703
0.005728,0.010700,0.022839,0.068913,0.081725,0.006211,0.0075582
0.006986,0.011493,0.021948,0.070362,0.081968,0.006119,0.0071268
0.008010,0.012264,0.021208,0.072181,0.082102,0.005992,0.0067795
0.008969,0.013017,0.020741,0.075037,0.081663,0.005812,0.0065853
0.009883,0.013789,0.020210,0.078490,0.081226,0.005590,0.0064430
0.010997,0.014833,0.019563,0.081926,0.080117,0.005380,0.0063749
0.012804,0.015853,0.018866,0.082991,0.079380,0.005324,0.0063212
0.014939,0.016908,0.018039,0.083367,0.078619,0.005311,0.0061983
0.017068,0.018091,0.017223,0.083699,0.077806,0.005244,0.0060210
0.019258,0.019236,0.016779,0.084416,0.076770,0.005147,0.0057731
0.020961,0.020283,0.016668,0.087131,0.076084,0.004954,0.0054692
0.022731,0.021527,0.016611,0.088600,0.076160,0.004855,0.0051998
0.024938,0.022487,0.016564,0.088574,0.076461,0.004874,0.0049631
0.027454,0.023601,0.016350,0.087877,0.076063,0.004907,0.0047600
0.030102,0.024958,0.015937,0.086777,0.074884,0.004948,0.0044975
0.033068,0.026317,0.015236,0.086319,0.073283,0.004850,0.0042380
0.036113,0.027602,0.014536,0.086203,0.071743,0.004728,0.0039794
0.039115,0.028890,0.013827,0.086446,0.070328,0.004591,0.0037053
0.042176,0.030046,0.013359,0.084903,0.069143,0.004611,0.0034503
0.044734,0.031047,0.013024,0.084398,0.068167,0.004598,0.0031730
0.047113,0.032161,0.012648,0.084316,0.066505,0.004544,0.0029142
0.049641,0.033349,0.012221,0.084140,0.064566,0.004494,0.0027612
0.052006,0.034618,0.011712,0.085711,0.062833,0.004307,0.0024866
0.054810,0.035649,0.010999,0.085896,0.061406,0.004214,0.0022775
0.057963,0.036422,0.010254,0.083237,0.059944,0.004313,0.0021410
0.060861,0.037040,0.009505,0.080611,0.057857,0.004423,0.0020153
0.063465,0.037632,0.008779,0.078436,0.055895,0.004498,0.0018759
0.065191,0.038520,0.008184,0.079668,0.053426,0.004334,0.0016612
0.066627,0.039311,0.007729,0.081364,0.051189,0.004166,0.0014842
0.068113,0.039977,0.007357,0.082787,0.049151,0.004057,0.0013334
0.069911,0.040908,0.006897,0.083671,0.047407,0.003976,0.0012092
0.071959,0.041783,0.006387,0.082670,0.045832,0.003993,0.0011642
0.073898,0.042606,0.005880,0.082640,0.043874,0.003941,0.0010912
0.075340,0.043625,0.005364,0.084143,0.041856,0.003781,0.0009838
0.076177,0.044477,0.004831,0.085901,0.040088,0.003606,0.0008874
0.076813,0.045225,0.004356,0.087419,0.038313,0.003438,0.0008417
0.077776,0.045628,0.003940,0.086215,0.036873,0.003457,0.0009515
0.078445,0.046142,0.003529,0.084812,0.035395,0.003459,0.0010711
0.078931,0.046482,0.003139,0.083704,0.034127,0.003434,0.0011793
0.078983,0.046977,0.002752,0.084614,0.032752,0.003266,0.0012383
0.079184,0.047469,0.002363,0.083778,0.031647,0.003217,0.0013374
0.079668,0.047918,0.002013,0.082134,0.030801,0.003234,0.0014595
0.079730,0.048304,0.001652,0.080953,0.029586,0.003226,0.0015747
0.079688,0.048524,0.001307,0.077600,0.028430,0.003377,0.0017345
0.079030,0.048931,0.001153,0.075950,0.026825,0.003403,0.0018373
0.078053,0.049308,0.001021,0.075999,0.025295,0.003333,0.0019022
0.077867,0.049944,0.000886,0.075053,0.024031,0.003308,0.0019908
0.078020,0.050702,0.000754,0.073350,0.022899,0.003323,0.0020957
0.078394,0.051319,0.000638,0.070863,0.021975,0.003417,0.0022147
0.078566,0.052270,0.000536,0.069584,0.020660,0.003406,0.0023024
0.078237,0.053316,0.000436,0.069665,0.019153,0.003326,0.0023482
0.077666,0.054221,0.000351,0.070738,0.017671,0.003224,0.0023521
0.076771,0.055170,0.000272,0.072009,0.015972,0.003069,0.0023464
0.075757,0.056028,0.000213,0.072396,0.014423,0.002960,0.0023628
0.074593,0.056748,0.000173,0.072472,0.012828,0.002891,0.0023818
0.073476,0.057450,0.000192,0.071840,0.011512,0.002964,0.0023974
0.072406,0.058031,0.000223,0.071254,0.010605,0.003159,0.0023868
0.070402,0.058565,0.000264,0.072397,0.009739,0.003262,0.0023332
0.068361,0.058868,0.000302,0.074542,0.008852,0.003346,0.0022557
0.065762,0.058882,0.000358,0.076209,0.008124,0.003508,0.0021810
0.062976,0.058526,0.000423,0.076462,0.007838,0.003802,0.0021368
0.060041,0.057946,0.000494,0.077672,0.007427,0.004098,0.0020632
0.056819,0.056975,0.000576,0.077972,0.007256,0.004479,0.0020154
0.053659,0.055798,0.000671,0.077417,0.007389,0.004939,0.0019865
0.050535,0.054514,0.000760,0.077038,0.007633,0.005385,0.0019831
0.047655,0.052638,0.000877,0.075104,0.008270,0.006144,0.0021672
0.044791,0.050570,0.000991,0.073221,0.008774,0.006924,0.0024592
0.041324,0.048142,0.001094,0.071802,0.009390,0.007732,0.0029097
0.037514,0.045323,0.001202,0.070134,0.009802,0.008536,0.0035513
0.033607,0.042416,0.001306,0.067980,0.010148,0.009285,0.0044047
0.029864,0.039207,0.001438,0.064748,0.010676,0.010265,0.0053884
0.026577,0.035953,0.001514,0.060454,0.011206,0.011245,0.0063042
0.023161,0.032621,0.001597,0.055505,0.011732,0.012074,0.0071973
0.020016,0.029429,0.001691,0.051088,0.012238,0.012791,0.0080325
0.017058,0.026181,0.001734,0.047048,0.012722,0.013509,0.0090714
0.014348,0.023209,0.001757,0.042828,0.013279,0.014191,0.0099972
0.011984,0.020358,0.001767,0.038996,0.013802,0.014605,0.0108066
0.009605,0.017459,0.001772,0.035661,0.014253,0.015096,0.0116111
0.007594,0.015017,0.001758,0.032955,0.014549,0.015576,0.0124608
0.005720,0.012764,0.001731,0.029797,0.014858,0.016030,0.0134137
0.004348,0.010881,0.001707,0.026782,0.015042,0.016377,0.0142272
0.003277,0.009286,0.001683,0.024599,0.014952,0.016620,0.0149556
0.002488,0.007945,0.001650,0.022055,0.014911,0.016761,0.0157697
0.001946,0.006905,0.001598,0.020346,0.014713,0.016619,0.0167568
0.001530,0.005779,0.001545,0.019007,0.014431,0.016459,0.0176951
0.001168,0.004939,0.001503,0.018342,0.013985,0.016303,0.0184291
0.000975,0.004564,0.001432,0.017583,0.013560,0.015956,0.0189845
0.000772,0.004528,0.001340,0.016918,0.013275,0.015561,0.0196323
0.000684,0.004701,0.001259,0.016061,0.012962,0.015152,0.0201455
0.000703,0.005330,0.001190,0.015293,0.012922,0.014701,0.0203272
0.000711,0.006191,0.001115,0.014506,0.013070,0.014391,0.0203358
0.000721,0.007306,0.001008,0.013538,0.013241,0.013955,0.0202772
0.000721,0.008777,0.000959,0.012533,0.013447,0.013627,0.0202607
0.000721,0.010248,0.000916,0.011478,0.013579,0.013434,0.0202910
0.000721,0.011664,0.000862,0.010525,0.013782,0.013346,0.0203432
0.000728,0.013050,0.000849,0.009621,0.013979,0.013248,0.0202145
0.000747,0.014129,0.000856,0.008827,0.014135,0.013079,0.0201871
0.000766,0.014725,0.000885,0.008290,0.014277,0.013067,0.0201356
0.000925,0.015153,0.000919,0.007424,0.014503,0.012812,0.0200798
0.001012,0.015847,0.000954,0.006690,0.014687,0.012536,0.0198655
0.001050,0.016810,0.000997,0.005893,0.014816,0.012340,0.0195429
0.001067,0.017786,0.001025,0.004973,0.015003,0.012240,0.0192930
0.001072,0.018712,0.001039,0.004101,0.015161,0.012238,0.0190993
0.001075,0.019579,0.001047,0.003289,0.015203,0.012332,0.0188273
0.000996,0.020372,0.001055,0.002753,0.015162,0.012571,0.0185689
0.000893,0.021357,0.001046,0.002203,0.015152,0.012826,0.0183635
0.000845,0.022058,0.001039,0.001652,0.015141,0.012964,0.0182652
0.000747,0.021973,0.000980,0.001999,0.014888,0.013956,0.0180413
0.000679,0.021650,0.000944,0.002338,0.014613,0.014915,0.0177843
0.000609,0.021414,0.000916,0.002776,0.014384,0.015810,0.0175181
0.000529,0.020764,0.000880,0.003465,0.014144,0.016750,0.0173155
0.000521,0.019903,0.000869,0.004044,0.013861,0.017511,0.0172388
0.000511,0.018788,0.000871,0.004718,0.013584,0.018252,0.0169560
0.000581,0.017422,0.001046,0.005146,0.013542,0.018066,0.0169633
0.000612,0.016255,0.001241,0.005596,0.013629,0.017915,0.0168438
0.000622,0.015037,0.001427,0.006169,0.013667,0.017775,0.0167931
0.000659,0.014039,0.001626,0.006537,0.013806,0.017687,0.0164631
0.000773,0.013265,0.001795,0.006523,0.013986,0.017792,0.0162543
