"1 Chan 1","2 Chan 2","3 Chan 3","4 Chan 4","5 Chan 5","6 Chan 6","7 Chan 7"
0.002872,0.011230,0.008974,0.004607,0.023936,0.010209,0.010002
0.003350,0.013327,0.009233,0.004218,0.022723,0.010384,0.010019
0.003718,0.014976,0.009470,0.003994,0.021510,0.010559,0.009999
0.004192,0.015054,0.009068,0.003633,0.020317,0.010874,0.009983
0.004961,0.014556,0.008413,0.003225,0.019076,0.011166,0.009542
0.005668,0.014059,0.007879,0.002948,0.017893,0.011409,0.008807
0.006256,0.013527,0.007480,0.002720,0.016566,0.011687,0.008017
0.006792,0.013121,0.007127,0.002508,0.015149,0.012005,0.007360
0.007177,0.013158,0.006859,0.002501,0.014491,0.012151,0.006682
0.007449,0.013674,0.006645,0.002697,0.014210,0.012181,0.006001
0.007055,0.014357,0.006910,0.003066,0.013610,0.012255,0.006098
0.006581,0.014836,0.007336,0.003593,0.013635,0.012204,0.005975
0.007266,0.014660,0.006835,0.003101,0.013736,0.012429,0.005924
0.008079,0.014382,0.006197,0.002412,0.013970,0.012668,0.005879
0.007964,0.013772,0.005960,0.002602,0.014838,0.012613,0.005679
0.007989,0.011820,0.005392,0.002554,0.015930,0.012616,0.005598
0.007422,0.009817,0.005301,0.003035,0.017414,0.012410,0.005483
0.007537,0.008434,0.004753,0.002922,0.019637,0.012197,0.005444
0.007257,0.008783,0.005016,0.003209,0.022147,0.011781,0.005182
0.007205,0.009590,0.005107,0.003209,0.023849,0.011657,0.005112
0.007280,0.010145,0.004982,0.003206,0.026018,0.011468,0.004836
0.007392,0.010485,0.004722,0.003199,0.026964,0.011457,0.004778
0.007578,0.010703,0.004385,0.003199,0.027876,0.011359,0.004632
0.007790,0.010496,0.004035,0.003200,0.027753,0.011433,0.004550
0.008102,0.010122,0.003719,0.003015,0.027600,0.011543,0.004430
0.008525,0.009508,0.003385,0.002646,0.027055,0.011658,0.004417
0.009164,0.008877,0.002880,0.001875,0.026053,0.011879,0.004617
0.008872,0.008691,0.003047,0.002023,0.025262,0.011872,0.004687
0.008300,0.008588,0.003364,0.002533,0.024405,0.011819,0.004716
0.008155,0.008307,0.003342,0.002664,0.023571,0.011946,0.004825
0.007622,0.008055,0.003625,0.003116,0.022448,0.012018,0.004921
0.007636,0.007517,0.003555,0.003005,0.020966,0.012187,0.005122
0.007346,0.006611,0.003779,0.003212,0.018944,0.012495,0.005172
0.007489,0.005741,0.003699,0.003026,0.016658,0.012853,0.005319
0.007455,0.005116,0.003835,0.003058,0.015134,0.012975,0.005368
0.007362,0.005247,0.003985,0.003058,0.013051,0.013229,0.005621
0.007245,0.005753,0.004191,0.003058,0.012084,0.013320,0.005751
0.007155,0.006056,0.004349,0.003058,0.011213,0.013484,0.005825
0.006991,0.006330,0.004585,0.003133,0.010769,0.013571,0.005755
0.006738,0.006305,0.004937,0.003344,0.010360,0.013588,0.005725
0.006312,0.006434,0.005498,0.003760,0.010356,0.013559,0.005730
0.006200,0.006709,0.005718,0.003884,0.010506,0.013683,0.005773
0.006262,0.006916,0.005816,0.003674,0.010457,0.013874,0.005956
0.006618,0.007088,0.005628,0.003164,0.010419,0.014055,0.006182
0.006507,0.007294,0.005797,0.003116,0.010022,0.014083,0.006378
0.007072,0.007359,0.005486,0.002666,0.010020,0.014119,0.006500
0.007340,0.007500,0.005314,0.002559,0.009961,0.014241,0.006492
0.007715,0.007676,0.005224,0.002291,0.009786,0.014316,0.006485
0.007378,0.007653,0.005723,0.002571,0.009324,0.014576,0.006350
0.006695,0.007639,0.006500,0.003189,0.008798,0.014847,0.006094
0.006012,0.007128,0.007268,0.003858,0.008315,0.015161,0.005768
0.005479,0.006579,0.007781,0.004453,0.008026,0.015407,0.005495
0.005467,0.006390,0.007860,0.004590,0.007774,0.015694,0.005356
0.005406,0.006300,0.007944,0.004641,0.007468,0.015927,0.005390
0.005318,0.006350,0.007968,0.004667,0.007308,0.016128,0.005485
0.005147,0.006219,0.008005,0.004729,0.007048,0.016441,0.005369
0.004766,0.006199,0.008204,0.005003,0.006730,0.016569,0.005217
0.004312,0.006276,0.008645,0.005412,0.006458,0.016744,0.004866
0.003714,0.006266,0.009399,0.005994,0.006139,0.017017,0.004507
0.003433,0.006208,0.009916,0.006274,0.006104,0.017295,0.004268
0.002712,0.006022,0.010785,0.006879,0.005904,0.017505,0.004063
0.002648,0.005792,0.010892,0.006789,0.005897,0.017601,0.004098
0.002713,0.006129,0.010669,0.006583,0.006011,0.017695,0.004248
0.003379,0.006512,0.009934,0.005989,0.006796,0.017513,0.004543
0.004080,0.006684,0.009071,0.005340,0.007626,0.017438,0.004794
0.004125,0.006568,0.008724,0.005238,0.008425,0.017369,0.005037
0.004075,0.006043,0.008743,0.005287,0.008897,0.017556,0.005088
0.003817,0.005546,0.009003,0.005404,0.009282,0.017563,0.005221
0.003336,0.005333,0.009590,0.005719,0.010054,0.017192,0.005214
0.002920,0.005263,0.010101,0.006003,0.010944,0.016852,0.005050
0.002779,0.005405,0.010298,0.006084,0.012172,0.016417,0.005003
0.002632,0.005242,0.010452,0.006359,0.013581,0.015966,0.004874
0.002632,0.005034,0.010288,0.006523,0.015137,0.015459,0.004868
0.002632,0.005056,0.009988,0.006601,0.016847,0.014676,0.004944
0.002632,0.005111,0.009814,0.007035,0.017938,0.014041,0.004938
0.002931,0.005244,0.009539,0.007489,0.018129,0.013722,0.005064
0.002954,0.005350,0.009732,0.008327,0.018256,0.013407,0.004932
0.003223,0.004787,0.009788,0.008915,0.018396,0.013187,0.004915
0.003172,0.004375,0.009795,0.008967,0.018033,0.013076,0.004932
0.002803,0.004284,0.010022,0.009299,0.017766,0.012993,0.004828
0.002751,0.005009,0.010090,0.009215,0.017504,0.012781,0.004860
0.003341,0.005954,0.009495,0.008616,0.018040,0.012424,0.004883
0.003667,0.006741,0.009101,0.008363,0.018460,0.012226,0.004781
0.004403,0.007190,0.008317,0.007835,0.018514,0.012405,0.004723
0.005212,0.007475,0.007662,0.007303,0.017984,0.012656,0.004759
0.005660,0.007593,0.007584,0.007281,0.017047,0.012660,0.004753
0.006205,0.007762,0.007497,0.007631,0.015829,0.012673,0.004792
0.007796,0.007794,0.007160,0.008328,0.014433,0.012618,0.004920
0.011357,0.008010,0.007474,0.009171,0.012661,0.012693,0.004911
0.016020,0.009098,0.007613,0.010858,0.011526,0.012644,0.004806
0.025236,0.009470,0.009076,0.011855,0.011684,0.012275,0.004784
0.034973,0.010215,0.009789,0.014874,0.011892,0.011902,0.005815
0.042079,0.010479,0.012776,0.017145,0.012403,0.011330,0.007258
0.048711,0.010400,0.015729,0.022042,0.012512,0.010830,0.009418
0.054771,0.010126,0.017322,0.027475,0.012441,0.010223,0.012099
0.061495,0.009270,0.018312,0.034063,0.012187,0.009649,0.015043
0.068432,0.008382,0.019954,0.040977,0.011355,0.008976,0.017953
0.074763,0.007552,0.021550,0.047521,0.010479,0.008325,0.020692
0.080822,0.006722,0.023923,0.054028,0.009551,0.007674,0.023435
0.088116,0.006050,0.027097,0.059340,0.008889,0.006991,0.026163
0.093894,0.005491,0.031533,0.063511,0.008286,0.006442,0.028916
0.100149,0.005159,0.035115,0.065158,0.008040,0.006023,0.032293
0.105144,0.005638,0.040725,0.064090,0.008007,0.005574,0.035834
0.109222,0.006004,0.045038,0.063161,0.008414,0.005140,0.039344
0.109969,0.005675,0.049818,0.060586,0.008840,0.004736,0.043644
0.105885,0.006227,0.052741,0.058755,0.008944,0.004463,0.048207
0.100783,0.006536,0.056087,0.055282,0.008919,0.004296,0.052444
0.097352,0.007158,0.055799,0.053978,0.008419,0.004305,0.056606
0.094572,0.007935,0.055020,0.052790,0.008146,0.004177,0.059757
0.093651,0.008505,0.054290,0.052138,0.007884,0.003988,0.062798
0.091906,0.008922,0.053199,0.051688,0.007716,0.003843,0.065653
0.086382,0.009369,0.051400,0.053215,0.007458,0.003767,0.068553
0.080907,0.009819,0.049699,0.056223,0.007313,0.003674,0.071085
0.075532,0.010099,0.047201,0.058097,0.007390,0.003673,0.072769
0.069311,0.010320,0.043797,0.061000,0.007700,0.003691,0.073756
0.065143,0.010596,0.038584,0.066733,0.007965,0.003714,0.074380
0.060525,0.010684,0.034350,0.073559,0.008006,0.003677,0.075296
0.056100,0.010187,0.028413,0.081304,0.007985,0.003831,0.075834
0.050491,0.009550,0.023241,0.087537,0.007809,0.004061,0.076195
0.047024,0.008849,0.017686,0.093886,0.007562,0.004398,0.075655
0.043085,0.008291,0.013075,0.098658,0.007327,0.004731,0.074322
0.039492,0.007870,0.008792,0.102261,0.007100,0.005051,0.072279
0.035904,0.007776,0.006288,0.105169,0.007040,0.005244,0.069558
0.031436,0.007817,0.004804,0.105773,0.007309,0.005453,0.066890
0.025967,0.008080,0.004308,0.104143,0.007665,0.005711,0.063427
0.020987,0.008652,0.004397,0.102629,0.007941,0.005912,0.059400
0.018983,0.009276,0.005040,0.100123,0.008483,0.006012,0.055432
0.017530,0.009979,0.005598,0.097023,0.008988,0.006062,0.052194
0.016258,0.011079,0.006078,0.094513,0.009344,0.006097,0.050953
0.014606,0.012127,0.006453,0.092680,0.009605,0.006099,0.050598
0.013071,0.012846,0.006644,0.088617,0.010094,0.006214,0.050671
0.011327,0.013511,0.006920,0.085558,0.010595,0.006249,0.049810
0.009859,0.014018,0.006989,0.084253,0.011045,0.006227,0.048925
0.007845,0.014551,0.007531,0.082785,0.011705,0.006228,0.048226
0.006481,0.015003,0.007604,0.082185,0.012180,0.006202,0.048027
0.005852,0.015298,0.007051,0.084125,0.012595,0.006106,0.047527
0.005447,0.015110,0.006442,0.086924,0.013225,0.005948,0.045967
0.005308,0.014570,0.005932,0.089255,0.013896,0.005804,0.044752
0.005734,0.013858,0.005367,0.091591,0.014378,0.005699,0.043957
0.006171,0.013059,0.004927,0.094817,0.014678,0.005570,0.043729
0.007017,0.012182,0.004308,0.096365,0.015058,0.005512,0.043920
0.007902,0.011409,0.003665,0.097126,0.015222,0.005495,0.043945
0.008687,0.010609,0.003107,0.096971,0.015550,0.005514,0.043376
0.008716,0.009667,0.003152,0.094698,0.016057,0.005592,0.041292
0.008527,0.009249,0.003435,0.092480,0.016624,0.005651,0.039006
0.008422,0.009390,0.003609,0.091997,0.017030,0.005650,0.036530
0.008116,0.009808,0.003931,0.092452,0.017893,0.005503,0.033465
0.007471,0.010385,0.004523,0.092528,0.018922,0.005295,0.030577
0.007492,0.010899,0.004531,0.094398,0.019861,0.005027,0.027834
0.007391,0.011347,0.004589,0.094872,0.021042,0.004846,0.024908
0.006836,0.011789,0.005046,0.094696,0.022067,0.004691,0.022574
0.006065,0.012384,0.005633,0.094566,0.022943,0.004536,0.021351
0.005441,0.012995,0.006095,0.094035,0.023914,0.004462,0.019998
0.005015,0.013317,0.006346,0.092209,0.025032,0.004494,0.018255
0.004578,0.013385,0.006671,0.089114,0.026362,0.004575,0.016377
0.003748,0.013520,0.007234,0.086043,0.027192,0.004741,0.014322
0.002879,0.013656,0.007846,0.082958,0.028273,0.004872,0.012363
0.002005,0.013801,0.008457,0.079102,0.029554,0.005027,0.010698
0.001828,0.013874,0.008586,0.077620,0.030901,0.005071,0.009495
0.001787,0.013606,0.008605,0.076557,0.032436,0.005029,0.008414
0.001370,0.013035,0.008950,0.074038,0.033932,0.005056,0.007565
0.001237,0.012268,0.009065,0.070214,0.035054,0.005206,0.007349
0.001346,0.011429,0.009013,0.066195,0.035915,0.005411,0.007384
0.001651,0.010529,0.008847,0.061372,0.036399,0.005660,0.007640
0.001894,0.009636,0.008745,0.057023,0.037125,0.005808,0.007788
0.002595,0.008601,0.008289,0.051753,0.037827,0.006079,0.008278
0.003538,0.007532,0.007685,0.046203,0.038658,0.006418,0.008892
0.004340,0.006667,0.007188,0.040382,0.039592,0.006673,0.009253
0.005195,0.006086,0.006637,0.035504,0.040814,0.006873,0.009589
0.005850,0.005803,0.006236,0.031892,0.041869,0.007017,0.010027
0.006410,0.005571,0.005948,0.028308,0.043319,0.007063,0.010549
0.007181,0.005279,0.005428,0.024651,0.045136,0.007107,0.010857
0.008075,0.004970,0.004856,0.022210,0.046898,0.007110,0.011117
0.008967,0.004744,0.004260,0.020094,0.048190,0.007126,0.011255
0.009582,0.004611,0.003800,0.017323,0.049151,0.007169,0.011064
0.010032,0.004607,0.003447,0.014487,0.050241,0.007171,0.010703
0.010656,0.004599,0.002905,0.011773,0.050346,0.007361,0.010519
0.010500,0.004777,0.002944,0.009860,0.050304,0.007451,0.010008
0.010158,0.005047,0.003154,0.008391,0.050732,0.007424,0.009155
0.009436,0.005426,0.003660,0.007278,0.050644,0.007424,0.008305
0.008784,0.005923,0.004114,0.006298,0.050123,0.007474,0.007289
0.008621,0.006481,0.004114,0.004927,0.049897,0.007590,0.006292
0.008511,0.007018,0.004114,0.004538,0.049373,0.007734,0.005460
0.008558,0.007468,0.004039,0.004538,0.047828,0.007969,0.004897
0.008701,0.007811,0.003863,0.004538,0.046116,0.008231,0.004430
0.008851,0.008096,0.003697,0.004538,0.044505,0.008485,0.004103
0.008540,0.008342,0.003948,0.004538,0.042168,0.008822,0.004447
0.007882,0.008515,0.004426,0.004538,0.039170,0.009280,0.005262
0.007187,0.008570,0.004911,0.004538,0.036408,0.009738,0.006205
0.006608,0.008376,0.005364,0.004208,0.033361,0.010262,0.007556
0.006157,0.008046,0.005721,0.003666,0.030366,0.010717,0.009126
0.005533,0.007757,0.006269,0.003313,0.028181,0.011044,0.010575
0.005551,0.007407,0.006296,0.002424,0.026271,0.011424,0.012016
0.005681,0.007113,0.006237,0.001505,0.024073,0.011886,0.013426
0.006221,0.007057,0.005907,0.000648,0.022156,0.012313,0.014107
0.006495,0.007427,0.005822,0.000123,0.020838,0.012594,0.014383
0.006366,0.008885,0.006202,0.000054,0.018821,0.012839,0.014403
0.006197,0.012068,0.006606,0.000001,0.016615,0.013117,0.014449
0.005830,0.015476,0.007084,0.000187,0.014944,0.013259,0.014412
0.005686,0.018413,0.007411,0.000262,0.013580,0.013342,0.014390
0.005446,0.020976,0.007654,0.000410,0.012263,0.013346,0.014347
0.005365,0.022017,0.007811,0.000664,0.011192,0.013236,0.013947
0.005497,0.023494,0.007951,0.000974,0.010503,0.013045,0.013101
0.005590,0.025501,0.008187,0.001367,0.009815,0.012861,0.012083
0.005928,0.026867,0.008224,0.001629,0.009467,0.012747,0.010973
0.006240,0.028138,0.008196,0.001848,0.009068,0.012695,0.009794
0.006811,0.028576,0.008220,0.001848,0.008622,0.012597,0.008597
0.007458,0.028654,0.008215,0.001848,0.008159,0.012548,0.007449
0.007950,0.028619,0.008270,0.001951,0.007833,0.012490,0.006349
0.007878,0.028267,0.008657,0.002152,0.007570,0.012478,0.005887
0.007338,0.027595,0.008902,0.002680,0.007574,0.012474,0.005615
0.006808,0.025878,0.009016,0.003055,0.007864,0.012423,0.005517
0.006388,0.022433,0.009065,0.003322,0.008548,0.012315,0.005431
0.006570,0.018820,0.008727,0.003135,0.009394,0.012236,0.005354
0.006619,0.015781,0.008436,0.003090,0.010188,0.012137,0.005218
0.006903,0.013018,0.008146,0.002943,0.011232,0.012097,0.005058
0.007242,0.011858,0.007740,0.002688,0.011855,0.012211,0.004927
0.007584,0.010339,0.007238,0.002378,0.012904,0.012266,0.004866
0.008020,0.008363,0.006562,0.001985,0.013949,0.012370,0.004890
0.008337,0.007149,0.006056,0.001723,0.014969,0.012414,0.004839
0.008350,0.005922,0.005826,0.001821,0.015815,0.012485,0.004760
0.007952,0.005663,0.005625,0.002264,0.016167,0.012597,0.004682
0.007287,0.005651,0.005648,0.002805,0.016309,0.012631,0.004675
0.006895,0.005609,0.005491,0.003109,0.016365,0.012733,0.004662
0.006573,0.005801,0.005348,0.003339,0.016351,0.012742,0.004665
0.007117,0.005612,0.005003,0.002811,0.016399,0.012786,0.004729
0.007588,0.005317,0.004724,0.002436,0.016374,0.012820,0.004829
0.007713,0.005178,0.004597,0.002382,0.015992,0.012799,0.004972
0.007619,0.005436,0.004663,0.002502,0.015409,0.012793,0.005120
0.007497,0.006213,0.004809,0.002699,0.014607,0.012874,0.005237
0.007235,0.007236,0.005014,0.002944,0.013552,0.012995,0.005312
0.007136,0.008286,0.005107,0.003120,0.012855,0.013098,0.005290
0.006690,0.008864,0.005417,0.003565,0.011759,0.013234,0.005220
0.005965,0.009479,0.006001,0.004176,0.010685,0.013278,0.005175
0.005526,0.009937,0.006272,0.004515,0.009730,0.013301,0.005220
0.005467,0.010444,0.006320,0.004523,0.009044,0.013286,0.005227
0.005891,0.010539,0.006051,0.004166,0.008960,0.013320,0.005259
0.006652,0.010660,0.005455,0.003652,0.009018,0.013420,0.005343
0.007051,0.010721,0.005109,0.003363,0.009143,0.013490,0.005448
0.007606,0.010694,0.004563,0.003005,0.009370,0.013632,0.005556
0.007479,0.010893,0.004437,0.003245,0.009320,0.013688,0.005639
0.007369,0.010884,0.004305,0.003337,0.009372,0.013731,0.005637
0.007229,0.010791,0.004297,0.003525,0.009260,0.013843,0.005630
0.006606,0.010394,0.004698,0.004064,0.009220,0.013923,0.005588
0.006382,0.009416,0.004864,0.004218,0.009408,0.013964,0.005580
0.006345,0.008365,0.005119,0.004155,0.009497,0.013953,0.005680
0.006400,0.007139,0.005492,0.003979,0.009714,0.013878,0.005856
0.006701,0.006377,0.005759,0.003534,0.009781,0.013751,0.006156
0.006986,0.005637,0.005974,0.003150,0.009889,0.013726,0.006353
0.007256,0.004886,0.006326,0.002945,0.009995,0.013814,0.006420
0.007651,0.004210,0.006488,0.002621,0.009984,0.013970,0.006465
0.007698,0.003913,0.006902,0.002534,0.009993,0.014111,0.006396
0.007652,0.003673,0.007337,0.002507,0.009971,0.014194,0.006245
0.007533,0.003829,0.007554,0.002430,0.009829,0.014189,0.006192
0.006832,0.003970,0.008362,0.002900,0.009613,0.014082,0.006033
0.006324,0.003954,0.009158,0.003252,0.009355,0.014131,0.005913
0.005734,0.004097,0.010063,0.003725,0.009081,0.014187,0.005867
0.005420,0.004201,0.010736,0.003945,0.009086,0.014213,0.005794
0.005420,0.004909,0.010914,0.003922,0.009352,0.014246,0.005752
0.005063,0.005675,0.011225,0.004086,0.010079,0.013992,0.005697
0.004730,0.006294,0.011230,0.004349,0.010947,0.013806,0.005638
0.004379,0.006695,0.011071,0.004647,0.011736,0.013728,0.005571
0.004076,0.006697,0.010801,0.004953,0.012378,0.013750,0.005411
0.004296,0.006632,0.010156,0.004801,0.012436,0.013796,0.005436
0.003774,0.006809,0.009969,0.005157,0.012465,0.013893,0.005299
0.003563,0.006940,0.009604,0.005298,0.012420,0.014068,0.005280
0.003528,0.006846,0.009133,0.005298,0.012309,0.014222,0.005395
0.003379,0.006701,0.008883,0.005418,0.012266,0.014603,0.005468
0.003547,0.006588,0.008812,0.005376,0.012324,0.014861,0.005567
0.004154,0.006426,0.008471,0.004835,0.012375,0.015153,0.005778
0.004756,0.006562,0.008011,0.004242,0.012494,0.015296,0.005927
0.004914,0.007091,0.007818,0.004053,0.012512,0.015326,0.005951
0.004914,0.007402,0.007700,0.003981,0.012327,0.015424,0.005940
0.004914,0.007134,0.007876,0.003931,0.011890,0.015502,0.005930
0.005317,0.006735,0.007878,0.003616,0.010984,0.016002,0.006074
0.005919,0.006227,0.007829,0.003172,0.010121,0.016365,0.006206
0.006330,0.005969,0.007778,0.002891,0.009218,0.016753,0.006314
0.006817,0.006055,0.007396,0.002586,0.008628,0.017186,0.006468
0.007035,0.005932,0.007220,0.002530,0.008565,0.017527,0.006396
0.007672,0.005672,0.006696,0.002039,0.008471,0.017767,0.006545
0.007997,0.005539,0.006626,0.001899,0.008496,0.017758,0.006623
0.007950,0.005547,0.007005,0.002082,0.008461,0.017583,0.006549
0.007485,0.005689,0.007636,0.002557,0.008325,0.017089,0.006507
0.006808,0.005534,0.008331,0.003304,0.008635,0.016758,0.006189
0.006201,0.005364,0.008532,0.003931,0.009043,0.016499,0.005960
0.005599,0.005150,0.008669,0.004554,0.009492,0.016204,0.005819
0.005441,0.004848,0.008530,0.006854,0.010442,0.015730,0.005555
0.005696,0.005406,0.008155,0.009713,0.010921,0.015240,0.005433
0.006435,0.005829,0.007728,0.012255,0.011712,0.014691,0.005267
0.008608,0.006216,0.007431,0.015736,0.012734,0.013960,0.004909
0.011585,0.007084,0.007084,0.019219,0.013210,0.013424,0.004652
0.018448,0.007425,0.006780,0.028850,0.014094,0.012314,0.004188
0.026900,0.008269,0.006698,0.039187,0.014645,0.011142,0.004207
0.037273,0.009086,0.006814,0.050744,0.014998,0.009857,0.006655
0.049677,0.010173,0.007180,0.061468,0.015554,0.008539,0.010025
0.061228,0.010707,0.009193,0.069574,0.016077,0.007365,0.013936
0.071152,0.011664,0.011255,0.074189,0.016476,0.006557,0.018158
0.081352,0.012559,0.013546,0.078194,0.017124,0.005882,0.023156
0.091970,0.014006,0.016369,0.082519,0.017134,0.005117,0.029123
0.102421,0.015406,0.019344,0.089494,0.017020,0.004223,0.036166
0.113738,0.016692,0.021262,0.098152,0.016719,0.003418,0.043576
0.122870,0.017572,0.022792,0.103307,0.016045,0.002990,0.050090
0.130413,0.017588,0.023758,0.108247,0.015880,0.002599,0.056495
0.136459,0.017798,0.023766,0.112533,0.015390,0.002439,0.062942
0.140216,0.017755,0.023823,0.116226,0.014667,0.002351,0.069271
0.142182,0.017274,0.023675,0.119869,0.014204,0.002174,0.075126
0.139601,0.016679,0.025531,0.116231,0.013415,0.002406,0.080859
0.135077,0.015555,0.028512,0.110904,0.012873,0.002564,0.085208
0.128195,0.014661,0.031666,0.100978,0.013050,0.002939,0.086981
0.119350,0.013721,0.034562,0.091128,0.013081,0.003358,0.087712
0.111576,0.013372,0.034900,0.085673,0.013029,0.003747,0.087327
0.105767,0.012681,0.034476,0.084297,0.013236,0.003880,0.087003
0.099734,0.012021,0.033765,0.083289,0.013153,0.003988,0.085964
0.093266,0.010860,0.032288,0.081498,0.013079,0.004233,0.084867
0.084779,0.010194,0.029321,0.078533,0.012831,0.004655,0.082174
0.074568,0.010027,0.027099,0.073913,0.012611,0.005084,0.078557
0.066393,0.010157,0.025095,0.070954,0.012228,0.005459,0.075938
0.059443,0.010418,0.023837,0.067455,0.012110,0.005768,0.072986
0.053169,0.010647,0.023682,0.066274,0.012027,0.005859,0.070262
0.047679,0.011225,0.023354,0.066865,0.011884,0.005852,0.067332
0.042927,0.011880,0.023457,0.067149,0.011913,0.005851,0.064879
0.038865,0.013215,0.021672,0.068762,0.012009,0.005846,0.061816
0.034869,0.014368,0.018983,0.070444,0.012292,0.005897,0.059634
0.031070,0.015324,0.016102,0.076176,0.012421,0.005712,0.057426
0.027337,0.015946,0.013162,0.083675,0.012546,0.005453,0.055390
0.023268,0.016362,0.010985,0.089344,0.012743,0.005219,0.054226
0.019585,0.016595,0.008751,0.095493,0.012808,0.005006,0.052826
0.016212,0.016740,0.006259,0.101257,0.013231,0.004789,0.050938
0.012956,0.016763,0.003868,0.109381,0.013597,0.004488,0.048090
0.011800,0.016363,0.003097,0.116741,0.013954,0.004101,0.045499
0.011515,0.015509,0.002784,0.124093,0.014447,0.003664,0.043325
0.011427,0.014546,0.002603,0.130455,0.014763,0.003266,0.041465
0.011445,0.013660,0.002397,0.136128,0.014857,0.002933,0.039648
0.011740,0.012613,0.002010,0.141372,0.015011,0.002586,0.037104
0.011610,0.011476,0.001907,0.142305,0.015316,0.002463,0.034639
0.011085,0.010395,0.002089,0.142215,0.015595,0.002403,0.031975
0.010353,0.009379,0.002398,0.140669,0.015755,0.002431,0.030140
0.009683,0.008624,0.002758,0.140529,0.016191,0.002349,0.028183
0.009427,0.008093,0.002833,0.139971,0.016447,0.002398,0.026294
0.009726,0.008064,0.002444,0.140104,0.016512,0.002497,0.024184
0.010050,0.008400,0.002040,0.141480,0.016705,0.002525,0.021704
0.009586,0.008862,0.002274,0.140203,0.017237,0.002599,0.019093
0.009260,0.009273,0.002472,0.138145,0.017547,0.002783,0.017069
0.009250,0.009752,0.002472,0.136032,0.017775,0.002963,0.016146
0.009301,0.010241,0.002472,0.133973,0.018138,0.003128,0.015578
0.009336,0.010730,0.002472,0.130552,0.018198,0.003409,0.015205
0.009306,0.011198,0.002472,0.129784,0.018395,0.003505,0.014700
0.009006,0.011308,0.002687,0.128162,0.019158,0.003525,0.014471
0.008867,0.011169,0.002835,0.124686,0.019870,0.003718,0.014735
0.008770,0.011138,0.003036,0.123539,0.020143,0.003920,0.015341
0.008440,0.011233,0.003456,0.124198,0.020501,0.004072,0.015866
0.008202,0.011243,0.003828,0.123291,0.021350,0.004354,0.016023
0.008189,0.011288,0.004000,0.123388,0.021989,0.004599,0.016171
0.008030,0.011312,0.004252,0.124874,0.022404,0.004809,0.016520
0.007268,0.010977,0.005049,0.122477,0.023262,0.005136,0.016916
0.006464,0.010398,0.005879,0.118559,0.023843,0.005600,0.017503
0.005934,0.009728,0.006463,0.115727,0.024027,0.006078,0.018184
0.005362,0.009125,0.006949,0.113304,0.024553,0.006330,0.018507
0.004478,0.008467,0.007632,0.108845,0.025397,0.006554,0.017921
0.003618,0.007877,0.008267,0.103946,0.026111,0.006750,0.016867
0.002762,0.007364,0.008994,0.099851,0.026990,0.006882,0.015608
0.002286,0.006833,0.009473,0.094693,0.027871,0.007110,0.014273
0.002669,0.006608,0.009258,0.092888,0.028067,0.007304,0.013005
0.002941,0.006683,0.009110,0.092656,0.028007,0.007429,0.011644
0.003277,0.006810,0.008853,0.092974,0.028333,0.007335,0.010234
0.004230,0.006790,0.008143,0.093000,0.028347,0.007245,0.009006
0.005259,0.006918,0.007345,0.095813,0.028147,0.006939,0.008170
0.006284,0.006931,0.006522,0.097060,0.028010,0.006760,0.007379
0.007238,0.006875,0.005726,0.094548,0.028252,0.006668,0.006624
0.008156,0.006852,0.004882,0.092646,0.028604,0.006567,0.005938
0.009086,0.006805,0.004053,0.089460,0.029275,0.006449,0.005211
0.010004,0.006820,0.003235,0.086223,0.030044,0.006297,0.004456
0.010906,0.006769,0.002524,0.083342,0.030228,0.006329,0.003961
0.011868,0.006802,0.001841,0.080528,0.030386,0.006459,0.003425
0.012814,0.006685,0.001206,0.077488,0.030651,0.006645,0.003262
0.013576,0.006495,0.000608,0.075043,0.030750,0.006776,0.003291
0.014100,0.006324,0.000129,0.071593,0.030647,0.007018,0.003424
0.013407,0.006315,0.000632,0.065775,0.030534,0.007242,0.003486
0.012731,0.006406,0.001135,0.058696,0.030516,0.007527,0.003631
0.012566,0.006317,0.001210,0.050597,0.030524,0.008000,0.003827
0.011843,0.006369,0.001679,0.042934,0.030747,0.008380,0.003829
0.011021,0.006355,0.002200,0.035327,0.030466,0.008788,0.003996
0.010605,0.006356,0.002404,0.027431,0.029557,0.009352,0.004310
0.010304,0.006503,0.002544,0.021633,0.028338,0.009877,0.004537
0.009795,0.006695,0.002934,0.017620,0.026769,0.010236,0.004743
0.009327,0.006972,0.003283,0.015203,0.025050,0.010592,0.004912
0.008807,0.007151,0.003677,0.013182,0.023265,0.010903,0.005130
0.008312,0.007462,0.004093,0.011385,0.021639,0.011194,0.005329
0.007936,0.007740,0.004385,0.009424,0.019912,0.011524,0.005652
0.007578,0.008072,0.004670,0.007425,0.018272,0.011854,0.005975
0.006859,0.008624,0.005280,0.005714,0.016766,0.012166,0.006393
0.006061,0.009162,0.005994,0.004125,0.015588,0.012431,0.006789
0.006010,0.009620,0.006038,0.003060,0.014617,0.012783,0.007279
0.005815,0.010044,0.006201,0.002640,0.013782,0.013013,0.007744
0.005028,0.010795,0.006838,0.002984,0.012820,0.013231,0.008025
0.004722,0.012904,0.007133,0.003232,0.012085,0.013458,0.008023
0.004551,0.015524,0.007376,0.003410,0.011436,0.013695,0.007849
0.004441,0.017917,0.007570,0.003605,0.011168,0.013761,0.007699
0.004550,0.019855,0.007536,0.003605,0.010731,0.013796,0.007688
0.004929,0.021019,0.007211,0.003410,0.010336,0.013869,0.007708
0.005259,0.022262,0.006911,0.003236,0.009920,0.013914,0.007677
0.005571,0.023444,0.006663,0.003030,0.009583,0.013940,0.007649
0.005776,0.024096,0.006442,0.002834,0.009278,0.013914,0.007656
0.005816,0.024722,0.006353,0.002777,0.009068,0.013824,0.007676
0.005526,0.024813,0.006492,0.003014,0.008837,0.013754,0.007627
0.005963,0.025299,0.006091,0.002731,0.008758,0.013748,0.007358
0.006392,0.026607,0.005756,0.002590,0.008706,0.013658,0.006871
0.006973,0.028605,0.005468,0.002379,0.008711,0.013542,0.006231
0.007725,0.029978,0.005105,0.002140,0.008730,0.013436,0.005643
0.008266,0.030885,0.004920,0.002012,0.008905,0.013169,0.005170
0.008690,0.029887,0.004812,0.001663,0.008844,0.012974,0.005174
0.008940,0.028151,0.004772,0.001309,0.008977,0.012826,0.005357
0.008441,0.026398,0.005348,0.001710,0.009295,0.012964,0.005553
0.007679,0.024033,0.006112,0.002438,0.009794,0.013302,0.005701
0.006891,0.022466,0.006901,0.003311,0.010820,0.013609,0.005754
0.006100,0.021000,0.007634,0.004043,0.011805,0.013686,0.005773
0.005705,0.019632,0.007971,0.004323,0.012632,0.013756,0.005787
0.005541,0.018579,0.008079,0.004403,0.012909,0.013850,0.005817
0.005508,0.017387,0.007996,0.004403,0.013150,0.013943,0.005762
0.005858,0.016875,0.007647,0.004166,0.013466,0.013994,0.005656
0.006009,0.016353,0.007421,0.004139,0.013637,0.014032,0.005610
0.006207,0.015339,0.007130,0.004009,0.013619,0.014218,0.005651
0.005996,0.013501,0.007107,0.004064,0.013506,0.014362,0.005821
0.005825,0.012004,0.006970,0.004033,0.013699,0.014581,0.005893
0.005903,0.010568,0.006632,0.003815,0.013944,0.014782,0.005955
0.006148,0.009773,0.006141,0.003576,0.014256,0.015024,0.005978
0.006596,0.009638,0.005563,0.003374,0.014408,0.015333,0.005971
0.007338,0.009902,0.004822,0.002778,0.014311,0.015466,0.005830
0.007997,0.011597,0.004341,0.002085,0.014082,0.015379,0.005761
0.008677,0.013285,0.003822,0.001212,0.013258,0.015225,0.005757
0.009266,0.014714,0.003490,0.000612,0.012438,0.015298,0.005775
0.009705,0.016860,0.003413,0.000359,0.011693,0.015325,0.005790
0.009924,0.018421,0.003473,0.000301,0.011500,0.015367,0.005774
0.009953,0.019879,0.003720,0.000367,0.011335,0.015314,0.005775
0.010064,0.020818,0.003823,0.000367,0.011296,0.015257,0.005847
0.010181,0.020111,0.004194,0.000419,0.011312,0.015109,0.005832
0.010251,0.019265,0.004631,0.000419,0.011369,0.014887,0.005918
0.010444,0.018496,0.004880,0.000364,0.011382,0.014757,0.005976
0.010567,0.017916,0.005112,0.000364,0.011239,0.014686,0.006187
0.010725,0.017532,0.005030,0.000364,0.011055,0.014710,0.006414
0.010570,0.016931,0.005102,0.000606,0.010727,0.014741,0.006651
0.010595,0.015961,0.005045,0.000606,0.010433,0.014625,0.006857
0.010629,0.014725,0.004917,0.000626,0.010287,0.014493,0.007024
0.010562,0.013176,0.004998,0.000733,0.010143,0.014384,0.006998
0.010312,0.011811,0.005617,0.001049,0.010020,0.014307,0.006948
0.009723,0.010824,0.006566,0.001620,0.009797,0.014166,0.006738
0.008968,0.009240,0.007469,0.002273,0.009872,0.014065,0.006477
0.008356,0.008153,0.007947,0.003481,0.010363,0.013826,0.006198
0.007734,0.006899,0.008213,0.004676,0.010793,0.013805,0.005957
0.006975,0.005936,0.008750,0.005979,0.011012,0.013967,0.005679
0.006227,0.006112,0.009004,0.006543,0.010796,0.014388,0.005597
0.005533,0.006221,0.009147,0.007107,0.010720,0.014683,0.005500
0.004903,0.006345,0.009313,0.007577,0.010552,0.015035,0.005446
0.004815,0.006500,0.009360,0.007577,0.010311,0.015085,0.005345
0.004730,0.006883,0.009766,0.007589,0.009954,0.015137,0.005112
0.004921,0.007284,0.010090,0.007348,0.009717,0.015115,0.004815
0.004781,0.007705,0.010566,0.007387,0.009542,0.015148,0.004557
0.004318,0.008278,0.011086,0.007655,0.009226,0.015139,0.004458
0.003724,0.008714,0.011398,0.008022,0.008972,0.015118,0.004500
0.003295,0.008815,0.011134,0.008231,0.008714,0.015094,0.004699
0.003598,0.008439,0.010194,0.007817,0.008776,0.015168,0.005016
0.004008,0.007841,0.009215,0.007410,0.008662,0.015178,0.005338
0.004224,0.007487,0.008788,0.006601,0.008445,0.015254,0.005557
0.004324,0.007534,0.008723,0.005920,0.008208,0.015196,0.005702
0.004583,0.007496,0.008468,0.004945,0.008007,0.015028,0.005887
0.004848,0.007340,0.008233,0.004639,0.008246,0.014766,0.005983
0.005037,0.007177,0.008050,0.004338,0.008142,0.014578,0.006166
0.005204,0.007027,0.007787,0.004148,0.008245,0.014333,0.006262
0.005066,0.006877,0.007565,0.004260,0.008640,0.014411,0.006276
0.004427,0.006963,0.007693,0.004846,0.009184,0.014547,0.006206
0.004020,0.007249,0.007632,0.005180,0.009831,0.014789,0.006225
0.003955,0.007393,0.007390,0.005326,0.010194,0.015016,0.006288
0.004435,0.007256,0.006856,0.005038,0.010497,0.015103,0.006370
0.005192,0.006763,0.006219,0.004571,0.010857,0.015172,0.006379
0.005192,0.006538,0.006297,0.004829,0.011823,0.014991,0.006113
0.004889,0.006441,0.006645,0.005261,0.013162,0.014606,0.005973
0.004479,0.006558,0.007086,0.005732,0.015039,0.014199,0.005727
0.004432,0.006491,0.007200,0.005740,0.016078,0.014101,0.005592
0.005178,0.006375,0.006632,0.005364,0.017430,0.014086,0.005518
0.005737,0.006209,0.006172,0.005246,0.018258,0.014194,0.005461
0.006316,0.006133,0.005670,0.005007,0.019121,0.014082,0.005455
0.006809,0.006055,0.005222,0.004744,0.019985,0.014311,0.005356
0.007218,0.006118,0.004906,0.004463,0.020477,0.014415,0.005269
0.007469,0.006394,0.004717,0.004351,0.020273,0.014437,0.005330
0.007758,0.006495,0.004670,0.004096,0.019798,0.014331,0.005638
0.007459,0.006438,0.005135,0.004446,0.019163,0.014239,0.005880
0.006921,0.006522,0.005841,0.004891,0.018848,0.014176,0.006043
0.006161,0.006847,0.006718,0.006302,0.018772,0.014015,0.005872
0.005929,0.007478,0.007154,0.009630,0.018661,0.013529,0.005709
0.006464,0.008041,0.006943,0.014209,0.018087,0.013179,0.005649
0.008736,0.008251,0.006137,0.022263,0.016709,0.012838,0.005568
0.012447,0.008337,0.005366,0.034407,0.014450,0.012446,0.005529
0.017060,0.008804,0.004837,0.043299,0.012791,0.012078,0.005934
0.021320,0.009035,0.005760,0.048582,0.011530,0.011692,0.007583
0.026989,0.009194,0.006688,0.054692,0.010816,0.011162,0.009428
0.031883,0.009874,0.007663,0.059987,0.010076,0.010835,0.011744
0.039097,0.009953,0.009072,0.065430,0.009615,0.010160,0.014701
0.046948,0.009873,0.010620,0.071034,0.009329,0.009569,0.017621
0.057680,0.009412,0.011793,0.078564,0.009269,0.008836,0.020198
0.070244,0.008775,0.011840,0.086770,0.009203,0.008169,0.022626
0.082824,0.008222,0.011460,0.093650,0.008842,0.007521,0.026229
0.092251,0.008145,0.012253,0.097598,0.008642,0.006854,0.030664
0.102307,0.007860,0.013894,0.100061,0.008407,0.006268,0.035689
0.111220,0.007578,0.015162,0.103083,0.008262,0.005948,0.040159
0.119376,0.006819,0.016252,0.104821,0.008132,0.005786,0.045638
0.125257,0.007328,0.018537,0.101459,0.008439,0.005764,0.051511
0.127579,0.007994,0.021746,0.092719,0.009162,0.005908,0.058246
0.129346,0.008367,0.024264,0.088741,0.009838,0.005780,0.063530
0.132039,0.008752,0.024638,0.089697,0.009614,0.005667,0.066538
0.132306,0.009419,0.024220,0.090740,0.009287,0.005572,0.069024
0.130448,0.009824,0.024722,0.090550,0.008963,0.005439,0.071365
0.126013,0.010807,0.024647,0.089135,0.008520,0.005383,0.073015
0.120112,0.010988,0.023330,0.088553,0.008212,0.005423,0.074416
0.110084,0.011445,0.022122,0.087508,0.007867,0.005525,0.074738
0.098380,0.011868,0.021480,0.087669,0.007501,0.005493,0.075151
0.087033,0.012033,0.020897,0.087867,0.007661,0.005351,0.074345
0.078857,0.011596,0.019075,0.091239,0.007762,0.005157,0.072365
0.070044,0.011343,0.016464,0.096357,0.007794,0.005083,0.069593
0.061855,0.011113,0.014617,0.100888,0.007829,0.004983,0.067172
0.054378,0.011228,0.012969,0.108155,0.007332,0.004780,0.064023
0.047557,0.010391,0.010683,0.118391,0.006545,0.004547,0.060808
0.043088,0.009376,0.007475,0.128330,0.005771,0.004438,0.056469
0.038106,0.008369,0.004957,0.137598,0.004960,0.004302,0.053075
0.031830,0.007735,0.003659,0.144293,0.004743,0.004124,0.050935
0.026549,0.007158,0.003150,0.150286,0.004508,0.003882,0.049436
0.024122,0.006297,0.001674,0.157463,0.004203,0.003693,0.047093
0.022007,0.005361,0.000302,0.163355,0.004358,0.003517,0.044905
0.020554,0.005242,0.000007,0.166342,0.004903,0.003320,0.042840
0.020139,0.005122,0.000007,0.171621,0.005275,0.002989,0.042134
0.019817,0.005023,0.000007,0.174786,0.005849,0.002750,0.041402
0.019459,0.005027,0.000007,0.180166,0.006030,0.002449,0.040754
0.019032,0.004996,0.000007,0.184551,0.006191,0.002225,0.040297
0.018651,0.005057,0.000007,0.188219,0.006263,0.002008,0.040042
0.018265,0.005054,0.000007,0.186900,0.006400,0.002084,0.040324
0.017928,0.005045,0.000007,0.182681,0.006652,0.002286,0.040514
0.017472,0.004937,0.000007,0.172809,0.007510,0.002682,0.040177
0.016650,0.004894,0.000069,0.162920,0.008413,0.003072,0.040222
0.015901,0.004952,0.000069,0.152692,0.009313,0.003455,0.040039
0.015294,0.005115,0.000069,0.145041,0.009694,0.003781,0.039026
0.014726,0.005264,0.000069,0.136637,0.010169,0.004159,0.037516
0.014155,0.005492,0.000069,0.129317,0.010713,0.004458,0.036037
0.013577,0.005821,0.000069,0.124250,0.011125,0.004651,0.034585
0.013192,0.006253,0.000062,0.122724,0.011111,0.004713,0.033167
0.012998,0.006679,0.000062,0.118857,0.011225,0.004906,0.031708
0.013006,0.007042,0.000062,0.116090,0.011230,0.005052,0.030504
0.013091,0.007406,0.000062,0.112278,0.011563,0.005203,0.029337
0.013222,0.007858,0.000062,0.109922,0.011890,0.005252,0.028296
0.013283,0.008327,0.000062,0.107863,0.012358,0.005265,0.027492
0.013414,0.009178,0.000062,0.111589,0.012340,0.005033,0.025718
0.013545,0.010293,0.000062,0.114267,0.012646,0.004814,0.023676
0.013690,0.011517,0.000062,0.120645,0.012632,0.004459,0.021863
0.013997,0.012663,0.000000,0.123786,0.012930,0.004223,0.020407
0.014050,0.013733,0.000000,0.125142,0.013354,0.004105,0.019406
0.014059,0.014587,0.000000,0.124865,0.013846,0.004102,0.019079
0.014074,0.015396,0.000000,0.125540,0.014164,0.004060,0.018921
0.013752,0.015886,0.000280,0.124180,0.014866,0.004032,0.018997
0.013224,0.016079,0.000706,0.122505,0.015801,0.004033,0.018921
0.012401,0.016034,0.001396,0.119719,0.016661,0.004082,0.018826
0.011610,0.015861,0.001940,0.115486,0.017488,0.004229,0.018241
0.011242,0.015547,0.002164,0.112240,0.018144,0.004390,0.017322
0.011097,0.015160,0.002164,0.108765,0.018824,0.004581,0.016328
0.010967,0.014668,0.002164,0.103716,0.019682,0.004900,0.015363
0.010820,0.014087,0.002164,0.097625,0.020565,0.005273,0.014401
0.010601,0.013154,0.002164,0.088214,0.021471,0.005822,0.014132
0.010333,0.011957,0.002164,0.079029,0.022453,0.006330,0.014059
0.010010,0.010726,0.002164,0.070579,0.023178,0.006865,0.013875
0.009665,0.009554,0.002164,0.065027,0.023846,0.007265,0.013102
0.009425,0.008440,0.002182,0.060095,0.025141,0.007518,0.012088
0.008975,0.007368,0.002355,0.056188,0.026395,0.007598,0.010903
0.008465,0.006282,0.002628,0.052971,0.027645,0.007692,0.009799
0.008298,0.005454,0.002656,0.051443,0.028535,0.007736,0.009124
0.008087,0.004914,0.002735,0.050387,0.028766,0.007803,0.008442
0.008087,0.004544,0.002675,0.048975,0.029885,0.007705,0.007797
0.007985,0.004220,0.002782,0.047496,0.031026,0.007571,0.007785
0.007466,0.003973,0.003176,0.043732,0.031836,0.007596,0.008339
0.006651,0.003833,0.003783,0.039805,0.032501,0.007639,0.008981
0.005809,0.003821,0.004410,0.035856,0.033055,0.007609,0.009494
0.005002,0.003877,0.005004,0.032366,0.033466,0.007580,0.009745
0.004227,0.004054,0.005634,0.029394,0.034209,0.007469,0.009888
0.004293,0.004160,0.005634,0.026022,0.034246,0.007637,0.010164
0.003958,0.004323,0.006000,0.023092,0.034931,0.007599,0.010243
0.003607,0.004587,0.006362,0.022098,0.035275,0.007476,0.010123
0.003259,0.004839,0.006749,0.022145,0.035208,0.007369,0.009900
0.002783,0.005201,0.007237,0.021650,0.035082,0.007326,0.009773
0.002423,0.005569,0.007622,0.019955,0.034947,0.007288,0.009563
0.002795,0.005752,0.007410,0.017937,0.034956,0.007420,0.009175
0.002775,0.005959,0.007530,0.016502,0.035062,0.007443,0.008704
0.003233,0.006067,0.007237,0.014489,0.033759,0.007821,0.008592
0.003952,0.006103,0.006744,0.012305,0.032338,0.008262,0.008394
0.004702,0.006254,0.006249,0.010208,0.031220,0.008627,0.007714
0.005476,0.006278,0.005745,0.008278,0.029881,0.009048,0.007006
0.006260,0.006290,0.005217,0.007299,0.028386,0.009481,0.006401
0.006949,0.006289,0.004757,0.006277,0.026912,0.009853,0.006074
0.007587,0.006232,0.004293,0.005332,0.025304,0.010216,0.005867
0.007234,0.006466,0.004617,0.005213,0.024122,0.010387,0.005446
0.007450,0.006971,0.004565,0.004470,0.022373,0.010741,0.005256
0.007558,0.007704,0.004754,0.003764,0.020482,0.011095,0.005508
0.007815,0.009517,0.004802,0.002908,0.018387,0.011434,0.005936
0.008390,0.011783,0.004627,0.002104,0.016414,0.011822,0.006345
0.008966,0.014435,0.004405,0.001386,0.014691,0.012194,0.006662
0.008849,0.016554,0.004693,0.001229,0.012852,0.012442,0.006908
0.009451,0.018692,0.004467,0.000541,0.011126,0.012788,0.007176
0.009770,0.020946,0.004426,0.000288,0.009942,0.012987,0.007226
0.009782,0.023274,0.004607,0.000318,0.008994,0.013075,0.007230
0.009387,0.024924,0.005020,0.000673,0.008389,0.013101,0.007219
0.009073,0.026482,0.005477,0.000910,0.008171,0.013037,0.007145
0.008833,0.027487,0.005807,0.001060,0.007963,0.012972,0.007094
0.008503,0.028156,0.006305,0.001352,0.007700,0.012926,0.007014
0.008253,0.028739,0.006622,0.001659,0.007512,0.012890,0.006948
0.007950,0.029119,0.006900,0.002057,0.007610,0.012783,0.006859
0.007463,0.029153,0.007208,0.002688,0.007751,0.012619,0.006684
0.007001,0.028567,0.007331,0.003246,0.007933,0.012576,0.006429
0.006406,0.026836,0.007484,0.003811,0.008149,0.012598,0.006165
0.005830,0.024526,0.007610,0.004402,0.008640,0.012589,0.005929
0.005748,0.021904,0.007358,0.004651,0.009501,0.012585,0.005768
0.005988,0.019945,0.006975,0.004674,0.010356,0.012587,0.005571
0.006191,0.017886,0.006576,0.004674,0.011572,0.012598,0.005419
0.006300,0.015629,0.006280,0.004699,0.012776,0.012611,0.005338
0.006415,0.013153,0.005940,0.004670,0.013859,0.012691,0.005372
0.006912,0.011180,0.005406,0.004314,0.014448,0.012772,0.005503
0.006478,0.009593,0.005572,0.004690,0.014704,0.012705,0.005469
0.006113,0.009292,0.005722,0.005135,0.015008,0.012682,0.005340
0.006620,0.009213,0.005091,0.004871,0.015493,0.012875,0.005289
0.007095,0.009297,0.004608,0.004563,0.015801,0.013130,0.005204
0.007804,0.008779,0.004050,0.004014,0.016063,0.013327,0.005178
0.007970,0.008554,0.003994,0.003786,0.016224,0.013460,0.005169
0.008620,0.008734,0.003559,0.003351,0.016506,0.013467,0.005168
0.009467,0.008934,0.002953,0.002786,0.016653,0.013546,0.005185
0.010266,0.008989,0.002340,0.002224,0.016339,0.013610,0.005274
0.010499,0.008933,0.002156,0.001975,0.015729,0.013672,0.005380
0.010314,0.008987,0.002266,0.001959,0.015032,0.013702,0.005578
0.010078,0.008937,0.002434,0.001959,0.014084,0.013720,0.005754
0.009886,0.008828,0.002565,0.001915,0.013178,0.013769,0.005871
0.009819,0.008808,0.002670,0.001915,0.012626,0.013819,0.005795
0.009722,0.009044,0.002806,0.001915,0.012612,0.013790,0.005722
0.010429,0.009233,0.002327,0.001303,0.012671,0.013907,0.005756
0.010505,0.008594,0.002236,0.001045,0.012437,0.013892,0.005915
0.010291,0.008156,0.002428,0.001017,0.012248,0.013772,0.006004
0.010125,0.007612,0.002526,0.001017,0.012489,0.013612,0.006045
0.010057,0.007752,0.002581,0.001017,0.012731,0.013525,0.006075
0.010542,0.007807,0.002134,0.000584,0.012849,0.013590,0.006177
0.010731,0.007620,0.001978,0.000372,0.012752,0.013711,0.006330
0.010748,0.007392,0.001993,0.000372,0.012562,0.013888,0.006467
0.010830,0.007153,0.001993,0.000343,0.012802,0.014072,0.006457
0.010793,0.006986,0.002166,0.000343,0.012724,0.014229,0.006451
0.010752,0.007361,0.002267,0.000336,0.013070,0.014294,0.006310
0.010677,0.007911,0.002311,0.000336,0.013277,0.014225,0.006237
0.010632,0.008655,0.002293,0.000336,0.013612,0.014103,0.006124
0.010596,0.009075,0.002219,0.000336,0.013716,0.014098,0.006098
0.010595,0.008980,0.002264,0.000336,0.013287,0.014236,0.006028
0.010605,0.009092,0.002258,0.000336,0.012921,0.014474,0.006004
0.011016,0.009472,0.002023,0.000000,0.012682,0.014678,0.005962
0.011267,0.009974,0.001854,0.000000,0.012506,0.014892,0.005907
0.011375,0.010259,0.001766,0.000138,0.012103,0.015054,0.005886
0.011345,0.010438,0.001677,0.000337,0.011584,0.015262,0.005888
0.011209,0.010196,0.001654,0.000497,0.011160,0.015361,0.005943
0.011195,0.010144,0.001572,0.000584,0.010925,0.015391,0.006021
0.011231,0.009977,0.001557,0.000584,0.010802,0.015317,0.006079
0.011258,0.009971,0.001557,0.000584,0.010564,0.015275,0.006213
0.011313,0.009705,0.001420,0.000584,0.010552,0.015329,0.006255
0.011445,0.008794,0.001208,0.000605,0.010268,0.015397,0.006318
0.011439,0.007781,0.001378,0.000788,0.009942,0.015483,0.006310
0.011283,0.006800,0.001801,0.001023,0.009416,0.015465,0.006426
0.011295,0.006211,0.002097,0.001023,0.009647,0.015249,0.006469
0.011265,0.006073,0.002155,0.001042,0.010728,0.014945,0.006458
0.010831,0.005806,0.002717,0.001472,0.012527,0.014349,0.006270
0.010203,0.005446,0.003861,0.003006,0.013654,0.013902,0.005971
0.009299,0.005048,0.005263,0.004514,0.014354,0.013379,0.005719
0.008804,0.004866,0.006094,0.005588,0.014737,0.013027,0.005645
0.008041,0.005003,0.006843,0.006000,0.015775,0.012508,0.005591
0.007436,0.005575,0.007492,0.006489,0.017310,0.011960,0.005447
0.006818,0.006101,0.008286,0.006814,0.018417,0.011562,0.005210
0.006615,0.006623,0.008678,0.006814,0.019090,0.011419,0.005029
0.006336,0.006590,0.009097,0.006814,0.019083,0.011396,0.004913
0.006201,0.006703,0.009321,0.006814,0.019026,0.011328,0.004886
0.006036,0.006761,0.009440,0.006801,0.018665,0.011275,0.004970
0.006124,0.007073,0.009162,0.006619,0.018420,0.011329,0.005076
0.006259,0.007766,0.008739,0.006383,0.018410,0.011526,0.005027
0.006119,0.008699,0.008819,0.006383,0.017680,0.011721,0.005020
0.005653,0.009528,0.009403,0.006668,0.016769,0.011825,0.004904
0.005344,0.010044,0.009650,0.006731,0.015473,0.011927,0.004979
0.005307,0.010208,0.009134,0.005710,0.015021,0.012031,0.005176
0.005307,0.010120,0.008423,0.004748,0.015289,0.012013,0.005300
0.004999,0.009945,0.008315,0.004082,0.015573,0.011868,0.005348
0.004999,0.009376,0.008284,0.003990,0.015168,0.011837,0.005381
0.005424,0.008594,0.007839,0.003483,0.013756,0.012101,0.005631
0.005552,0.007870,0.007424,0.003350,0.012708,0.012243,0.005858
0.004855,0.007483,0.007604,0.004022,0.012514,0.012062,0.005855
0.004224,0.007603,0.008177,0.005989,0.012861,0.011623,0.005665
0.005178,0.007821,0.008911,0.010943,0.013169,0.010959,0.005432
0.010038,0.007807,0.010177,0.016145,0.013616,0.010262,0.005793
0.018954,0.007737,0.012413,0.021822,0.014164,0.009367,0.007103
0.027683,0.007447,0.014864,0.027613,0.014519,0.008427,0.010138
0.037901,0.007737,0.017546,0.031097,0.014713,0.007641,0.013724
0.049590,0.008608,0.019140,0.036244,0.014431,0.006991,0.018137
0.061246,0.009575,0.019739,0.041702,0.013809,0.006629,0.022782
0.072048,0.010770,0.020687,0.045834,0.013153,0.006293,0.027249
0.082931,0.012125,0.022773,0.047941,0.011964,0.006092,0.031440
0.093448,0.014062,0.025246,0.049859,0.011062,0.005862,0.035312
0.103320,0.016233,0.028024,0.051167,0.010194,0.005657,0.038850
0.113475,0.018355,0.031395,0.051922,0.010003,0.005238,0.042295
0.122845,0.020303,0.034087,0.053359,0.009729,0.004889,0.046316
0.132816,0.022745,0.036650,0.054215,0.009112,0.004548,0.051563
0.141311,0.025347,0.040111,0.053013,0.008594,0.004220,0.056872
0.144742,0.027584,0.044131,0.048059,0.008200,0.004115,0.061585
0.143727,0.029825,0.047099,0.042848,0.007950,0.004186,0.065966
0.139100,0.031741,0.048141,0.037385,0.007688,0.004489,0.069817
0.134191,0.033574,0.048160,0.032490,0.007517,0.004817,0.072535
0.127810,0.034188,0.047072,0.030004,0.007469,0.005138,0.074774
0.119824,0.034099,0.046886,0.026266,0.007874,0.005379,0.076349
0.110696,0.034264,0.047298,0.023200,0.008327,0.005522,0.078248
0.101942,0.034200,0.046945,0.021406,0.008738,0.005659,0.080655
0.092277,0.032969,0.044998,0.022018,0.009056,0.005857,0.082579
0.082995,0.031186,0.042072,0.022940,0.009328,0.006147,0.084388
0.074464,0.029180,0.038616,0.024839,0.009516,0.006436,0.086017
0.065001,0.027280,0.035138,0.027829,0.009726,0.006670,0.086832
0.056068,0.025532,0.032407,0.029210,0.010047,0.006892,0.087297
0.046930,0.022995,0.029477,0.030838,0.010294,0.007166,0.087521
0.038994,0.020170,0.025375,0.033781,0.010449,0.007522,0.088040
0.034907,0.017693,0.020361,0.038702,0.010135,0.007890,0.089006
0.031327,0.015469,0.016009,0.043420,0.009744,0.008205,0.088596
0.027221,0.013460,0.012627,0.048619,0.009401,0.008403,0.086666
0.023631,0.011342,0.010044,0.053498,0.009132,0.008563,0.083812
0.019843,0.009669,0.008185,0.058474,0.008951,0.008621,0.080877
0.016126,0.008156,0.006408,0.062664,0.008546,0.008742,0.077968
0.013597,0.006376,0.005032,0.065666,0.008195,0.008937,0.074367
0.011549,0.004852,0.004384,0.069695,0.007853,0.009163,0.070007
0.010330,0.004424,0.004400,0.073520,0.007773,0.009327,0.065307
0.009096,0.004075,0.005068,0.076949,0.007855,0.009461,0.060414
0.007755,0.003808,0.006015,0.078112,0.008330,0.009623,0.056122
0.006637,0.003638,0.006821,0.077316,0.008878,0.009906,0.053173
0.005868,0.003519,0.007461,0.076405,0.009416,0.010244,0.050393
0.005034,0.003826,0.008240,0.075831,0.010292,0.010488,0.046793
0.004475,0.004470,0.009149,0.076288,0.011401,0.010832,0.042829
0.003522,0.005304,0.010470,0.075751,0.013008,0.011120,0.038872
0.002626,0.006310,0.011759,0.075509,0.014514,0.011316,0.035942
0.001765,0.007336,0.012916,0.074868,0.015867,0.011441,0.034068
0.000908,0.008428,0.014059,0.074155,0.017284,0.011470,0.032536
0.000244,0.009576,0.015002,0.073539,0.019010,0.011374,0.030921
0.000000,0.010733,0.015603,0.073253,0.020691,0.011282,0.029263
0.000172,0.011803,0.015846,0.073264,0.022366,0.011169,0.027123
0.000568,0.012730,0.015780,0.071956,0.023961,0.010973,0.025212
0.001246,0.013362,0.015468,0.069433,0.025170,0.010837,0.024512
0.001246,0.013947,0.015313,0.065931,0.026271,0.010514,0.024747
0.001414,0.014407,0.014939,0.064062,0.027085,0.010191,0.025117
0.001833,0.014612,0.014345,0.064140,0.027950,0.009780,0.024883
0.002259,0.014669,0.013743,0.065737,0.028892,0.009175,0.024249
0.002586,0.014390,0.013235,0.066545,0.029447,0.008670,0.023429
0.003274,0.013919,0.012149,0.065160,0.029599,0.008227,0.022668
0.003690,0.013379,0.011210,0.063556,0.029864,0.007814,0.021940
0.003690,0.012711,0.010607,0.061909,0.030288,0.007417,0.021640
0.003690,0.011962,0.010125,0.060281,0.030804,0.007131,0.021363
0.003690,0.011143,0.009654,0.058807,0.031194,0.006971,0.021132
0.003699,0.010308,0.009259,0.057333,0.031216,0.006940,0.020528
0.003699,0.009420,0.008872,0.055538,0.031528,0.006874,0.019778
0.003540,0.008620,0.008587,0.052938,0.031854,0.006811,0.019661
0.003254,0.007916,0.008449,0.048857,0.032345,0.006851,0.019799
0.002581,0.007527,0.008589,0.045432,0.033270,0.006791,0.019848
0.002721,0.007133,0.008408,0.043208,0.034301,0.006857,0.019522
0.002832,0.006785,0.008279,0.041266,0.035027,0.006876,0.018891
0.003172,0.006477,0.008003,0.039092,0.035450,0.006932,0.017854
0.003691,0.006175,0.007626,0.035909,0.035784,0.007137,0.016830
0.004332,0.005907,0.007151,0.033984,0.036067,0.007363,0.015825
0.004589,0.005701,0.006976,0.032974,0.036733,0.007453,0.014991
0.005125,0.005447,0.006596,0.031917,0.036999,0.007532,0.014397
0.006037,0.005189,0.005909,0.031503,0.036995,0.007654,0.013398
0.006938,0.005020,0.005233,0.032482,0.036826,0.007729,0.012489
0.007830,0.004894,0.004562,0.033209,0.036644,0.007822,0.011556
0.008703,0.004835,0.003890,0.033708,0.036755,0.007884,0.011198
0.009348,0.005165,0.003452,0.034472,0.036815,0.007939,0.011360
0.010278,0.005675,0.002808,0.035355,0.037137,0.008015,0.011601
0.010841,0.006498,0.002359,0.038272,0.037922,0.007857,0.011631
0.011281,0.007324,0.002054,0.040510,0.039168,0.007616,0.011584
0.011346,0.008169,0.002033,0.042688,0.039942,0.007410,0.011350
0.011392,0.009087,0.002047,0.044831,0.040825,0.007272,0.011093
0.011095,0.010091,0.002328,0.046336,0.041990,0.007158,0.011237
0.011032,0.011012,0.002427,0.046266,0.043142,0.007157,0.011470
0.010827,0.012012,0.002657,0.045276,0.044453,0.007069,0.011813
0.010912,0.012935,0.002657,0.043664,0.045148,0.007112,0.011978
0.011044,0.013524,0.002657,0.042020,0.046024,0.007193,0.011587
0.011170,0.014052,0.002662,0.039737,0.046937,0.007264,0.011145
0.011047,0.014335,0.002878,0.035886,0.047320,0.007444,0.010783
0.010422,0.014738,0.003463,0.032196,0.047130,0.007553,0.010542
0.009543,0.015101,0.004230,0.028595,0.046677,0.007669,0.010297
0.008898,0.015144,0.004799,0.024604,0.046220,0.007793,0.010089
0.008003,0.015018,0.005558,0.020783,0.045371,0.007852,0.010076
0.007331,0.014620,0.006143,0.016672,0.043849,0.008047,0.010220
0.006887,0.014059,0.006475,0.013482,0.041312,0.008404,0.010568
0.006681,0.013425,0.006634,0.010354,0.039263,0.008711,0.011231
0.006357,0.012770,0.006825,0.007220,0.037122,0.008980,0.012040
0.005894,0.011987,0.007138,0.004799,0.034743,0.009190,0.012805
0.005029,0.011240,0.007719,0.004270,0.032291,0.009359,0.013645
0.004267,0.010349,0.008155,0.003794,0.029918,0.009599,0.014613
0.003280,0.009473,0.008780,0.003637,0.027933,0.009802,0.015514
0.002611,0.008740,0.009181,0.003558,0.025780,0.010019,0.016294
0.002078,0.008050,0.009548,0.003425,0.023598,0.010276,0.016987
0.001946,0.007611,0.009597,0.003160,0.021766,0.010482,0.017199
0.001858,0.007144,0.009597,0.002922,0.020433,0.010631,0.017324
0.001856,0.006760,0.009463,0.002654,0.019180,0.010830,0.017258
0.001992,0.006748,0.009259,0.002405,0.017713,0.011100,0.016887
0.002274,0.007421,0.009048,0.002334,0.016292,0.011367,0.016150
0.002900,0.008262,0.008633,0.002036,0.015120,0.011598,0.015460
0.003321,0.008985,0.008397,0.002137,0.014512,0.011717,0.014495
0.003587,0.009307,0.008176,0.002405,0.013785,0.011863,0.013380
0.003943,0.009708,0.007927,0.002657,0.013256,0.012013,0.012196
0.004616,0.010091,0.007354,0.002578,0.012696,0.012241,0.011146
0.005233,0.010614,0.006834,0.002578,0.012150,0.012328,0.009959
0.005876,0.011366,0.006346,0.002578,0.011535,0.012336,0.008745
0.006088,0.012428,0.006294,0.002922,0.010966,0.012218,0.007611
0.005704,0.013884,0.006644,0.003587,0.010551,0.012046,0.006886
0.005452,0.015613,0.006862,0.004028,0.010349,0.011818,0.006339
0.005119,0.017411,0.007159,0.004369,0.010353,0.011652,0.006138
0.005270,0.019510,0.007092,0.004260,0.010372,0.011605,0.006049
0.005531,0.021750,0.007068,0.004040,0.010245,0.011577,0.006113
0.005452,0.023536,0.007340,0.004193,0.010285,0.011470,0.005994
0.005350,0.023907,0.007638,0.004242,0.010376,0.011420,0.005924
0.004830,0.023636,0.008173,0.004760,0.010599,0.011370,0.005747
0.004835,0.023398,0.008218,0.004687,0.010654,0.011440,0.005716
0.004568,0.023614,0.008371,0.004839,0.010646,0.011487,0.005623
0.004213,0.023572,0.008562,0.005079,0.010699,0.011473,0.005518
0.004288,0.023159,0.008457,0.005079,0.011070,0.011449,0.005486
0.004419,0.022397,0.008376,0.005079,0.011522,0.011570,0.005522
0.004543,0.021521,0.008391,0.005079,0.011939,0.011793,0.005521
0.004985,0.020280,0.008060,0.004735,0.012331,0.012201,0.005535
0.005585,0.018843,0.007643,0.004070,0.012518,0.012484,0.005672
0.005965,0.017459,0.007267,0.003628,0.012730,0.012769,0.005729
0.006263,0.016281,0.006890,0.003302,0.012853,0.012908,0.005812
0.006502,0.014921,0.006538,0.003124,0.013098,0.012997,0.005763
0.006900,0.013217,0.006033,0.002830,0.013454,0.013050,0.005683
0.007464,0.011285,0.005281,0.002331,0.013697,0.013199,0.005724
0.007827,0.010117,0.004623,0.001995,0.013872,0.013276,0.005818
0.008332,0.009354,0.003973,0.001476,0.013764,0.013302,0.006003
0.008497,0.008963,0.003708,0.001271,0.013584,0.013331,0.006127
0.008497,0.008899,0.003768,0.001357,0.013558,0.013296,0.006166
0.008497,0.009306,0.003980,0.001433,0.013602,0.013268,0.006162
0.007870,0.010807,0.004614,0.001994,0.013285,0.013164,0.005998
0.007811,0.012270,0.004750,0.001994,0.012829,0.013062,0.005979
0.007815,0.013574,0.004566,0.001994,0.012528,0.012930,0.006030
0.007876,0.014555,0.004372,0.002006,0.012530,0.012647,0.006142
0.008032,0.015266,0.004038,0.002120,0.012794,0.012541,0.006211
0.008160,0.015229,0.003901,0.002170,0.012961,0.012490,0.006296
0.008301,0.014846,0.003786,0.002150,0.012924,0.012597,0.006338
0.008466,0.014198,0.003827,0.002062,0.012950,0.012721,0.006375
0.008132,0.013767,0.004247,0.002431,0.013036,0.012705,0.006274
0.007764,0.013583,0.004647,0.002867,0.013404,0.012551,0.006146
0.007864,0.013386,0.004577,0.002868,0.013877,0.012504,0.006063
0.007827,0.013147,0.004482,0.002868,0.014030,0.012571,0.005970
0.007958,0.012703,0.004254,0.002854,0.014214,0.012663,0.005935
0.008698,0.012060,0.003559,0.002210,0.014209,0.012849,0.006063
0.009428,0.011175,0.002838,0.001788,0.014534,0.013020,0.006155
0.010111,0.009975,0.002325,0.001227,0.014671,0.013199,0.006306
0.009985,0.009181,0.002736,0.001453,0.015005,0.013139,0.006207
0.009787,0.008371,0.003374,0.001590,0.014958,0.013078,0.006039
0.009759,0.007855,0.004151,0.001578,0.014566,0.013014,0.005879
0.009386,0.007362,0.005108,0.001726,0.013960,0.012848,0.005775
0.009377,0.007296,0.005586,0.001676,0.013313,0.012759,0.005760
0.009052,0.007230,0.006034,0.001937,0.013030,0.012805,0.005744
0.008475,0.007288,0.006386,0.002410,0.012610,0.012867,0.005672
0.008149,0.007487,0.006517,0.002773,0.012125,0.013115,0.005608
0.008064,0.007977,0.006491,0.002940,0.011325,0.013380,0.005564
0.007373,0.009179,0.006994,0.003951,0.010431,0.013779,0.005330
0.006799,0.010320,0.007767,0.004870,0.009851,0.014237,0.005029
0.006078,0.011325,0.008888,0.005861,0.009203,0.014763,0.004673
0.006011,0.011345,0.009466,0.006075,0.008807,0.015244,0.004582
0.005281,0.011117,0.010224,0.006632,0.007915,0.015887,0.004524
0.004476,0.010624,0.010989,0.007380,0.007317,0.016591,0.004430
0.003895,0.010083,0.011372,0.008101,0.006559,0.017503,0.004338
0.003323,0.009885,0.011743,0.009012,0.006024,0.018264,0.004265
0.002593,0.009773,0.011720,0.010207,0.005609,0.019308,0.004163
0.002546,0.009777,0.011226,0.010658,0.005497,0.020258,0.004184
0.001792,0.009678,0.011477,0.011510,0.005581,0.020984,0.003991
0.002016,0.009559,0.011261,0.011249,0.005809,0.021085,0.004123
0.001858,0.009278,0.011427,0.011495,0.005963,0.021631,0.004080
0.001858,0.008702,0.011458,0.011577,0.006124,0.022050,0.004099
0.001690,0.007922,0.011925,0.011876,0.006759,0.022355,0.003954
0.001690,0.006661,0.012449,0.011627,0.008100,0.021727,0.003906
0.001690,0.005583,0.012654,0.011394,0.009656,0.020987,0.003918
0.001919,0.004585,0.012164,0.010788,0.010877,0.020354,0.004217
0.001742,0.004388,0.011761,0.010734,0.011323,0.019884,0.004351
0.002452,0.004387,0.011321,0.009946,0.011647,0.019282,0.004535
0.002610,0.004511,0.011428,0.009634,0.012108,0.018369,0.004557
0.002911,0.004584,0.011343,0.008922,0.012694,0.017474,0.004743
0.002911,0.004235,0.011192,0.008397,0.013223,0.017252,0.004794
0.002911,0.003989,0.011054,0.007752,0.013381,0.016867,0.004793
0.002543,0.004189,0.011243,0.007628,0.013569,0.016550,0.004598
0.002543,0.005165,0.011230,0.007388,0.013818,0.015783,0.004522
0.002006,0.006264,0.011731,0.007948,0.014265,0.015430,0.004153
0.002312,0.007475,0.012484,0.008496,0.014763,0.014439,0.003965
0.003888,0.008276,0.013070,0.010151,0.015268,0.013483,0.003872
0.007143,0.009343,0.013271,0.012205,0.014973,0.012723,0.003887
0.011983,0.010602,0.013416,0.013032,0.014073,0.012730,0.003875
0.016433,0.011451,0.014623,0.012653,0.013194,0.012749,0.003822
0.020497,0.012574,0.018186,0.012268,0.012440,0.012324,0.003655
0.024397,0.013390,0.021083,0.012107,0.012499,0.011866,0.004236
0.028345,0.013561,0.023737,0.012107,0.012439,0.011519,0.005040
0.034414,0.013641,0.026434,0.011671,0.012040,0.011411,0.006279
0.040720,0.014146,0.028039,0.011619,0.011749,0.011231,0.007559
0.045601,0.014915,0.029317,0.011096,0.011516,0.010606,0.008845
0.051148,0.015427,0.030224,0.011862,0.011696,0.009837,0.010948
0.057323,0.015501,0.031161,0.015053,0.011985,0.008955,0.013126
0.064197,0.016347,0.031923,0.017447,0.012231,0.008695,0.015621
0.068996,0.017163,0.032854,0.019636,0.012232,0.008415,0.018028
0.073151,0.017316,0.033590,0.020915,0.012291,0.008273,0.021020
0.074836,0.017974,0.035300,0.021134,0.012421,0.008055,0.024309
0.074630,0.018212,0.037287,0.020061,0.012778,0.007919,0.028769
0.071920,0.017359,0.039265,0.019344,0.012867,0.007822,0.034033
0.068569,0.016375,0.040296,0.019715,0.012752,0.007644,0.040828
0.065334,0.015311,0.039044,0.020750,0.012910,0.007654,0.047465
0.062629,0.014635,0.038510,0.024786,0.013069,0.007378,0.054328
0.060241,0.014650,0.037661,0.029555,0.013403,0.007011,0.059857
0.055800,0.014760,0.036233,0.032798,0.014086,0.006730,0.064762
0.049828,0.014664,0.034971,0.037077,0.014628,0.006417,0.067935
0.045794,0.014317,0.033689,0.043171,0.015100,0.005976,0.070590
0.041089,0.014193,0.032689,0.047255,0.015403,0.005679,0.072412
0.035751,0.013988,0.031833,0.047257,0.015056,0.005739,0.073737
0.029631,0.012201,0.031176,0.047534,0.014698,0.005759,0.075141
0.025208,0.010370,0.030566,0.048847,0.014192,0.005786,0.076059
0.021639,0.009139,0.029719,0.049758,0.013597,0.005901,0.076739
0.019857,0.007748,0.027683,0.051680,0.012796,0.006124,0.077657
0.018446,0.006250,0.025548,0.053996,0.012034,0.006279,0.078674
0.017368,0.005996,0.023599,0.056966,0.011592,0.006362,0.078141
0.016955,0.006591,0.021683,0.060372,0.011357,0.006442,0.075260
0.017703,0.007267,0.019264,0.062873,0.011196,0.006573,0.072686
0.016671,0.008424,0.017695,0.062393,0.010872,0.006911,0.068845
0.015862,0.009588,0.015729,0.061004,0.011006,0.007216,0.065061
0.014313,0.010828,0.014497,0.062642,0.011270,0.007269,0.060921
0.014088,0.011601,0.013989,0.063350,0.011471,0.007302,0.058825
0.014324,0.012338,0.013282,0.063393,0.011356,0.007468,0.057712
0.014431,0.012765,0.012854,0.064468,0.011332,0.007513,0.056713
0.014967,0.013005,0.012408,0.066800,0.011733,0.007405,0.055903
0.015394,0.013372,0.012015,0.067974,0.011920,0.007407,0.054531
0.016336,0.013545,0.011295,0.068131,0.011948,0.007630,0.053573
0.017310,0.013488,0.010061,0.069120,0.012179,0.007891,0.052523
0.017195,0.013389,0.009637,0.068817,0.012582,0.008120,0.050724
0.016740,0.013590,0.008984,0.069248,0.013092,0.008332,0.047119
0.015883,0.013222,0.008471,0.071180,0.013516,0.008469,0.044130
0.015463,0.012489,0.007710,0.074051,0.013747,0.008573,0.042465
0.014088,0.011568,0.007793,0.077090,0.013862,0.008445,0.040703
0.014340,0.010151,0.007113,0.080697,0.013769,0.008258,0.038968
0.014169,0.008649,0.006907,0.083753,0.013359,0.008116,0.038751
0.015304,0.006958,0.005831,0.085789,0.012604,0.008137,0.039344
0.016202,0.005555,0.005072,0.086688,0.011685,0.008242,0.039323
0.016413,0.004387,0.004914,0.084828,0.011183,0.008340,0.038484
0.016378,0.003641,0.004811,0.082997,0.011180,0.008327,0.038030
0.015004,0.003439,0.005170,0.081049,0.011391,0.008262,0.038066
0.013823,0.003304,0.005352,0.081280,0.011794,0.008061,0.037951
0.012393,0.003235,0.005689,0.081073,0.012385,0.007783,0.038057
0.010526,0.003463,0.006281,0.082085,0.012702,0.007407,0.037699
0.009163,0.003792,0.006439,0.082870,0.013054,0.007090,0.037434
0.008469,0.003909,0.006416,0.083388,0.012894,0.006879,0.037703
0.009143,0.003865,0.005672,0.082931,0.012706,0.006761,0.037891
0.009765,0.003915,0.004996,0.081241,0.012648,0.006780,0.037740
0.010199,0.003957,0.004365,0.079221,0.013081,0.006881,0.037221
0.009771,0.004164,0.004350,0.076839,0.013820,0.006984,0.036730
0.009044,0.004446,0.004520,0.074992,0.014382,0.007134,0.035813
0.008146,0.004816,0.004794,0.073794,0.015238,0.007213,0.034535
0.007347,0.005237,0.005036,0.072605,0.016185,0.007244,0.033193
0.006055,0.005719,0.005702,0.072258,0.016986,0.007172,0.032241
0.005141,0.006086,0.006406,0.071488,0.017244,0.007206,0.031028
0.005141,0.006168,0.006501,0.071231,0.017232,0.007270,0.029654
0.005141,0.006222,0.006555,0.070278,0.017318,0.007356,0.028171
0.005141,0.006221,0.006567,0.068172,0.017807,0.007364,0.026078
0.005141,0.006194,0.006573,0.064293,0.018949,0.007334,0.024264
0.005141,0.006181,0.006565,0.061965,0.019897,0.007221,0.022475
0.004653,0.006259,0.006862,0.059187,0.021427,0.007036,0.020540
0.003785,0.006804,0.007425,0.056530,0.023459,0.006725,0.018751
0.002896,0.007671,0.008054,0.053798,0.025539,0.006321,0.017247
0.002031,0.008589,0.008647,0.051723,0.026821,0.006048,0.016508
0.001546,0.009337,0.008899,0.048808,0.027957,0.005951,0.015778
0.000984,0.010133,0.009269,0.045335,0.029867,0.005737,0.014871
0.000511,0.010764,0.009627,0.040445,0.031301,0.005715,0.014271
0.000000,0.011007,0.010033,0.036232,0.033224,0.005609,0.013720
0.000000,0.010996,0.010035,0.033160,0.035311,0.005554,0.012533
0.000405,0.011056,0.009642,0.029731,0.037598,0.005580,0.011186
0.000759,0.011269,0.009233,0.026264,0.039535,0.005673,0.009945
0.001524,0.011504,0.008501,0.022670,0.042537,0.005712,0.009223
0.002303,0.011968,0.007746,0.020896,0.044901,0.005790,0.009037
0.003104,0.012445,0.007016,0.019438,0.046731,0.005934,0.008845
0.003924,0.013069,0.006326,0.016737,0.048444,0.006161,0.008693
0.004759,0.013448,0.005720,0.014428,0.049816,0.006347,0.008700
0.004950,0.013633,0.005678,0.012129,0.050212,0.006638,0.009087
0.005488,0.013466,0.005390,0.009596,0.050120,0.007107,0.009158
0.005795,0.013308,0.005317,0.007327,0.050561,0.007379,0.008613
0.006301,0.013086,0.005040,0.005462,0.050415,0.007711,0.008332
0.006301,0.012834,0.005159,0.004816,0.049863,0.007972,0.008074
0.006301,0.012791,0.005261,0.004471,0.049585,0.008099,0.007685
0.006301,0.012887,0.005303,0.004440,0.048584,0.008297,0.007110
0.006301,0.013154,0.005288,0.004190,0.046810,0.008507,0.007327
0.005896,0.013326,0.005630,0.004256,0.044864,0.008694,0.007803
0.005542,0.013265,0.006063,0.004168,0.043239,0.008830,0.008426
0.004777,0.013018,0.006783,0.004289,0.039850,0.009116,0.009198
0.004036,0.012597,0.007526,0.004504,0.037463,0.009358,0.009910
0.003315,0.012034,0.008257,0.004632,0.035299,0.009564,0.010710
0.002696,0.011224,0.008923,0.004570,0.033016,0.009839,0.011806
0.002375,0.010625,0.009325,0.004510,0.031028,0.010159,0.012408
0.002633,0.010123,0.009146,0.004147,0.028737,0.010513,0.012528
0.002661,0.009720,0.009086,0.004147,0.026755,0.010766,0.012156
0.002893,0.009831,0.008865,0.003936,0.024585,0.011104,0.011897
0.002630,0.011068,0.009275,0.004361,0.022810,0.011190,0.011390
0.003103,0.012372,0.009286,0.004022,0.020885,0.011376,0.011450
0.003743,0.012809,0.009126,0.003552,0.019001,0.011602,0.011566
0.004324,0.012561,0.008953,0.002915,0.017658,0.011892,0.012028
0.005084,0.012701,0.008503,0.002308,0.017341,0.012273,0.012171
0.005494,0.012757,0.008439,0.002269,0.016977,0.012777,0.011945
0.005914,0.013138,0.008185,0.002377,0.016869,0.013310,0.011504
0.006643,0.013242,0.007650,0.002262,0.017154,0.013628,0.010831
0.007324,0.014297,0.006951,0.001913,0.016595,0.013777,0.010152
0.007862,0.015684,0.006351,0.001650,0.015421,0.013895,0.009412
0.008283,0.017140,0.005809,0.001650,0.014481,0.014013,0.008340
0.008462,0.017914,0.005445,0.001650,0.013907,0.014161,0.007823
0.008750,0.018527,0.005103,0.001650,0.014217,0.014202,0.007494
0.008976,0.019700,0.005200,0.001650,0.014352,0.014133,0.007520
0.009067,0.021570,0.005634,0.001719,0.014003,0.014005,0.007419
0.009498,0.022782,0.005797,0.001294,0.013813,0.013941,0.007415
0.009579,0.022898,0.005772,0.001190,0.013752,0.013928,0.007012
0.009722,0.022347,0.005518,0.001178,0.013716,0.013993,0.006601
0.009979,0.022013,0.005103,0.001178,0.013603,0.014029,0.006189
0.010060,0.021497,0.004901,0.001178,0.013148,0.013948,0.006020
0.010380,0.021154,0.004333,0.000706,0.012744,0.013720,0.005962
0.010684,0.020762,0.003876,0.000244,0.012179,0.013383,0.005942
0.010531,0.020619,0.003879,0.000214,0.012245,0.013094,0.005901
0.010535,0.019653,0.003934,0.000214,0.012555,0.012904,0.005971
0.010670,0.018389,0.003951,0.000214,0.013307,0.012891,0.005899
0.010816,0.017128,0.004006,0.000214,0.014108,0.012708,0.005884
0.010941,0.016615,0.004046,0.000214,0.014470,0.012525,0.005757
0.010921,0.016361,0.004133,0.000315,0.014512,0.012348,0.005692
0.010982,0.015392,0.003756,0.000315,0.014429,0.012496,0.005633
0.011076,0.013016,0.003059,0.000245,0.014849,0.012724,0.005736
0.011024,0.009950,0.002339,0.000245,0.015388,0.012941,0.005879
0.010830,0.007962,0.002005,0.000387,0.015667,0.013026,0.006073
0.010738,0.007334,0.001880,0.000387,0.015699,0.013182,0.006259
0.010697,0.007950,0.001885,0.000387,0.015552,0.013217,0.006390
0.010728,0.008597,0.001912,0.000387,0.015463,0.013191,0.006389
0.010738,0.009299,0.001987,0.000387,0.015454,0.013096,0.006452
0.010678,0.009504,0.002084,0.000387,0.015323,0.013201,0.006403
0.010716,0.009530,0.002097,0.000271,0.014760,0.013467,0.006425
0.010634,0.009431,0.002145,0.000271,0.014220,0.013750,0.006291
0.010533,0.009202,0.002148,0.000271,0.013653,0.013837,0.006339
0.010437,0.008950,0.002044,0.000271,0.013038,0.014149,0.006293
0.010419,0.008827,0.001939,0.000271,0.012209,0.014432,0.006358
0.010487,0.008343,0.001806,0.000170,0.011691,0.014770,0.006335
0.010365,0.007901,0.001901,0.000170,0.011402,0.014720,0.006391
0.010374,0.007502,0.001951,0.000170,0.011164,0.014665,0.006388
0.010515,0.007507,0.001869,0.000170,0.010953,0.014657,0.006340
0.010720,0.007590,0.001675,0.000178,0.010908,0.014713,0.006180
0.010759,0.007534,0.001563,0.000178,0.011160,0.014716,0.006062
0.010609,0.006923,0.001612,0.000178,0.011443,0.014725,0.006066
0.010441,0.006516,0.002009,0.000178,0.011549,0.014774,0.006080
0.010541,0.005952,0.002263,0.000178,0.011621,0.014978,0.005996
0.010731,0.005723,0.002449,0.000178,0.011705,0.015085,0.005979
0.010961,0.005389,0.002321,0.000178,0.011785,0.015078,0.006011
0.010922,0.005298,0.002400,0.000178,0.011495,0.014989,0.006309
0.010860,0.005521,0.002614,0.000178,0.011200,0.014988,0.006476
0.010734,0.005654,0.002930,0.000178,0.011012,0.014940,0.006779
0.010573,0.005612,0.003198,0.000178,0.010933,0.014829,0.006951
0.010518,0.005622,0.003295,0.000178,0.010767,0.014750,0.007151
0.010557,0.005851,0.003323,0.000178,0.010586,0.014823,0.007140
0.010614,0.006275,0.003345,0.000178,0.010451,0.014912,0.007000
0.010770,0.006847,0.003280,0.000178,0.010238,0.015066,0.006952
0.011105,0.007311,0.003083,0.000000,0.010643,0.015137,0.006886
0.011327,0.008037,0.002998,0.000035,0.010960,0.015223,0.006803
0.011498,0.008489,0.003011,0.000035,0.011174,0.015252,0.006662
0.011617,0.008284,0.002788,0.000035,0.010995,0.015335,0.006825
0.010776,0.007799,0.003237,0.000766,0.010821,0.015452,0.006819
0.010129,0.007259,0.003484,0.001288,0.010746,0.015535,0.006865
0.009285,0.007110,0.004156,0.002141,0.010659,0.015924,0.006637
0.008683,0.006859,0.004752,0.002850,0.011140,0.016091,0.006254
0.008318,0.006436,0.005160,0.003415,0.011723,0.016324,0.005842
0.008448,0.006220,0.005156,0.003415,0.012409,0.016179,0.005524
0.008492,0.006656,0.005120,0.003415,0.013164,0.016078,0.005287
0.007761,0.007198,0.005704,0.004129,0.013996,0.016159,0.004946
0.006991,0.007512,0.006333,0.004834,0.014771,0.016209,0.004793
0.006204,0.007074,0.007025,0.005530,0.015104,0.016354,0.004822
0.005852,0.006433,0.007315,0.005530,0.015468,0.016203,0.005005
0.006118,0.005587,0.007315,0.005794,0.015305,0.016166,0.005275
0.006355,0.004630,0.007315,0.006067,0.014940,0.016082,0.005472
0.006345,0.003977,0.007534,0.006735,0.014536,0.016023,0.005574
0.006254,0.003711,0.008203,0.006735,0.014521,0.015965,0.005426
0.006915,0.003986,0.008337,0.006004,0.014453,0.015655,0.005468
0.007372,0.004401,0.008741,0.005482,0.014390,0.015304,0.005364
0.007944,0.004915,0.008304,0.004629,0.014389,0.014709,0.005591
0.008586,0.005668,0.007679,0.003920,0.013898,0.014588,0.005841
0.009190,0.006760,0.007002,0.003355,0.013377,0.014602,0.006235
0.009439,0.007669,0.006738,0.003355,0.012671,0.014984,0.006439
0.009661,0.007677,0.006644,0.003355,0.012012,0.015281,0.006667
0.010415,0.007502,0.006050,0.002641,0.011134,0.015102,0.006939
0.011159,0.007117,0.005654,0.001936,0.010447,0.014797,0.007143
0.013422,0.007200,0.005211,0.003053,0.010204,0.014235,0.007174
0.017569,0.007033,0.005612,0.006813,0.010345,0.013641,0.006877
0.024153,0.007370,0.006074,0.014265,0.010254,0.012948,0.006437
0.034162,0.008901,0.007865,0.018157,0.010456,0.012255,0.006640
0.048589,0.011210,0.009443,0.021959,0.010735,0.011622,0.007067
0.061336,0.014826,0.015548,0.021959,0.010871,0.010715,0.007169
0.075283,0.017032,0.017747,0.023978,0.011059,0.010194,0.007344
0.089168,0.019463,0.020550,0.025009,0.011212,0.009709,0.007417
0.099263,0.021981,0.027246,0.025009,0.011026,0.008994,0.006931
0.108817,0.023973,0.034125,0.025009,0.010773,0.008180,0.006458
0.118771,0.025675,0.038909,0.025009,0.010637,0.007345,0.006345
0.128255,0.027302,0.042900,0.025141,0.010642,0.006522,0.006145
0.137762,0.028548,0.046739,0.025407,0.010897,0.005703,0.005955
0.150130,0.031916,0.051642,0.025502,0.011336,0.005022,0.005720
0.160505,0.036892,0.058836,0.025502,0.011539,0.004359,0.005842
0.172019,0.041527,0.063758,0.023803,0.011997,0.003961,0.007555
0.180089,0.046235,0.067654,0.021147,0.012027,0.003807,0.009986
0.183812,0.050928,0.071005,0.015219,0.012468,0.003738,0.012891
0.182558,0.054192,0.072842,0.012732,0.012635,0.003648,0.016258
0.176595,0.055932,0.073844,0.011512,0.012778,0.003610,0.020339
0.172160,0.056188,0.069623,0.015546,0.013130,0.003744,0.025297
0.165818,0.057500,0.068421,0.018017,0.013221,0.003726,0.030635
0.154419,0.056774,0.066598,0.023085,0.013220,0.003620,0.037407
0.145930,0.054959,0.060153,0.030835,0.013399,0.003673,0.044750
0.136639,0.053142,0.054174,0.036700,0.013783,0.003779,0.051108
0.126415,0.051309,0.050050,0.042716,0.014090,0.003697,0.056945
0.116940,0.049618,0.046364,0.048420,0.014101,0.003603,0.063211
0.106991,0.048501,0.043174,0.054037,0.014080,0.003493,0.068729
0.094185,0.045282,0.039082,0.058016,0.014160,0.003557,0.074136
0.083424,0.040711,0.032545,0.061618,0.014460,0.003806,0.079335
0.069962,0.036888,0.028318,0.066441,0.014466,0.003863,0.082828
0.058747,0.033053,0.023831,0.072317,0.014292,0.003956,0.084663
0.048688,0.028753,0.020055,0.076680,0.013899,0.004165,0.085731
0.039643,0.024838,0.016822,0.081379,0.013562,0.004327,0.086108
0.031413,0.021560,0.014122,0.084160,0.013323,0.004562,0.085823
0.023440,0.018254,0.011551,0.086000,0.013090,0.004881,0.084911
0.016439,0.015026,0.009583,0.086817,0.012795,0.005193,0.084209
0.014565,0.013605,0.007612,0.086000,0.012489,0.005620,0.082070
0.013550,0.013298,0.007048,0.084285,0.012176,0.006044,0.079081
0.013749,0.013062,0.005950,0.083324,0.011800,0.006454,0.077104
0.014193,0.013060,0.005195,0.082045,0.011300,0.006851,0.075399
0.014222,0.013524,0.004767,0.080222,0.011072,0.007183,0.073260
0.014410,0.014291,0.004181,0.077630,0.010847,0.007554,0.071527
0.014219,0.015149,0.003852,0.076864,0.010686,0.007753,0.070290
0.014082,0.015873,0.003352,0.077783,0.010444,0.007886,0.068805
0.013918,0.016371,0.002834,0.078451,0.010162,0.008048,0.067820
0.012587,0.016985,0.003197,0.077549,0.010041,0.008132,0.068256
0.011289,0.017630,0.003682,0.077829,0.009902,0.008054,0.069432
0.010883,0.018194,0.003524,0.077748,0.009870,0.008022,0.070098
0.009877,0.018612,0.003861,0.076281,0.009978,0.007955,0.070153
0.008830,0.018717,0.004323,0.075278,0.010113,0.007844,0.070111
0.008542,0.018566,0.004323,0.076659,0.010306,0.007633,0.069125
0.008266,0.018254,0.004323,0.078855,0.010538,0.007370,0.067778
0.008061,0.017826,0.004323,0.079415,0.010881,0.007182,0.067244
0.007924,0.017616,0.004323,0.080498,0.011308,0.006983,0.065412
0.007858,0.017217,0.004323,0.082051,0.011840,0.006779,0.062602
0.007909,0.016308,0.004323,0.084220,0.012193,0.006582,0.059780
0.008292,0.015099,0.004122,0.087130,0.012343,0.006383,0.057353
0.009060,0.013904,0.003657,0.090180,0.012415,0.006265,0.054734
0.009611,0.012739,0.003344,0.091863,0.012662,0.006142,0.052269
0.009582,0.011668,0.003411,0.090721,0.013040,0.006117,0.049474
0.009482,0.010687,0.003536,0.088617,0.013367,0.006140,0.045913
0.009365,0.009833,0.003744,0.086130,0.013999,0.006159,0.041510
0.009059,0.008893,0.004060,0.083591,0.014666,0.006177,0.037201
0.009345,0.008147,0.003889,0.082636,0.015218,0.006161,0.033201
0.009614,0.007823,0.003642,0.080378,0.016114,0.006195,0.029327
0.009020,0.007820,0.003969,0.077165,0.017349,0.006194,0.025655
0.008846,0.008267,0.003969,0.074712,0.018449,0.006174,0.022577
0.008704,0.008869,0.003969,0.073223,0.019472,0.006143,0.019670
0.008534,0.009564,0.003969,0.072178,0.020837,0.006007,0.018022
0.008359,0.010260,0.003969,0.072477,0.022254,0.005751,0.017155
0.008114,0.011036,0.003969,0.073450,0.023615,0.005546,0.016453
0.007906,0.011859,0.003969,0.074432,0.025138,0.005308,0.015623
0.007875,0.012605,0.003852,0.074804,0.026510,0.005127,0.014796
0.008000,0.013405,0.003650,0.074979,0.028015,0.005001,0.013837
0.008766,0.014121,0.003032,0.075649,0.029748,0.004880,0.012832
0.009480,0.014409,0.002441,0.074805,0.031789,0.004888,0.012188
0.010325,0.014488,0.001712,0.073416,0.033915,0.004914,0.011757
0.011024,0.014387,0.001158,0.072040,0.036293,0.004904,0.011252
0.011661,0.014170,0.000724,0.069116,0.038528,0.005100,0.010858
0.012305,0.013887,0.000326,0.066518,0.040308,0.005291,0.010505
0.012835,0.013622,0.000000,0.063043,0.042101,0.005532,0.010147
0.012911,0.013059,0.000000,0.058019,0.044449,0.005824,0.009666
0.013016,0.012328,0.000000,0.052912,0.046783,0.005992,0.008864
0.013189,0.011419,0.000000,0.048013,0.048459,0.006211,0.008083
0.013386,0.010511,0.000000,0.042706,0.050559,0.006361,0.007177
0.013580,0.009605,0.000000,0.036931,0.052540,0.006511,0.006312
0.013614,0.008815,0.000042,0.031183,0.053734,0.006775,0.005547
0.012752,0.008235,0.000714,0.026557,0.054934,0.006891,0.004783
0.012174,0.007634,0.001132,0.022149,0.056062,0.007026,0.004277
0.011357,0.007052,0.001721,0.019224,0.056370,0.007125,0.003877
0.010651,0.006850,0.002224,0.018245,0.056292,0.007078,0.003532
0.010229,0.006775,0.002467,0.017579,0.055720,0.007178,0.003620
0.010042,0.006949,0.002467,0.016708,0.054936,0.007384,0.003942
0.009798,0.007186,0.002467,0.016300,0.053591,0.007534,0.004432
0.009594,0.007470,0.002467,0.016465,0.052156,0.007698,0.004905
0.009435,0.007654,0.002467,0.016629,0.050416,0.007880,0.005489
0.009304,0.007836,0.002467,0.016781,0.048112,0.008048,0.006057
0.009063,0.008001,0.002550,0.016781,0.045715,0.008256,0.006743
0.008620,0.008170,0.002781,0.016738,0.043963,0.008435,0.007522
0.008165,0.008304,0.003073,0.015456,0.041495,0.008839,0.008531
0.007549,0.008397,0.003525,0.014076,0.038995,0.009248,0.009668
0.007008,0.008341,0.003951,0.012640,0.036890,0.009584,0.010766
0.007359,0.008149,0.003755,0.010544,0.034768,0.010077,0.011757
0.007353,0.007945,0.003795,0.008572,0.032465,0.010570,0.012584
0.007645,0.007678,0.003613,0.006365,0.031030,0.011025,0.013349
0.007898,0.007398,0.003454,0.004215,0.029987,0.011484,0.014011
0.008068,0.007271,0.003364,0.002325,0.028565,0.011893,0.014267
0.008103,0.007209,0.003364,0.000828,0.026948,0.012188,0.014178
0.008193,0.007781,0.003504,0.000550,0.025829,0.012214,0.013892
0.008020,0.009496,0.004002,0.000484,0.024284,0.012212,0.013736
0.007860,0.011568,0.004543,0.000383,0.022806,0.012166,0.013565
0.007360,0.013697,0.005354,0.000550,0.021647,0.012088,0.013345
0.006791,0.014923,0.005971,0.000938,0.020630,0.012102,0.013077
0.006364,0.015502,0.006405,0.001364,0.019264,0.012146,0.012533
0.006251,0.015651,0.006471,0.001530,0.018113,0.012272,0.011915
0.006505,0.015783,0.006208,0.001530,0.017213,0.012411,0.011164
0.006838,0.015887,0.005914,0.001530,0.016704,0.012546,0.010391
0.007264,0.016053,0.005522,0.001522,0.016170,0.012700,0.009606
0.007718,0.016720,0.005203,0.001522,0.015611,0.012768,0.008811
0.008141,0.017510,0.004906,0.001522,0.014613,0.012839,0.008069
0.008486,0.018441,0.004776,0.001522,0.013296,0.012884,0.007445
0.008024,0.018766,0.005265,0.002061,0.012360,0.012804,0.007014
0.007382,0.018715,0.005907,0.002587,0.011522,0.012746,0.006892
0.006591,0.017952,0.006470,0.003132,0.010911,0.012762,0.006844
0.006618,0.015749,0.006173,0.003043,0.010867,0.012859,0.006803
0.006631,0.013337,0.005849,0.002981,0.010977,0.012928,0.006646
0.006973,0.010840,0.005208,0.002661,0.010907,0.013035,0.006579
0.007543,0.009574,0.004643,0.002273,0.010835,0.013088,0.006410
0.007840,0.009108,0.004298,0.002089,0.010691,0.013105,0.006360
0.008058,0.009207,0.004124,0.001994,0.010492,0.013056,0.006405
0.008221,0.009322,0.003938,0.001994,0.010404,0.012961,0.006472
0.008136,0.009288,0.003877,0.002132,0.010190,0.012880,0.006496
0.007829,0.009029,0.004027,0.002360,0.010110,0.012748,0.006488
0.007310,0.008125,0.004284,0.002772,0.010135,0.012653,0.006425
0.006523,0.007209,0.004829,0.003336,0.010082,0.012610,0.006238
0.005899,0.006360,0.005221,0.003867,0.010472,0.012526,0.006001
0.005768,0.006162,0.005301,0.004018,0.010939,0.012498,0.005815
0.005955,0.006112,0.005173,0.003937,0.011514,0.012470,0.005605
0.006138,0.006198,0.005049,0.003920,0.012125,0.012435,0.005407
0.006026,0.006362,0.005187,0.004176,0.012559,0.012436,0.005314
0.006207,0.006336,0.005047,0.004176,0.012974,0.012564,0.005380
0.006360,0.006344,0.004964,0.004176,0.013495,0.012713,0.005460
0.006510,0.006127,0.004871,0.004176,0.013884,0.012930,0.005589
0.006962,0.006248,0.004568,0.003935,0.014142,0.013195,0.005727
0.007189,0.006600,0.004387,0.003864,0.014410,0.013302,0.005729
0.007257,0.007309,0.004383,0.003899,0.014387,0.013388,0.005628
0.007441,0.008724,0.004270,0.003855,0.014287,0.013496,0.005543
0.007792,0.009839,0.004037,0.003627,0.014091,0.013590,0.005548
0.008361,0.010859,0.003700,0.003214,0.013728,0.013664,0.005714
0.009061,0.011249,0.003203,0.002651,0.013499,0.013780,0.006017
0.009585,0.011155,0.002805,0.002119,0.012917,0.013878,0.006353
0.010143,0.010826,0.002301,0.001430,0.012274,0.013976,0.006776
0.010454,0.010636,0.001931,0.000940,0.011552,0.014068,0.007105
0.010509,0.010505,0.001751,0.000745,0.010685,0.014163,0.007360
0.010712,0.010588,0.001566,0.000469,0.010119,0.014195,0.007464
0.010537,0.010762,0.001750,0.000571,0.009590,0.014229,0.007416
0.010453,0.010845,0.001871,0.000571,0.008998,0.014269,0.007348
0.010350,0.010896,0.002012,0.000571,0.008807,0.014197,0.007234
0.010134,0.010345,0.002166,0.000571,0.008798,0.014091,0.007165
0.009898,0.009419,0.002350,0.000571,0.008722,0.014027,0.007230
0.009616,0.008337,0.002654,0.000574,0.008825,0.013947,0.007323
0.009476,0.006958,0.002953,0.000481,0.008753,0.014020,0.007440
0.009368,0.006062,0.003172,0.000481,0.008781,0.014138,0.007587
0.009344,0.005534,0.003263,0.000481,0.008951,0.014325,0.007587
0.009441,0.005490,0.003177,0.000481,0.009190,0.014506,0.007532
0.009229,0.005724,0.003339,0.000755,0.009329,0.014609,0.007411
0.009020,0.006127,0.003557,0.001035,0.009519,0.014729,0.007227
0.008684,0.006498,0.003912,0.001337,0.009519,0.014800,0.007080
0.008816,0.006520,0.003938,0.001215,0.009614,0.014899,0.006983
0.008809,0.006603,0.004054,0.001226,0.009733,0.015051,0.006882
0.008928,0.006704,0.004019,0.001124,0.009685,0.015081,0.006890
0.008977,0.006899,0.004195,0.001124,0.009615,0.015072,0.007015
0.008964,0.007051,0.004443,0.001218,0.009243,0.015217,0.007180
0.009170,0.007242,0.004512,0.001218,0.008910,0.015369,0.007344
0.009412,0.007975,0.004434,0.001218,0.008653,0.015589,0.007402
0.009657,0.008580,0.004307,0.001195,0.008431,0.015712,0.007408
0.009620,0.009276,0.004403,0.001284,0.008362,0.015517,0.007470
0.008906,0.009787,0.005080,0.001824,0.008141,0.015256,0.007421
0.008111,0.009834,0.005704,0.002334,0.007967,0.015069,0.007493
0.007315,0.009981,0.006289,0.002903,0.007715,0.014937,0.007498
0.006880,0.010035,0.006507,0.003182,0.007527,0.015069,0.007453
0.006531,0.009997,0.006648,0.003501,0.007487,0.015275,0.007280
0.006338,0.009970,0.006706,0.003743,0.007708,0.015472,0.007116
0.006024,0.010021,0.006873,0.004000,0.008081,0.015519,0.006969
0.005996,0.009889,0.006797,0.003993,0.008800,0.015276,0.006946
0.005915,0.009628,0.006811,0.003993,0.009385,0.015142,0.006936
0.005985,0.009284,0.006511,0.003993,0.010319,0.015061,0.006759
0.006115,0.008864,0.006080,0.003898,0.011014,0.015088,0.006619
0.006108,0.008576,0.005839,0.003915,0.011773,0.015171,0.006367
0.006026,0.007792,0.005731,0.003935,0.012668,0.015276,0.006152
0.006034,0.006990,0.005560,0.003919,0.013973,0.015348,0.005946
0.005708,0.006055,0.005638,0.004286,0.015290,0.015428,0.005633
0.005708,0.005227,0.005407,0.004403,0.016263,0.015476,0.005461
0.006301,0.004683,0.004815,0.004028,0.016820,0.015408,0.005345
0.006669,0.004145,0.004484,0.004203,0.017408,0.015186,0.005272
0.006919,0.003792,0.004336,0.004804,0.018438,0.014697,0.005168
0.006919,0.003554,0.004373,0.006466,0.019262,0.013993,0.005153
0.006859,0.003324,0.004427,0.008289,0.020103,0.013353,0.005155
0.007578,0.003137,0.003839,0.009264,0.020720,0.013046,0.005277
0.007765,0.003029,0.003645,0.011720,0.020706,0.012892,0.005222
0.008354,0.002992,0.003406,0.015399,0.021019,0.012539,0.005070
0.010427,0.003025,0.003405,0.019786,0.021239,0.012035,0.004935
0.012606,0.003775,0.004163,0.027789,0.021583,0.011035,0.004617
0.015225,0.005177,0.005396,0.035541,0.021992,0.009901,0.005158
0.018051,0.006653,0.007274,0.040869,0.021922,0.008940,0.006827
0.022599,0.008749,0.008708,0.048287,0.021389,0.008211,0.009241
0.027275,0.010350,0.010987,0.053581,0.020894,0.007720,0.012844
0.034225,0.010853,0.011892,0.061855,0.020580,0.007278,0.017009
0.040971,0.011240,0.012956,0.071349,0.020438,0.006939,0.020588
0.048776,0.012515,0.014934,0.079602,0.020450,0.006532,0.023977
0.057140,0.013520,0.016569,0.087307,0.020043,0.006315,0.027498
0.067162,0.013408,0.018602,0.093368,0.019440,0.006127,0.031957
0.076306,0.013157,0.021926,0.096599,0.018546,0.005943,0.036319
0.086510,0.013741,0.024966,0.099537,0.017657,0.005608,0.039466
0.095973,0.014362,0.028617,0.097916,0.017044,0.005446,0.042600
0.103814,0.015065,0.032533,0.095173,0.016495,0.005277,0.045992
0.108712,0.015268,0.035318,0.093368,0.015573,0.005225,0.050375
0.112518,0.015172,0.037051,0.088941,0.014872,0.005409,0.055209
0.114287,0.014881,0.037042,0.084892,0.014001,0.005767,0.059039
0.114513,0.014428,0.035812,0.084710,0.013400,0.005909,0.061690
0.111439,0.013246,0.034423,0.084770,0.012927,0.005885,0.063957
0.107863,0.012639,0.032001,0.086028,0.012528,0.005726,0.064862
0.102256,0.013089,0.030431,0.086693,0.012096,0.005561,0.064494
0.096083,0.013606,0.029185,0.086398,0.011522,0.005390,0.063492
0.089330,0.012880,0.026881,0.085174,0.011033,0.005369,0.062342
0.082344,0.012166,0.024805,0.085218,0.010724,0.005232,0.061547
0.074008,0.012489,0.022230,0.083881,0.010739,0.005310,0.060049
0.066038,0.012861,0.018644,0.084478,0.010871,0.005357,0.059360
0.056547,0.012503,0.015663,0.086665,0.011010,0.005383,0.060034
0.046695,0.012221,0.012879,0.091981,0.011275,0.005161,0.061207
0.038460,0.011842,0.009484,0.097168,0.011258,0.005102,0.062361
0.031634,0.011916,0.006766,0.099621,0.011164,0.005141,0.062786
0.026041,0.011585,0.004273,0.101740,0.010852,0.005256,0.061871
0.022109,0.010672,0.003049,0.105008,0.010549,0.005224,0.060895
0.019703,0.009888,0.002402,0.109565,0.010371,0.005095,0.058832
0.018843,0.009152,0.002351,0.110451,0.010274,0.005074,0.056056
0.018946,0.008211,0.002021,0.112324,0.009789,0.005152,0.053476
0.019030,0.007225,0.002021,0.110978,0.009823,0.005243,0.052137
0.019261,0.006343,0.002021,0.109298,0.010224,0.005296,0.051740
0.018506,0.005856,0.002297,0.107739,0.010602,0.005340,0.051758
0.017890,0.005571,0.002297,0.106697,0.010807,0.005402,0.051396
0.017413,0.005180,0.002227,0.105608,0.010900,0.005462,0.051022
0.017369,0.004917,0.002118,0.105196,0.010924,0.005516,0.050184
0.017048,0.004760,0.002250,0.103992,0.010901,0.005615,0.048682
0.018071,0.004531,0.001385,0.104942,0.010464,0.005732,0.046498
0.018606,0.004371,0.000953,0.106999,0.010188,0.005732,0.043807
0.019118,0.004197,0.000852,0.110600,0.009922,0.005687,0.040977
0.019312,0.004042,0.000852,0.113201,0.009713,0.005622,0.039124
0.019147,0.004026,0.000852,0.114667,0.009526,0.005628,0.037550
0.018736,0.003899,0.000852,0.114530,0.009259,0.005665,0.037039
0.018280,0.003799,0.000852,0.116044,0.008979,0.005633,0.036740
0.017977,0.003722,0.000852,0.118138,0.009162,0.005490,0.036222
0.017782,0.004318,0.000852,0.120122,0.009296,0.005379,0.035355
0.017676,0.005101,0.000852,0.120258,0.009446,0.005359,0.034596
0.017919,0.005859,0.000871,0.119941,0.009356,0.005372,0.034876
0.017736,0.006626,0.001223,0.119006,0.009108,0.005436,0.035404
0.016657,0.007591,0.002172,0.119370,0.009029,0.005406,0.035150
0.015527,0.008613,0.002938,0.119267,0.009313,0.005351,0.034344
0.014344,0.009389,0.003639,0.118134,0.009729,0.005320,0.033811
0.012882,0.009652,0.004435,0.116709,0.010109,0.005295,0.033416
0.011766,0.009751,0.004891,0.116217,0.010498,0.005197,0.033397
0.010430,0.009953,0.005484,0.116063,0.011447,0.004937,0.031900
0.009011,0.010248,0.006142,0.116822,0.012648,0.004610,0.030291
0.007950,0.010479,0.006742,0.117271,0.013742,0.004302,0.028842
0.007152,0.010672,0.007270,0.116052,0.014663,0.004146,0.027878
0.006193,0.010794,0.007947,0.113014,0.015592,0.004079,0.027172
0.005047,0.010888,0.008629,0.108893,0.016519,0.004083,0.026592
0.004096,0.010343,0.009084,0.106105,0.016973,0.004122,0.025724
0.003130,0.009619,0.009494,0.105049,0.017211,0.004079,0.025016
0.002405,0.008868,0.009744,0.105644,0.017752,0.003913,0.023103
0.001575,0.008131,0.010077,0.105477,0.018563,0.003711,0.020779
0.001450,0.007336,0.009822,0.106639,0.019336,0.003504,0.018591
0.001539,0.006582,0.009438,0.109734,0.020127,0.003214,0.016452
0.001628,0.006182,0.009186,0.113938,0.021013,0.002798,0.014321
0.001628,0.006255,0.009109,0.114893,0.022662,0.002511,0.012284
0.001364,0.006463,0.009307,0.113081,0.024439,0.002426,0.010130
0.001332,0.006587,0.009379,0.109847,0.025890,0.002497,0.009395
0.001613,0.006572,0.009327,0.105395,0.027338,0.002659,0.008855
0.002067,0.006576,0.009173,0.100769,0.028847,0.002861,0.008160
0.002031,0.006629,0.009381,0.095537,0.030835,0.003006,0.007031
0.002373,0.006615,0.009269,0.090052,0.033340,0.003119,0.005823
0.002934,0.006673,0.009004,0.085910,0.035698,0.003134,0.004741
0.003251,0.006846,0.008928,0.081394,0.038253,0.003119,0.003713
0.003728,0.007078,0.008707,0.077492,0.040530,0.003188,0.002565
0.004079,0.007387,0.008478,0.074083,0.042536,0.003258,0.001550
0.004318,0.007680,0.008296,0.070549,0.044331,0.003306,0.000690
0.004647,0.007925,0.008060,0.066133,0.045746,0.003483,0.000705
0.004558,0.008036,0.008142,0.059633,0.046397,0.003843,0.001156
0.004469,0.007964,0.008167,0.052390,0.046648,0.004299,0.001775
0.004469,0.007893,0.008098,0.046637,0.046349,0.004661,0.002461
0.004469,0.007764,0.008011,0.041545,0.045795,0.004959,0.003350
0.004378,0.007847,0.007972,0.037001,0.045319,0.005210,0.004286
0.004721,0.007987,0.007486,0.032551,0.045023,0.005553,0.005283
0.004520,0.008212,0.007420,0.028773,0.043991,0.005863,0.005971
0.004952,0.008453,0.006867,0.025989,0.043108,0.006147,0.006555
0.005278,0.008787,0.006467,0.024634,0.041621,0.006457,0.007169
0.005030,0.009119,0.006500,0.021923,0.039919,0.006860,0.008178
0.004771,0.009416,0.006546,0.018993,0.038366,0.007199,0.009085
0.004277,0.009520,0.006846,0.016161,0.036986,0.007398,0.010147
0.003864,0.009464,0.007204,0.013079,0.035126,0.007630,0.011366
0.003633,0.009387,0.007416,0.009853,0.033333,0.007956,0.012754
0.003300,0.009332,0.007665,0.006846,0.031450,0.008183,0.013913
0.003300,0.009311,0.007655,0.004572,0.030049,0.008423,0.014799
0.003353,0.009609,0.007591,0.003429,0.028955,0.008649,0.015315
0.003433,0.010245,0.007599,0.002630,0.027675,0.009035,0.015884
0.003433,0.010991,0.007638,0.002098,0.026498,0.009496,0.016165
0.003606,0.011553,0.007558,0.001759,0.025223,0.010012,0.016013
0.002973,0.012040,0.008235,0.002279,0.023387,0.010401,0.015560
0.003144,0.011771,0.008284,0.001977,0.022311,0.010721,0.015259
0.002908,0.011429,0.008586,0.001878,0.020765,0.011070,0.015043
0.002405,0.011251,0.008996,0.002363,0.019104,0.011401,0.014767
0.002217,0.011972,0.009191,0.002953,0.017565,0.011709,0.014066
0.002058,0.012793,0.009384,0.003534,0.015966,0.011981,0.013508
0.002338,0.013866,0.009238,0.003615,0.014582,0.012240,0.012953
0.002406,0.015553,0.009195,0.004118,0.014089,0.012423,0.012005
0.002399,0.017289,0.009226,0.004723,0.013540,0.012609,0.010877
0.002399,0.018620,0.009258,0.005329,0.013428,0.012760,0.009573
0.003008,0.018609,0.008772,0.005329,0.012929,0.012917,0.008655
0.003229,0.018222,0.008583,0.005650,0.012547,0.012972,0.007930
0.003179,0.017642,0.008502,0.006181,0.012458,0.012846,0.006978
0.003179,0.016901,0.008413,0.006557,0.012335,0.012654,0.006193
0.003182,0.016973,0.008496,0.006704,0.011983,0.012439,0.005771
0.003347,0.017582,0.008478,0.006563,0.011795,0.012193,0.005599
0.003204,0.018785,0.008721,0.006691,0.011568,0.012016,0.005584
0.003301,0.019170,0.008709,0.006606,0.011501,0.011887,0.005668
0.003440,0.018910,0.008628,0.006401,0.011495,0.011752,0.005767
0.003703,0.017789,0.008332,0.006053,0.011585,0.011698,0.005930
0.004215,0.016829,0.007780,0.005473,0.011870,0.011719,0.006045
0.004236,0.016521,0.007570,0.005483,0.012114,0.011759,0.005952
0.004291,0.015742,0.007410,0.005359,0.012131,0.011828,0.006026
0.004669,0.014606,0.007111,0.005055,0.012322,0.011901,0.006112
0.005362,0.013131,0.006601,0.004450,0.012955,0.011940,0.006253
0.005508,0.012898,0.006625,0.004450,0.013741,0.011915,0.006057
0.006002,0.012925,0.006418,0.004081,0.014028,0.011935,0.005995
0.006636,0.013199,0.006236,0.003459,0.013739,0.012044,0.006156
0.007203,0.013989,0.006100,0.002831,0.013399,0.012179,0.006354
0.007545,0.014894,0.005992,0.002319,0.013539,0.012213,0.006506
0.007760,0.015131,0.005830,0.001960,0.013845,0.012251,0.006500
0.007838,0.015195,0.005702,0.001823,0.014200,0.012243,0.006432
0.008068,0.015163,0.005476,0.001656,0.014350,0.012238,0.006401
0.008475,0.015616,0.005189,0.001376,0.014473,0.012199,0.006376
0.008804,0.015904,0.004982,0.001134,0.014602,0.012141,0.006379
0.008479,0.015787,0.005337,0.001389,0.014659,0.012055,0.006364
0.008028,0.014925,0.005830,0.001953,0.014959,0.011974,0.006293
0.008234,0.013846,0.005731,0.002040,0.015032,0.012061,0.006324
0.008790,0.013002,0.005282,0.001764,0.014944,0.012142,0.006357
0.008881,0.012861,0.005096,0.001764,0.014108,0.012286,0.006395
0.008842,0.012852,0.004993,0.001764,0.013705,0.012303,0.006362
0.008842,0.012695,0.004873,0.001764,0.013535,0.012448,0.006224
0.008906,0.012133,0.004592,0.001764,0.013797,0.012558,0.005940
0.009063,0.011517,0.004194,0.001764,0.013991,0.012724,0.005629
0.009160,0.010276,0.003733,0.001764,0.013834,0.012912,0.005523
0.009315,0.009258,0.003323,0.001672,0.013521,0.013167,0.005568
0.009473,0.008167,0.002991,0.001485,0.013232,0.013421,0.005773
0.009456,0.007838,0.002886,0.001483,0.013178,0.013651,0.005812
0.009367,0.007706,0.002888,0.001562,0.013120,0.013858,0.005886
0.009417,0.007805,0.002936,0.001592,0.013070,0.014067,0.005815
0.009546,0.008144,0.002942,0.001531,0.012632,0.014195,0.005784
0.010117,0.008335,0.002555,0.000875,0.012027,0.014317,0.005858
0.010373,0.008470,0.002349,0.000408,0.011363,0.014351,0.005957
0.010190,0.008501,0.002483,0.000383,0.010838,0.014406,0.006039
0.010145,0.008509,0.002563,0.000383,0.010565,0.014527,0.006018
0.010089,0.008460,0.002662,0.000383,0.010257,0.014663,0.006138
0.010010,0.008401,0.002674,0.000383,0.010002,0.014719,0.006395
0.009503,0.008353,0.003395,0.000732,0.009760,0.014562,0.006651
0.009383,0.007958,0.003946,0.000849,0.009538,0.014487,0.006935
0.009356,0.007205,0.004530,0.000935,0.009506,0.014494,0.007047
0.009324,0.006581,0.004727,0.001065,0.009640,0.014505,0.007145
0.009087,0.006335,0.004913,0.001378,0.010105,0.014433,0.007068
0.009149,0.006241,0.004873,0.001383,0.010837,0.014317,0.006998
0.009160,0.005938,0.004862,0.001371,0.011683,0.014182,0.006875
0.009134,0.005224,0.004808,0.001341,0.012237,0.014114,0.006828
0.008637,0.004528,0.005037,0.001792,0.013440,0.013873,0.006597
0.007914,0.004568,0.005377,0.002550,0.014567,0.013630,0.006354
0.007209,0.005104,0.005786,0.003299,0.015635,0.013366,0.006100
0.007274,0.005670,0.005652,0.003433,0.015870,0.013544,0.006041
0.007453,0.005714,0.005540,0.003433,0.015854,0.013863,0.006023
0.007465,0.005680,0.005595,0.003719,0.015854,0.014218,0.005817
0.006952,0.005908,0.006139,0.004345,0.015794,0.014305,0.005546
0.006731,0.006282,0.006009,0.004813,0.015788,0.014728,0.005270
0.006128,0.006811,0.006018,0.005433,0.015660,0.014959,0.005046
0.005540,0.007235,0.006207,0.006067,0.015520,0.015072,0.004843
0.005631,0.007561,0.006417,0.005995,0.015335,0.014886,0.004748
0.005969,0.007808,0.006542,0.005683,0.014997,0.014773,0.004737
0.005932,0.008050,0.006648,0.005677,0.014199,0.014770,0.004756
0.005954,0.008253,0.006540,0.005611,0.013307,0.014820,0.004851
0.005893,0.008610,0.006773,0.005611,0.012494,0.014697,0.004920
0.005893,0.008881,0.007165,0.005561,0.011308,0.014739,0.005009
0.005891,0.008544,0.007657,0.005324,0.010198,0.014757,0.005139
0.005887,0.007789,0.007876,0.005142,0.009375,0.014822,0.005251
0.005070,0.007236,0.008550,0.005600,0.009305,0.014395,0.005248
0.004153,0.007184,0.009187,0.006221,0.009413,0.013816,0.005240
0.004159,0.007054,0.008989,0.005961,0.009322,0.013437,0.005541
0.004692,0.006614,0.008404,0.005334,0.009223,0.013426,0.005825
0.005425,0.006074,0.007717,0.004517,0.009208,0.013374,0.006167
0.006140,0.005491,0.007183,0.003781,0.009660,0.013235,0.006376
0.006885,0.005409,0.006372,0.003060,0.010268,0.013129,0.006542
0.006290,0.005595,0.006401,0.003510,0.010892,0.013057,0.006453
0.005607,0.005800,0.006505,0.004047,0.011374,0.012957,0.006310
0.004915,0.005867,0.007214,0.004684,0.012018,0.012629,0.006131
0.004273,0.005970,0.008400,0.008712,0.013341,0.011972,0.005677
0.006736,0.005815,0.009344,0.014838,0.014838,0.011249,0.005252
0.011724,0.005868,0.009296,0.023076,0.015796,0.010552,0.005168
0.020726,0.005467,0.009243,0.036773,0.015326,0.009848,0.005889
0.033310,0.005693,0.009456,0.046880,0.015206,0.009146,0.008755
0.052845,0.006538,0.010491,0.055413,0.015132,0.008429,0.012791
0.071125,0.007913,0.013347,0.059972,0.015406,0.007634,0.017276
0.086908,0.010274,0.017575,0.062621,0.015810,0.006722,0.021448
0.102538,0.013075,0.022189,0.064578,0.016479,0.005659,0.025348
0.116174,0.016105,0.025919,0.067796,0.017043,0.004534,0.029292
0.128529,0.018746,0.029534,0.069929,0.017127,0.003658,0.033940
0.141358,0.020438,0.033068,0.071910,0.016970,0.002848,0.038071
0.154060,0.022144,0.036181,0.072205,0.016820,0.002314,0.041822
0.165618,0.024212,0.039859,0.071871,0.016575,0.001835,0.046570
0.175476,0.025609,0.041909,0.074098,0.016257,0.001488,0.052500
0.184552,0.026868,0.043431,0.073208,0.015171,0.001478,0.058742
0.189657,0.028069,0.044543,0.070355,0.013960,0.001679,0.064681
0.192368,0.028834,0.046789,0.064598,0.013154,0.001946,0.070477
0.190800,0.029427,0.048779,0.052311,0.013623,0.002332,0.076995
0.185555,0.029599,0.050652,0.042726,0.013561,0.002735,0.081922
0.174181,0.029047,0.052237,0.034409,0.013364,0.003136,0.085067
0.163234,0.028349,0.051627,0.030187,0.012745,0.003568,0.089052
0.152966,0.026369,0.049884,0.029525,0.012046,0.003934,0.093833
0.141023,0.023794,0.047834,0.029722,0.011162,0.004337,0.099034
0.129793,0.021052,0.046525,0.028617,0.010217,0.004764,0.104612
0.119731,0.018557,0.044898,0.030639,0.009591,0.004957,0.109795
0.108655,0.016673,0.042871,0.033434,0.009024,0.005168,0.115594
0.098108,0.014447,0.040209,0.038033,0.008391,0.005292,0.121662
0.089094,0.011805,0.036490,0.044257,0.007804,0.005393,0.125414
0.082004,0.009794,0.033620,0.049408,0.007184,0.005396,0.128149
0.074236,0.008239,0.030824,0.056701,0.006725,0.005261,0.130303
0.067089,0.007060,0.028397,0.064542,0.006345,0.005033,0.131327
0.060474,0.006012,0.025150,0.071048,0.006120,0.004931,0.130811
0.054093,0.005660,0.022143,0.077079,0.006081,0.004818,0.127730
0.047712,0.005132,0.019327,0.082034,0.006220,0.004758,0.123157
0.040141,0.004679,0.016401,0.086461,0.006417,0.004736,0.118368
0.033392,0.003950,0.013869,0.091089,0.006770,0.004637,0.111930
0.028147,0.003690,0.011318,0.095707,0.007119,0.004580,0.104809
0.024696,0.003612,0.008705,0.099920,0.007551,0.004518,0.097446
0.022343,0.003502,0.006381,0.102576,0.008128,0.004522,0.089193
0.020175,0.003469,0.004357,0.102796,0.008595,0.004696,0.080642
0.018568,0.003454,0.002814,0.102829,0.009081,0.004797,0.072264
0.017084,0.003490,0.001923,0.102446,0.009683,0.004903,0.064247
0.014881,0.003618,0.001771,0.101446,0.010456,0.004947,0.057301
0.012409,0.004095,0.002119,0.098571,0.011302,0.005057,0.050088
0.011664,0.004247,0.002342,0.093219,0.012152,0.005353,0.043510
0.010819,0.004483,0.002830,0.086959,0.013085,0.005655,0.038383
0.009738,0.004795,0.003510,0.082134,0.014167,0.005824,0.035183
0.008684,0.005101,0.004208,0.079413,0.015252,0.005876,0.032694
0.007765,0.005510,0.004825,0.078854,0.016148,0.005804,0.030955
0.007192,0.006168,0.005165,0.078947,0.016995,0.005715,0.029910
0.006731,0.006999,0.005435,0.078630,0.017656,0.005707,0.029124
0.006077,0.007850,0.005913,0.077109,0.018218,0.005761,0.028231
0.005543,0.008755,0.006320,0.077057,0.018645,0.005761,0.027294
0.005437,0.009642,0.006462,0.080556,0.019072,0.005532,0.026644
0.005306,0.010548,0.006661,0.084334,0.019640,0.005215,0.025858
0.005207,0.011410,0.006784,0.087740,0.020117,0.004944,0.024742
0.005214,0.012236,0.006793,0.089634,0.020426,0.004731,0.023186
0.005637,0.012963,0.006510,0.090811,0.020749,0.004591,0.021845
0.006279,0.013604,0.006063,0.092155,0.021083,0.004503,0.020662
0.006644,0.014022,0.005840,0.094089,0.021456,0.004324,0.019447
0.007188,0.014223,0.005487,0.096463,0.022128,0.004047,0.018273
0.007970,0.014332,0.004945,0.099012,0.022760,0.003784,0.016540
0.008486,0.014334,0.004579,0.099624,0.023347,0.003636,0.015088
0.009068,0.014272,0.004117,0.098308,0.024409,0.003580,0.013773
0.009317,0.013944,0.003899,0.097705,0.025604,0.003500,0.012415
0.009599,0.013477,0.003781,0.096869,0.026893,0.003405,0.011173
0.009915,0.012946,0.003732,0.096334,0.028258,0.003359,0.010064
0.009940,0.012473,0.003883,0.094551,0.029538,0.003366,0.009104
0.009260,0.012046,0.004515,0.091026,0.030993,0.003418,0.008173
0.008657,0.011508,0.005033,0.086269,0.032366,0.003565,0.007209
0.007996,0.010948,0.005601,0.080845,0.033586,0.003789,0.006335
0.008181,0.010276,0.005562,0.075939,0.034886,0.004100,0.005952
0.008412,0.009662,0.005484,0.071403,0.036172,0.004411,0.005600
0.008005,0.009089,0.005924,0.066349,0.037404,0.004675,0.005209
0.008119,0.008749,0.005924,0.059901,0.038596,0.005089,0.004928
0.008190,0.008528,0.005789,0.053268,0.039575,0.005586,0.004666
0.008155,0.008408,0.005667,0.046318,0.040396,0.006067,0.004568
0.008335,0.008192,0.005415,0.040832,0.041058,0.006529,0.004501
0.008536,0.007997,0.005197,0.036946,0.041306,0.007009,0.004492
0.009104,0.007837,0.004708,0.032452,0.041584,0.007628,0.004553
0.009542,0.007590,0.004197,0.028290,0.041961,0.008255,0.004553
0.009793,0.007403,0.003746,0.023894,0.042803,0.008654,0.004536
0.010178,0.007110,0.003171,0.019364,0.043509,0.009141,0.004586
0.010991,0.006737,0.002285,0.014620,0.043582,0.009838,0.004917
0.011751,0.006394,0.001540,0.011224,0.043943,0.010347,0.005280
0.012477,0.006037,0.000881,0.008434,0.044301,0.010783,0.005602
0.012488,0.005814,0.000752,0.006345,0.044574,0.011101,0.005773
0.012316,0.005655,0.000714,0.004277,0.044674,0.011408,0.006003
0.012613,0.005446,0.000331,0.002847,0.044413,0.011680,0.006347
0.012509,0.005299,0.000331,0.002421,0.044169,0.011733,0.006513
0.012567,0.005196,0.000331,0.001990,0.043725,0.011808,0.006643
0.012682,0.005026,0.000316,0.001829,0.042818,0.011994,0.006814
0.012848,0.005072,0.000234,0.001691,0.041873,0.012061,0.006911
0.012301,0.005247,0.000682,0.002101,0.040785,0.011901,0.006952
0.012012,0.005315,0.000884,0.002206,0.039242,0.011729,0.007349
0.011804,0.005353,0.001007,0.002111,0.037639,0.011534,0.008078
0.011589,0.005321,0.001135,0.002075,0.035646,0.011474,0.008867
0.011386,0.005225,0.001314,0.002215,0.033849,0.011356,0.009583
0.011185,0.005193,0.001470,0.002215,0.032556,0.011131,0.010132
0.010709,0.005054,0.001803,0.002215,0.030785,0.011076,0.010802
0.010186,0.004978,0.002148,0.002215,0.029075,0.011037,0.011487
0.009611,0.004893,0.002553,0.002215,0.027356,0.011035,0.012166
0.009052,0.004916,0.002957,0.002215,0.025659,0.011074,0.012896
0.008560,0.005210,0.003260,0.002215,0.024506,0.011123,0.013338
0.008045,0.005615,0.003547,0.002077,0.023596,0.011224,0.013563
0.007489,0.006221,0.003937,0.001913,0.022610,0.011314,0.013804
0.006624,0.006882,0.004655,0.002063,0.021790,0.011236,0.013949
0.005761,0.007318,0.005487,0.002229,0.020809,0.011301,0.014166
0.006227,0.007739,0.005316,0.001537,0.019879,0.011625,0.014214
0.006464,0.008800,0.005413,0.001199,0.019318,0.011862,0.013894
0.006566,0.011323,0.005729,0.001026,0.018774,0.012016,0.013195
0.006676,0.014053,0.006075,0.000881,0.018049,0.012115,0.012412
0.006430,0.016490,0.006646,0.000979,0.017193,0.012196,0.011527
0.006446,0.017872,0.006784,0.000998,0.016340,0.012285,0.010770
0.006660,0.018375,0.006669,0.001020,0.015843,0.012313,0.010093
0.006664,0.018448,0.006712,0.001295,0.015393,0.012327,0.009538
0.006529,0.018819,0.006828,0.001679,0.014851,0.012309,0.008922
0.006272,0.019125,0.007102,0.002271,0.014243,0.012279,0.008186
0.006333,0.019407,0.007293,0.002570,0.013283,0.012348,0.007603
0.006350,0.019918,0.007699,0.002775,0.012107,0.012342,0.007130
0.006429,0.020663,0.008225,0.003033,0.011011,0.012389,0.006507
0.006764,0.021959,0.008673,0.002957,0.010128,0.012529,0.005945
0.007310,0.023563,0.008779,0.002661,0.009600,0.012595,0.005425
0.007328,0.024893,0.009074,0.002667,0.009170,0.012673,0.005209
0.007411,0.025000,0.009124,0.002667,0.008818,0.012730,0.005084
0.006929,0.024137,0.009572,0.003209,0.008358,0.012804,0.004877
0.006174,0.023006,0.010262,0.003868,0.008040,0.012902,0.004720
0.005831,0.022448,0.010695,0.004304,0.008060,0.012894,0.004583
0.005203,0.021939,0.011359,0.004948,0.008090,0.012838,0.004373
0.004599,0.022182,0.011921,0.005628,0.008012,0.012780,0.004148
0.004410,0.022574,0.012112,0.005912,0.007876,0.012790,0.003861
0.004496,0.023531,0.012282,0.006011,0.007928,0.012769,0.003754
0.004590,0.024127,0.012352,0.006014,0.008046,0.012801,0.003734
0.004193,0.024494,0.012672,0.006333,0.008312,0.012785,0.003801
0.003739,0.024527,0.012860,0.006700,0.008404,0.012783,0.004015
0.003288,0.023906,0.012819,0.006981,0.008606,0.012799,0.004196
0.002953,0.022798,0.012616,0.007254,0.008843,0.012726,0.004287
0.002791,0.021446,0.012358,0.007400,0.008959,0.012716,0.004441
0.002721,0.020408,0.012066,0.007395,0.009061,0.012609,0.004569
0.002563,0.020145,0.011931,0.007395,0.009024,0.012567,0.004657
0.002992,0.019546,0.011192,0.006852,0.009261,0.012619,0.004928
0.003634,0.018575,0.010177,0.006194,0.009667,0.012721,0.005163
0.004208,0.017119,0.009100,0.005520,0.009957,0.012942,0.005476
0.004913,0.016676,0.008191,0.004856,0.010044,0.013148,0.005744
0.005520,0.016642,0.007572,0.004154,0.009927,0.013299,0.006028
0.006091,0.016832,0.007041,0.003595,0.009900,0.013408,0.006308
0.006569,0.016018,0.006436,0.003113,0.010034,0.013565,0.006490
0.006998,0.015307,0.005923,0.002676,0.010277,0.013589,0.006636
0.007614,0.014585,0.005291,0.002165,0.010515,0.013598,0.006718
0.008309,0.013630,0.004621,0.001598,0.010805,0.013697,0.006709
0.008950,0.012944,0.003981,0.001058,0.010723,0.013720,0.006851
0.009678,0.012060,0.003270,0.000515,0.010601,0.013923,0.007035
0.009989,0.011205,0.002819,0.000270,0.010625,0.014084,0.007168
0.009979,0.010104,0.002777,0.000270,0.010727,0.014176,0.007264
0.009855,0.008909,0.002775,0.000270,0.010962,0.014212,0.007379
0.009664,0.007645,0.002850,0.000270,0.011011,0.014086,0.007526
0.009554,0.007008,0.002896,0.000270,0.010938,0.013914,0.007660
0.009449,0.006566,0.003044,0.000368,0.010892,0.013740,0.007824
0.009097,0.006034,0.003390,0.000599,0.011007,0.013575,0.007850
0.008596,0.005316,0.003755,0.001144,0.011448,0.013466,0.007693
0.007992,0.004630,0.004234,0.001652,0.011878,0.013313,0.007530
0.007875,0.004090,0.004259,0.001652,0.012026,0.013219,0.007532
0.008002,0.003706,0.004154,0.001494,0.012087,0.013203,0.007533
0.008050,0.003444,0.004122,0.001386,0.012026,0.013294,0.007553
0.007678,0.004056,0.004347,0.001766,0.011910,0.013360,0.007486
0.007172,0.004611,0.004718,0.002287,0.012004,0.013395,0.007361
0.006445,0.005269,0.005180,0.002935,0.012137,0.013215,0.007213
0.005749,0.005600,0.005638,0.003544,0.012195,0.013061,0.007023
0.005072,0.005788,0.006125,0.004081,0.012091,0.013052,0.006806
0.004490,0.006078,0.006680,0.004543,0.011868,0.013072,0.006628
0.004342,0.006362,0.006947,0.004792,0.011496,0.013261,0.006392
0.004501,0.006526,0.007004,0.004793,0.011129,0.013434,0.006217
0.004726,0.006738,0.006938,0.004695,0.010801,0.013490,0.006041
0.005145,0.006929,0.006750,0.004464,0.010459,0.013561,0.005976
0.005487,0.007290,0.006613,0.004187,0.009910,0.013631,0.006055
0.005373,0.007866,0.006715,0.004393,0.009327,0.013696,0.006054
0.004761,0.008420,0.007440,0.005055,0.008703,0.013746,0.005883
0.004105,0.008760,0.008161,0.005689,0.008034,0.013828,0.005740
0.003693,0.008926,0.008697,0.006040,0.007505,0.013792,0.005607
0.003370,0.008397,0.008982,0.006133,0.007032,0.013758,0.005653
0.003464,0.007751,0.008887,0.005913,0.006776,0.013704,0.005796
0.003660,0.007057,0.008701,0.005517,0.006576,0.013723,0.005966
0.003922,0.006723,0.008606,0.005188,0.006570,0.013654,0.006075
0.003976,0.006679,0.008623,0.005113,0.006625,0.013457,0.006084
0.004087,0.006426,0.008741,0.005087,0.006903,0.013331,0.005990
0.003897,0.006095,0.009255,0.005315,0.007363,0.013133,0.005841
0.003206,0.005759,0.010069,0.005937,0.007778,0.012955,0.005684
0.002692,0.005452,0.010696,0.006481,0.008260,0.012861,0.005463
0.002002,0.005249,0.011174,0.007137,0.009479,0.012710,0.005254
0.001554,0.004978,0.011487,0.007598,0.011125,0.012540,0.004988
0.002086,0.004612,0.011127,0.007187,0.013551,0.012453,0.004821
0.003093,0.004750,0.010274,0.006525,0.015533,0.012510,0.004655
0.004073,0.005178,0.009391,0.005891,0.016770,0.012684,0.004546
0.004768,0.005575,0.008701,0.005540,0.017569,0.012874,0.004524
0.005607,0.005636,0.008397,0.005062,0.017933,0.013063,0.004475
0.005719,0.005579,0.008874,0.005209,0.018921,0.013122,0.004304
0.005523,0.005591,0.009697,0.005707,0.019777,0.013146,0.004059
0.005261,0.005784,0.010209,0.006207,0.020589,0.013181,0.003821
0.005748,0.005891,0.010366,0.006742,0.020679,0.013185,0.003787
0.009083,0.005898,0.009903,0.009211,0.020760,0.012912,0.003729
0.013506,0.005933,0.009912,0.012984,0.021296,0.012454,0.003572
0.019831,0.005920,0.009344,0.019045,0.021602,0.011960,0.003389
0.030668,0.005951,0.009875,0.022614,0.022196,0.011370,0.003534
0.042858,0.007393,0.011351,0.026244,0.021846,0.010753,0.004404
0.060208,0.008148,0.011563,0.032826,0.020766,0.010079,0.006163
0.078035,0.009244,0.013286,0.038811,0.019101,0.009284,0.009056
0.094285,0.009630,0.015538,0.045566,0.017765,0.008289,0.013055
0.109624,0.010082,0.017776,0.051999,0.017002,0.007193,0.017423
0.122367,0.010379,0.018859,0.059731,0.016708,0.006167,0.021549
0.131923,0.010452,0.019843,0.066280,0.016866,0.005254,0.025798
0.142437,0.010385,0.020815,0.072074,0.016419,0.004447,0.030209
0.152887,0.010704,0.020666,0.079275,0.015952,0.003740,0.035161
0.163941,0.010722,0.020715,0.087370,0.015319,0.003021,0.040562
0.173460,0.010591,0.020314,0.095828,0.015148,0.002455,0.047463
0.178808,0.010749,0.020263,0.102417,0.015017,0.002090,0.054005
0.182555,0.011288,0.019752,0.107813,0.014501,0.001838,0.060092
0.184999,0.011634,0.019684,0.110517,0.014264,0.001628,0.066022
0.182243,0.012054,0.019311,0.115303,0.013543,0.001529,0.071363
0.177200,0.011235,0.017695,0.121343,0.013125,0.001476,0.076407
0.166666,0.010899,0.017102,0.123792,0.012919,0.001560,0.081206
0.151685,0.010177,0.016987,0.122096,0.012925,0.001836,0.085089
0.135945,0.009779,0.017227,0.117773,0.013326,0.002109,0.087864
0.122948,0.008815,0.015925,0.117961,0.013516,0.002303,0.088893
0.112962,0.007919,0.015240,0.117026,0.013567,0.002502,0.090029
0.105247,0.007736,0.014081,0.117359,0.013614,0.002665,0.090779
0.096556,0.007942,0.012329,0.118348,0.013610,0.002914,0.091458
0.088258,0.007708,0.011132,0.117522,0.013489,0.003233,0.091844
0.078412,0.007574,0.010652,0.114774,0.013358,0.003603,0.091592
0.069144,0.007731,0.010996,0.111659,0.013563,0.003857,0.089129
0.061112,0.007839,0.011415,0.108755,0.013493,0.004082,0.086262
0.052786,0.007664,0.012036,0.103007,0.013375,0.004530,0.083554
0.044017,0.007707,0.012360,0.096660,0.013302,0.005005,0.080910
0.035725,0.007583,0.012007,0.091421,0.013710,0.005315,0.078615
0.028496,0.007326,0.012088,0.086706,0.014042,0.005557,0.075795
0.021820,0.007271,0.012252,0.084222,0.014458,0.005636,0.072154
0.019112,0.007152,0.010402,0.088373,0.014490,0.005529,0.067714
0.018420,0.006986,0.007882,0.094923,0.014189,0.005442,0.062884
0.015942,0.007500,0.006946,0.097787,0.014095,0.005384,0.059523
0.013059,0.008426,0.006495,0.101320,0.014179,0.005216,0.056553
0.011213,0.009241,0.006253,0.103719,0.014671,0.005002,0.053885
0.009792,0.010076,0.006125,0.104496,0.015219,0.004866,0.051231
0.008374,0.010863,0.006208,0.104261,0.015835,0.004733,0.048497
0.007326,0.011771,0.006098,0.104548,0.016425,0.004577,0.045846
0.006534,0.012525,0.005957,0.102551,0.016990,0.004523,0.043814
0.005772,0.013234,0.005854,0.101104,0.017730,0.004384,0.042428
0.005772,0.013550,0.005423,0.102780,0.018527,0.004089,0.040996
0.005772,0.013554,0.005385,0.105190,0.019311,0.003748,0.039209
0.005806,0.013570,0.005491,0.108174,0.019485,0.003526,0.036611
0.005934,0.013465,0.005547,0.109435,0.019503,0.003462,0.034060
0.005873,0.013320,0.005775,0.109633,0.019452,0.003545,0.031865
0.005203,0.013121,0.006478,0.108245,0.019874,0.003614,0.030048
0.004376,0.012869,0.007312,0.106379,0.020458,0.003692,0.029067
0.003533,0.012395,0.008124,0.103527,0.021413,0.003784,0.028123
0.002712,0.011654,0.008946,0.098174,0.022465,0.003986,0.026851
0.001877,0.010932,0.009761,0.094834,0.023265,0.004155,0.025282
0.001135,0.010159,0.010497,0.091719,0.024210,0.004274,0.023791
0.000401,0.009476,0.011231,0.088802,0.025340,0.004342,0.022294
0.000240,0.008751,0.011462,0.086589,0.026560,0.004333,0.020806
0.000240,0.008073,0.011560,0.086222,0.027870,0.004245,0.019314
0.000240,0.007399,0.011615,0.085090,0.028844,0.004339,0.017902
0.000246,0.007039,0.011628,0.083942,0.029570,0.004504,0.016428
0.000264,0.006960,0.011576,0.083034,0.029926,0.004722,0.015516
0.000230,0.006864,0.011499,0.079562,0.030451,0.005058,0.015462
0.000635,0.006758,0.011074,0.078540,0.030800,0.005255,0.015303
0.001389,0.006657,0.010328,0.078093,0.031052,0.005404,0.014928
0.002125,0.006656,0.009532,0.078051,0.030823,0.005598,0.014681
0.002844,0.006656,0.008698,0.077580,0.030503,0.005821,0.013836
0.003581,0.006589,0.007886,0.077258,0.030080,0.005997,0.012804
0.004335,0.006524,0.007064,0.078331,0.029588,0.006064,0.011770
0.005142,0.006416,0.006249,0.078182,0.029006,0.006174,0.010906
0.005938,0.006384,0.005432,0.079274,0.028227,0.006268,0.009855
0.006705,0.006367,0.004610,0.079771,0.027588,0.006412,0.008732
0.007377,0.006293,0.003880,0.076602,0.027447,0.006717,0.007961
0.008156,0.006125,0.003081,0.073407,0.027065,0.007098,0.007265
0.008963,0.005944,0.002339,0.071048,0.026946,0.007316,0.006621
0.009804,0.005762,0.001633,0.068775,0.026718,0.007481,0.006536
0.010599,0.005658,0.000969,0.066694,0.026724,0.007693,0.006349
0.011431,0.005645,0.000322,0.066816,0.027223,0.007692,0.005991
0.011744,0.005630,0.000062,0.064409,0.028101,0.007792,0.005786
0.011755,0.005611,0.000062,0.060608,0.029182,0.007924,0.005683
0.011853,0.005646,0.000062,0.056307,0.030186,0.008093,0.005705
0.011953,0.005806,0.000062,0.052538,0.031679,0.008143,0.005986
0.011868,0.005973,0.000185,0.048596,0.033142,0.008230,0.006474
0.011632,0.006259,0.000369,0.044154,0.034529,0.008379,0.007002
0.011210,0.006671,0.000670,0.039699,0.036208,0.008488,0.007484
0.010785,0.007088,0.000992,0.034710,0.037445,0.008614,0.008108
0.010177,0.007602,0.001472,0.030635,0.038378,0.008642,0.008761
0.009506,0.008243,0.002021,0.030069,0.038470,0.008613,0.009213
0.008753,0.008985,0.002594,0.029738,0.038551,0.008523,0.009522
0.008113,0.009568,0.003064,0.028433,0.038153,0.008600,0.009816
0.007983,0.010130,0.003064,0.026304,0.037654,0.008826,0.009794
0.007958,0.010621,0.003064,0.023858,0.037089,0.009010,0.009742
0.007869,0.011170,0.003109,0.020565,0.035836,0.009331,0.009753
0.007696,0.011786,0.003215,0.017120,0.034198,0.009627,0.009907
0.007321,0.012378,0.003460,0.013895,0.032551,0.009872,0.010296
0.006806,0.012804,0.003842,0.010884,0.031152,0.010034,0.010864
0.006330,0.013128,0.004243,0.008008,0.029438,0.010220,0.011334
0.006002,0.013430,0.004526,0.005637,0.027555,0.010429,0.011557
0.005519,0.013687,0.005014,0.004267,0.025551,0.010550,0.011701
0.005133,0.013832,0.005430,0.003214,0.023206,0.010712,0.011905
0.004762,0.013814,0.005807,0.002471,0.021205,0.010865,0.012091
0.004603,0.013587,0.005972,0.002307,0.019347,0.011065,0.012238
0.004603,0.013750,0.006133,0.002139,0.017626,0.011284,0.012204
0.004576,0.014409,0.006335,0.002187,0.015998,0.011498,0.011750
0.004409,0.015148,0.006760,0.002396,0.014735,0.011632,0.011265
0.003692,0.016979,0.007716,0.002977,0.013822,0.011589,0.011011
0.002985,0.019559,0.008597,0.003533,0.013071,0.011525,0.010778
0.002882,0.022242,0.008884,0.003619,0.012499,0.011507,0.010709
0.002769,0.024570,0.009346,0.003758,0.012070,0.011507,0.010559
0.002301,0.027253,0.010032,0.004396,0.011485,0.011585,0.010087
0.001982,0.029320,0.010652,0.005073,0.010914,0.011743,0.009301
0.001639,0.030355,0.011104,0.005731,0.010292,0.011903,0.008556
0.001884,0.034785,0.011316,0.005873,0.009678,0.012003,0.007837
0.002016,0.040551,0.011814,0.006201,0.009114,0.012131,0.007033
0.002544,0.047404,0.012098,0.006199,0.008555,0.012290,0.006288
0.002843,0.051489,0.012211,0.006369,0.008220,0.012398,0.005532
0.003576,0.053826,0.011863,0.006139,0.008021,0.012526,0.004841
0.004414,0.059042,0.011515,0.005839,0.007937,0.012665,0.004231
0.005233,0.063575,0.011151,0.005340,0.007720,0.012806,0.004103
0.005715,0.067075,0.010802,0.005011,0.007610,0.012931,0.004073
0.006462,0.065165,0.010045,0.004406,0.007714,0.013043,0.004217
0.006941,0.062884,0.009496,0.004067,0.007654,0.013177,0.004444
0.006579,0.061316,0.009841,0.004460,0.007649,0.013180,0.004496
0.006020,0.060731,0.010288,0.005028,0.007751,0.013175,0.004459
0.006020,0.059613,0.010388,0.005040,0.007953,0.013158,0.004428
0.006020,0.059254,0.010307,0.005021,0.008233,0.013055,0.004387
0.006237,0.059385,0.010080,0.004899,0.008541,0.013013,0.004289
0.006212,0.055299,0.009816,0.005001,0.008951,0.013005,0.004288
0.006318,0.049277,0.009170,0.004908,0.009064,0.013050,0.004450
0.006609,0.042444,0.008391,0.004642,0.009314,0.013086,0.004751
0.006964,0.038532,0.007835,0.004227,0.009388,0.013178,0.005048
0.006830,0.036412,0.007925,0.004308,0.009386,0.013163,0.005259
0.006067,0.031367,0.008239,0.004919,0.009361,0.012968,0.005383
0.005248,0.026673,0.008701,0.005615,0.009513,0.012812,0.005428
0.004787,0.023110,0.009107,0.006055,0.009663,0.012643,0.005361
0.004040,0.023693,0.009842,0.006673,0.009614,0.012643,0.005248
0.003579,0.023634,0.010263,0.007016,0.009709,0.012647,0.005069
0.003300,0.022221,0.010261,0.007164,0.009853,0.012718,0.004957
0.003648,0.020059,0.009655,0.006852,0.009974,0.012758,0.004998
0.003648,0.018177,0.009313,0.006916,0.010101,0.012680,0.005017
0.003648,0.016668,0.009076,0.007012,0.009944,0.012717,0.005106
0.003454,0.016836,0.009123,0.007097,0.009666,0.012735,0.005211
0.003032,0.017754,0.009330,0.007325,0.009349,0.012752,0.005308
0.003326,0.018240,0.009026,0.006909,0.009431,0.012793,0.005524
0.003199,0.017499,0.008926,0.006900,0.009583,0.012774,0.005506
0.003013,0.016822,0.009013,0.007158,0.009638,0.012748,0.005334
0.002666,0.016783,0.009126,0.007454,0.009442,0.012792,0.005176
0.003069,0.016286,0.008660,0.006988,0.009330,0.013077,0.005187
0.003727,0.015281,0.007961,0.006291,0.009631,0.013314,0.005234
0.004119,0.014136,0.007425,0.005893,0.009983,0.013583,0.005300
0.004812,0.012948,0.006686,0.005291,0.010250,0.013829,0.005440
0.005344,0.012028,0.006228,0.004716,0.010178,0.013923,0.005698
0.006015,0.011536,0.006097,0.004088,0.009997,0.013884,0.005912
0.006124,0.011265,0.006433,0.003907,0.009920,0.013870,0.005941
0.006186,0.010821,0.006743,0.003694,0.009672,0.014032,0.005990
0.006186,0.009903,0.006769,0.003500,0.009516,0.014264,0.006116
0.006239,0.007905,0.006669,0.003359,0.009418,0.014492,0.006180
0.006861,0.005992,0.007019,0.002886,0.009336,0.014566,0.006217
0.006821,0.005324,0.008242,0.003055,0.009114,0.014457,0.005986
0.006976,0.005811,0.009175,0.003048,0.008735,0.014410,0.005790
0.007048,0.006183,0.009234,0.002885,0.008547,0.014478,0.005914
0.007240,0.005705,0.009114,0.002702,0.008582,0.014690,0.005955
0.007142,0.005258,0.009235,0.002836,0.008710,0.014743,0.005991
0.006697,0.005193,0.009596,0.003141,0.008314,0.014675,0.006045
0.006803,0.005043,0.009515,0.002991,0.007800,0.014521,0.006415
0.006628,0.004884,0.009634,0.003159,0.007303,0.014356,0.006643
0.006253,0.005176,0.009878,0.003639,0.007146,0.014296,0.006552
0.005710,0.005799,0.010007,0.004077,0.007034,0.014473,0.006409
0.005253,0.006354,0.010034,0.004370,0.006893,0.014623,0.006340
0.005316,0.006338,0.009663,0.004352,0.006899,0.014670,0.006351
0.005708,0.006344,0.009319,0.004147,0.006970,0.014541,0.006395
0.006242,0.006179,0.008903,0.003900,0.007092,0.014350,0.006534
0.006294,0.006217,0.008091,0.003993,0.007334,0.014221,0.006533
0.006491,0.005991,0.007099,0.003905,0.007844,0.014187,0.006539
0.005976,0.005518,0.006760,0.004291,0.008348,0.014252,0.006505
0.005584,0.005046,0.007188,0.004717,0.008548,0.014299,0.006283
0.005722,0.004811,0.006986,0.004670,0.008572,0.014247,0.006306
0.006110,0.004563,0.006724,0.004392,0.008445,0.014190,0.006410
0.006442,0.004237,0.006732,0.004365,0.008279,0.014150,0.006442
0.006328,0.004166,0.007297,0.004587,0.008144,0.014080,0.006154
0.006347,0.004435,0.007618,0.004531,0.008101,0.014019,0.005893
0.006696,0.004519,0.007567,0.004051,0.008105,0.013922,0.005869
0.007102,0.004426,0.007194,0.003612,0.008119,0.013735,0.005931
0.007622,0.004123,0.006747,0.003130,0.008148,0.013652,0.006079
