"1 Chan 1","2 Chan 2","3 Chan 3","4 Chan 4","5 Chan 5","6 Chan 6","7 Chan 7"
"0.006345","0.013363","0.002343","0.002293","0.018809","0.0132896","0.017385"
"0.006302","0.015026","0.002333","0.001242","0.017191","0.0135688","0.018280"
"0.006337","0.016877","0.002237","0.000668","0.015789","0.0140677","0.018374"
"0.006604","0.020032","0.002131","0.000245","0.014959","0.0146128","0.017709"
"0.007074","0.022622","0.002054","0.000002","0.014734","0.0151281","0.016880"
"0.007548","0.024207","0.001945","0.000002","0.014905","0.0155886","0.016026"
"0.007896","0.025296","0.001987","0.000002","0.015031","0.0157575","0.015024"
"0.007887","0.025951","0.002029","0.000002","0.014733","0.0158529","0.013940"
"0.007571","0.027641","0.002116","0.000002","0.014144","0.0159419","0.012863"
"0.007295","0.029371","0.002243","0.000002","0.013388","0.0160564","0.011842"
"0.006888","0.031662","0.002702","0.000750","0.012595","0.0161538","0.011385"
"0.006491","0.034160","0.003181","0.001557","0.011982","0.0162677","0.010890"
"0.006365","0.035505","0.003489","0.002372","0.011307","0.0164194","0.010457"
"0.006337","0.037285","0.003707","0.003293","0.010576","0.0165814","0.009580"
"0.006413","0.038320","0.003678","0.003646","0.010103","0.0167363","0.009000"
"0.006584","0.038547","0.003656","0.003757","0.009648","0.0168113","0.008580"
"0.006750","0.037866","0.003645","0.003863","0.009791","0.0167884","0.008181"
"0.006596","0.036244","0.003850","0.003863","0.009975","0.0163994","0.008224"
"0.005966","0.034287","0.004279","0.004387","0.009673","0.0159447","0.008150"
"0.005115","0.033195","0.004702","0.004686","0.009163","0.0154907","0.008093"
"0.004277","0.032864","0.005106","0.004920","0.008537","0.0150952","0.007883"
"0.003816","0.033338","0.005323","0.004920","0.008600","0.0148600","0.007637"
"0.003595","0.033505","0.005368","0.004920","0.009388","0.0146932","0.007401"
"0.003582","0.032742","0.005423","0.004920","0.010433","0.0145471","0.007218"
"0.003565","0.031507","0.005407","0.004920","0.011678","0.0143953","0.007088"
"0.003757","0.029649","0.005010","0.004453","0.012620","0.0143623","0.006821"
"0.003919","0.029084","0.004646","0.004073","0.013007","0.0143283","0.006566"
"0.003919","0.030982","0.004453","0.003613","0.012947","0.0143532","0.006885"
"0.004039","0.032523","0.004843","0.002861","0.012588","0.0143143","0.007401"
"0.003881","0.034910","0.005655","0.002684","0.012059","0.0142181","0.007972"
"0.003668","0.036320","0.006452","0.002797","0.011660","0.0141865","0.008398"
"0.003881","0.036780","0.006941","0.002691","0.011219","0.0141836","0.008104"
"0.004082","0.037969","0.007068","0.002691","0.010855","0.0142356","0.007799"
"0.004449","0.038020","0.006859","0.002166","0.010673","0.0143422","0.007729"
"0.004672","0.037644","0.006612","0.001868","0.010678","0.0144695","0.007623"
"0.004803","0.036724","0.006331","0.001634","0.010795","0.0145938","0.007562"
"0.004404","0.035399","0.006115","0.002180","0.010316","0.0147304","0.007482"
"0.003972","0.035375","0.006138","0.002814","0.009626","0.0147630","0.007429"
"0.003652","0.035291","0.006131","0.003266","0.008822","0.0147393","0.007404"
"0.003196","0.034988","0.006188","0.003985","0.007870","0.0148255","0.007424"
"0.002934","0.034974","0.006257","0.004573","0.007312","0.0149051","0.007392"
"0.002773","0.033555","0.006208","0.005135","0.007035","0.0150689","0.007269"
"0.002773","0.030689","0.006075","0.005746","0.007055","0.0151410","0.006603"
"0.002672","0.027691","0.005465","0.006447","0.007421","0.0150994","0.005993"
"0.002822","0.024538","0.004709","0.006623","0.007878","0.0150046","0.005471"
"0.002835","0.022749","0.004108","0.006902","0.008195","0.0148385","0.004978"
"0.002729","0.021849","0.003630","0.007152","0.008457","0.0147712","0.004983"
"0.002770","0.021615","0.003436","0.007152","0.008453","0.0148210","0.004993"
"0.002780","0.021750","0.003301","0.007201","0.008293","0.0148738","0.004993"
"0.002684","0.022074","0.003194","0.007487","0.007909","0.0149848","0.005014"
"0.002664","0.023070","0.003322","0.007487","0.007182","0.0150687","0.005185"
"0.003038","0.023742","0.003503","0.006941","0.006694","0.0151156","0.005232"
"0.003479","0.023791","0.003799","0.006307","0.006207","0.0153136","0.005155"
"0.003856","0.023840","0.004766","0.005855","0.005849","0.0153905","0.004908"
"0.004446","0.024283","0.005941","0.005136","0.005651","0.0153594","0.004576"
"0.005011","0.024358","0.006949","0.004267","0.005432","0.0153252","0.004387"
"0.005563","0.024464","0.008685","0.003277","0.005261","0.0151647","0.004262"
"0.006148","0.024667","0.009869","0.002310","0.005141","0.0152286","0.004124"
"0.006696","0.024782","0.011385","0.001439","0.004951","0.0154808","0.003887"
"0.006985","0.024822","0.013046","0.001088","0.004697","0.0159073","0.003531"
"0.007515","0.024469","0.013702","0.000585","0.004611","0.0165460","0.003143"
"0.007831","0.023865","0.014434","0.000335","0.004461","0.0171975","0.002809"
"0.008037","0.022449","0.014550","0.000335","0.004548","0.0177783","0.002528"
"0.008356","0.020774","0.014547","0.000286","0.004807","0.0183934","0.002167"
"0.008771","0.018962","0.014511","0.000000","0.005081","0.0187545","0.001976"
"0.009069","0.017519","0.014238","0.000000","0.005417","0.0189637","0.001787"
"0.009290","0.016400","0.013931","0.000000","0.005602","0.0192249","0.001701"
"0.009439","0.015769","0.013624","0.000000","0.005674","0.0193631","0.001725"
"0.009398","0.015163","0.012784","0.000000","0.006522","0.0194688","0.001849"
"0.009253","0.014071","0.011730","0.000000","0.007600","0.0194949","0.002068"
"0.009351","0.013329","0.010800","0.000197","0.008727","0.0192675","0.002283"
"0.008941","0.012589","0.009287","0.001607","0.009745","0.0190438","0.002480"
"0.009078","0.011501","0.008291","0.002072","0.009972","0.0188830","0.002769"
"0.009228","0.010637","0.007074","0.002579","0.010208","0.0186072","0.003025"
"0.009011","0.009657","0.005864","0.002959","0.010425","0.0182625","0.003227"
"0.008794","0.008999","0.005622","0.002969","0.010771","0.0176708","0.003536"
"0.008561","0.009117","0.005231","0.002969","0.011761","0.0169464","0.003811"
"0.008342","0.009466","0.005359","0.002969","0.012553","0.0161969","0.004138"
"0.008026","0.009938","0.005735","0.002969","0.013174","0.0154161","0.004562"
"0.007862","0.010363","0.006141","0.002969","0.014189","0.0145925","0.004721"
"0.007149","0.010105","0.006760","0.003887","0.014646","0.0139840","0.004797"
"0.006457","0.009917","0.007387","0.004736","0.015185","0.0133913","0.004934"
"0.005785","0.009634","0.007709","0.006325","0.015936","0.0127747","0.005052"
"0.005275","0.009325","0.008521","0.007938","0.015305","0.0124598","0.005135"
"0.005101","0.009042","0.009223","0.009053","0.014798","0.0121275","0.005147"
"0.004646","0.008622","0.010013","0.010098","0.014426","0.0118966","0.005005"
"0.004850","0.008138","0.010981","0.008849","0.014164","0.0117546","0.004975"
"0.004567","0.007834","0.011985","0.008805","0.014457","0.0115248","0.004864"
"0.005093","0.007932","0.013556","0.008845","0.014955","0.0112000","0.004740"
"0.007636","0.008538","0.015259","0.008921","0.015610","0.0108134","0.004596"
"0.011721","0.009609","0.016248","0.009688","0.016311","0.0104763","0.004354"
"0.017662","0.010117","0.017915","0.009889","0.016484","0.0101229","0.004098"
"0.023825","0.010398","0.020332","0.009889","0.016094","0.0101463","0.003826"
"0.029053","0.010294","0.023602","0.009889","0.015933","0.0101815","0.003962"
"0.033928","0.011590","0.029721","0.009889","0.014954","0.0103389","0.004476"
"0.037757","0.013749","0.037121","0.008971","0.014325","0.0104584","0.005157"
"0.042089","0.016136","0.043947","0.008122","0.013761","0.0104888","0.005933"
"0.046384","0.018232","0.049971","0.006532","0.013197","0.0105811","0.006883"
"0.050366","0.020728","0.056372","0.004920","0.013258","0.0104375","0.007752"
"0.054236","0.025087","0.064097","0.003804","0.012810","0.0101995","0.008861"
"0.058138","0.029469","0.072209","0.002562","0.012057","0.0099941","0.010708"
"0.061715","0.033939","0.079756","0.002401","0.011097","0.0097887","0.012593"
"0.065145","0.038410","0.085120","0.001980","0.010391","0.0095908","0.014263"
"0.068655","0.041807","0.088362","0.001478","0.009593","0.0095330","0.015871"
"0.069909","0.044832","0.091509","0.001122","0.008613","0.0095927","0.017491"
"0.068946","0.047735","0.096932","0.000488","0.007392","0.0096092","0.019143"
"0.067565","0.050593","0.101099","0.000824","0.006095","0.0096444","0.021293"
"0.065285","0.052266","0.105291","0.001693","0.005584","0.0092242","0.023835"
"0.063396","0.054370","0.107590","0.002766","0.005104","0.0087681","0.025737"
"0.061894","0.055384","0.106707","0.004548","0.004978","0.0083496","0.028104"
"0.062241","0.055479","0.103640","0.006829","0.005118","0.0078546","0.031042"
"0.061401","0.054790","0.101199","0.009992","0.005125","0.0074715","0.033984"
"0.065172","0.054546","0.098531","0.013519","0.005147","0.0068175","0.037468"
"0.068822","0.053882","0.094045","0.018236","0.004969","0.0063133","0.041442"
"0.069885","0.051186","0.088084","0.024190","0.005064","0.0060146","0.046192"
"0.070503","0.048338","0.079475","0.029771","0.005391","0.0058512","0.050977"
"0.070784","0.044829","0.070544","0.038540","0.005556","0.0057240","0.055012"
"0.071014","0.041105","0.063767","0.048257","0.005593","0.0054810","0.058630"
"0.069695","0.038331","0.058415","0.058108","0.005545","0.0053335","0.061700"
"0.071036","0.035836","0.052858","0.069678","0.005455","0.0049346","0.064710"
"0.072791","0.032897","0.045999","0.075725","0.005762","0.0047144","0.068109"
"0.071820","0.029798","0.040337","0.080729","0.006147","0.0045644","0.071868"
"0.071898","0.028024","0.033851","0.084020","0.006232","0.0046185","0.074603"
"0.073663","0.026245","0.027908","0.088607","0.005870","0.0046694","0.076550"
"0.074986","0.024162","0.022347","0.092708","0.005581","0.0046647","0.078774"
"0.075757","0.022558","0.017633","0.094848","0.005403","0.0047232","0.080881"
"0.077689","0.021101","0.012749","0.096517","0.005261","0.0046626","0.083251"
"0.074084","0.019133","0.008984","0.097366","0.005013","0.0049116","0.085125"
"0.068129","0.017275","0.006061","0.097098","0.004998","0.0052515","0.086339"
"0.064757","0.015561","0.003300","0.099588","0.004482","0.0054760","0.085345"
"0.062128","0.013860","0.002693","0.102684","0.004078","0.0055265","0.084205"
"0.060239","0.012772","0.002688","0.103779","0.004169","0.0054159","0.084194"
"0.058550","0.012054","0.002675","0.103033","0.004369","0.0053531","0.084918"
"0.057723","0.010972","0.002641","0.101453","0.004641","0.0052132","0.085799"
"0.054800","0.009569","0.002641","0.097955","0.004954","0.0052876","0.087120"
"0.052115","0.008276","0.002278","0.100007","0.004895","0.0052832","0.087611"
"0.050629","0.007117","0.001487","0.104152","0.004574","0.0052753","0.087139"
"0.048451","0.005970","0.000874","0.106346","0.004675","0.0052916","0.087484"
"0.045104","0.004818","0.000686","0.107543","0.004911","0.0053549","0.087655"
"0.041457","0.003804","0.000490","0.105879","0.005282","0.0055991","0.085786"
"0.037801","0.002847","0.000251","0.105430","0.005469","0.0058478","0.082796"
"0.033322","0.002341","0.000123","0.105793","0.005420","0.0062380","0.079155"
"0.029787","0.002257","0.000067","0.106216","0.005357","0.0065872","0.074909"
"0.029268","0.002159","0.000000","0.107125","0.005226","0.0067453","0.070901"
"0.028659","0.002288","0.000000","0.103373","0.005565","0.0069858","0.068123"
"0.027975","0.002448","0.000000","0.100611","0.005959","0.0072215","0.064756"
"0.027069","0.002586","0.000001","0.096642","0.006416","0.0075010","0.061533"
"0.025817","0.002551","0.000048","0.092727","0.006925","0.0078549","0.058417"
"0.024446","0.002533","0.000048","0.089360","0.007594","0.0082537","0.055317"
"0.023030","0.002556","0.000051","0.086054","0.008381","0.0086863","0.051667"
"0.021428","0.002608","0.000101","0.081481","0.009330","0.0090937","0.048648"
"0.019871","0.002626","0.000178","0.073908","0.010769","0.0094297","0.046558"
"0.018728","0.002650","0.000182","0.070260","0.011979","0.0095883","0.044775"
"0.017688","0.002603","0.000185","0.066539","0.012992","0.0097293","0.044275"
"0.017355","0.002510","0.000185","0.067011","0.013464","0.0098319","0.043977"
"0.017185","0.002486","0.000272","0.068531","0.014026","0.0097994","0.044042"
"0.016755","0.002538","0.000564","0.070119","0.014810","0.0095944","0.044333"
"0.016309","0.002601","0.000890","0.072476","0.015636","0.0092821","0.044964"
"0.015343","0.002727","0.001315","0.074881","0.016782","0.0089198","0.045513"
"0.014571","0.002788","0.001655","0.077911","0.017783","0.0086234","0.045184"
"0.013285","0.002952","0.002035","0.078203","0.018847","0.0085089","0.044228"
"0.012132","0.003253","0.002368","0.078049","0.020142","0.0084314","0.041890"
"0.011269","0.003658","0.002640","0.078338","0.021591","0.0082023","0.039260"
"0.010554","0.004091","0.002854","0.079369","0.022582","0.0079044","0.037138"
"0.010179","0.004475","0.003007","0.080391","0.023694","0.0075046","0.035206"
"0.009842","0.004865","0.003124","0.084074","0.024503","0.0071237","0.032937"
"0.009378","0.005253","0.003243","0.090107","0.024433","0.0069130","0.029900"
"0.008966","0.005749","0.003381","0.095506","0.024579","0.0066445","0.026097"
"0.008894","0.006244","0.003445","0.099852","0.025449","0.0062826","0.022087"
"0.008624","0.006671","0.003528","0.103018","0.026555","0.0058198","0.018949"
"0.008331","0.006955","0.003549","0.105039","0.027485","0.0055128","0.016016"
"0.008204","0.007160","0.003443","0.104065","0.028554","0.0054172","0.013013"
"0.007722","0.007331","0.003411","0.102444","0.029416","0.0054621","0.010278"
"0.007532","0.007444","0.003241","0.098400","0.029969","0.0056922","0.007960"
"0.007081","0.007592","0.003213","0.093378","0.031291","0.0057294","0.006441"
"0.006953","0.007700","0.003176","0.089923","0.032463","0.0057133","0.005492"
"0.006696","0.007779","0.003185","0.086968","0.032877","0.0057332","0.005385"
"0.006401","0.007794","0.003195","0.084095","0.032796","0.0058767","0.005437"
"0.005879","0.007929","0.003331","0.079268","0.032927","0.0060815","0.005615"
"0.005123","0.008398","0.003529","0.074305","0.032954","0.0063000","0.005892"
"0.004460","0.009103","0.003674","0.067900","0.032935","0.0065603","0.006121"
"0.003958","0.010129","0.003745","0.060968","0.033359","0.0067540","0.005930"
"0.003272","0.011077","0.003881","0.053841","0.033427","0.0070182","0.006416"
"0.002224","0.012071","0.004069","0.047217","0.033027","0.0073300","0.007196"
"0.001301","0.013019","0.004179","0.039840","0.032512","0.0077679","0.008035"
"0.000752","0.014020","0.004252","0.032479","0.032126","0.0081233","0.008794"
"0.000712","0.015057","0.004231","0.026671","0.031665","0.0084129","0.009623"
"0.001044","0.016141","0.004132","0.021136","0.031246","0.0086833","0.010206"
"0.001342","0.017023","0.004106","0.017416","0.030893","0.0088878","0.010537"
"0.001653","0.017660","0.004010","0.014717","0.029742","0.0093113","0.010831"
"0.002031","0.018286","0.003861","0.011964","0.028356","0.0097535","0.011008"
"0.002373","0.018699","0.003704","0.009180","0.027114","0.0102412","0.010897"
"0.002726","0.019128","0.003592","0.006706","0.026400","0.0106049","0.010749"
"0.003052","0.019401","0.003452","0.005553","0.025696","0.0109681","0.010575"
"0.003052","0.019311","0.003344","0.005131","0.024692","0.0113246","0.010658"
"0.003052","0.018709","0.003303","0.004660","0.023792","0.0115212","0.010944"
"0.003085","0.018076","0.003320","0.004009","0.022791","0.0116905","0.011386"
"0.003085","0.017583","0.003302","0.003764","0.022262","0.0118095","0.011198"
"0.003180","0.017025","0.003349","0.003724","0.022176","0.0119619","0.010406"
"0.003468","0.016488","0.003387","0.003670","0.023446","0.0119185","0.009478"
"0.003766","0.015653","0.003348","0.003643","0.024978","0.0118918","0.008592"
"0.003817","0.014646","0.003388","0.004043","0.026018","0.0118656","0.007740"
"0.003491","0.013458","0.003519","0.004620","0.027413","0.0117004","0.007612"
"0.003361","0.012407","0.003520","0.004725","0.027711","0.0116430","0.007744"
"0.003210","0.011553","0.003574","0.004756","0.028236","0.0114731","0.007964"
"0.003028","0.010684","0.003617","0.004756","0.029362","0.0112433","0.008199"
"0.003096","0.009894","0.003517","0.004756","0.030353","0.0110655","0.008112"
"0.003216","0.009191","0.003406","0.004756","0.031091","0.0109081","0.007798"
"0.003358","0.008619","0.003315","0.004756","0.031593","0.0107302","0.007447"
"0.003796","0.008000","0.003133","0.004278","0.031636","0.0107429","0.006827"
"0.004120","0.007778","0.002996","0.004151","0.032383","0.0107743","0.005960"
"0.004601","0.007265","0.002898","0.003588","0.034295","0.0106487","0.005311"
"0.005126","0.006523","0.002827","0.002853","0.035623","0.0105614","0.004827"
"0.005244","0.005954","0.002831","0.002572","0.036135","0.0104412","0.004820"
"0.004951","0.005371","0.002912","0.002797","0.034931","0.0104441","0.004995"
"0.004537","0.005163","0.002946","0.003183","0.032644","0.0106312","0.005203"
"0.004366","0.005396","0.002909","0.003107","0.030845","0.0107881","0.005460"
"0.004460","0.006211","0.002773","0.003077","0.029221","0.0110314","0.005050"
"0.004301","0.007095","0.002781","0.003725","0.028706","0.0111740","0.004346"
"0.004141","0.007891","0.002749","0.004443","0.027932","0.0113475","0.003615"
"0.003945","0.008253","0.002740","0.005287","0.026648","0.0115664","0.002923"
"0.003535","0.008197","0.002799","0.005989","0.025101","0.0118012","0.002862"
"0.003062","0.008037","0.002863","0.006677","0.023355","0.0121902","0.002974"
"0.002810","0.008232","0.002832","0.006869","0.021897","0.0125126","0.003344"
"0.002495","0.008791","0.002895","0.007185","0.021186","0.0126801","0.003668"
"0.002497","0.009229","0.002831","0.006837","0.019746","0.0129151","0.004225"
"0.001990","0.009990","0.002742","0.007397","0.017220","0.0132431","0.004837"
"0.001465","0.010384","0.002696","0.008100","0.014877","0.0136908","0.005248"
"0.001366","0.010487","0.002537","0.008029","0.012962","0.0141228","0.005612"
"0.001680","0.010780","0.002329","0.007485","0.011843","0.0145556","0.005775"
"0.001988","0.010660","0.002222","0.006974","0.011554","0.0148588","0.005843"
"0.002206","0.010338","0.002123","0.006650","0.011244","0.0150861","0.005830"
"0.002593","0.009429","0.001950","0.006103","0.010382","0.0154327","0.005832"
"0.003051","0.008466","0.001791","0.005350","0.009411","0.0156841","0.005894"
"0.003513","0.007911","0.001697","0.004601","0.008538","0.0159111","0.005880"
"0.004014","0.008022","0.001774","0.003757","0.007625","0.0161477","0.005894"
"0.004459","0.009205","0.002266","0.003054","0.007322","0.0161780","0.005791"
"0.004844","0.010615","0.003226","0.002595","0.007077","0.0161126","0.005616"
"0.004892","0.011525","0.004487","0.002814","0.006772","0.0160014","0.005257"
"0.005031","0.012945","0.006235","0.002935","0.006312","0.0158076","0.004870"
"0.004705","0.014365","0.007996","0.003878","0.005990","0.0155506","0.004446"
"0.004784","0.016256","0.009139","0.004001","0.005824","0.0153920","0.004072"
"0.005103","0.018837","0.009897","0.003510","0.005695","0.0152174","0.003970"
"0.005411","0.020444","0.009937","0.003045","0.005770","0.0150864","0.003957"
"0.005017","0.021626","0.009997","0.003860","0.005461","0.0149884","0.003985"
"0.004825","0.022152","0.010796","0.004429","0.005143","0.0147940","0.003987"
"0.004532","0.022927","0.012025","0.005308","0.004788","0.0146463","0.003862"
"0.004462","0.024560","0.013755","0.005781","0.004486","0.0143955","0.003595"
"0.004594","0.026275","0.015487","0.005781","0.004607","0.0143222","0.003209"
"0.004752","0.027707","0.016369","0.005781","0.004893","0.0143946","0.002889"
"0.004939","0.028269","0.016667","0.005781","0.005299","0.0144903","0.002658"
"0.005179","0.027602","0.016056","0.005781","0.005879","0.0147562","0.002523"
"0.005391","0.026611","0.014927","0.005552","0.006271","0.0149942","0.002571"
"0.005668","0.025821","0.013745","0.005142","0.007095","0.0151243","0.002582"
"0.005406","0.023886","0.012033","0.005630","0.008038","0.0157607","0.002437"
"0.005406","0.022091","0.010366","0.005704","0.008818","0.0164314","0.002279"
"0.005321","0.019541","0.009316","0.006273","0.009537","0.0169100","0.002040"
"0.005002","0.016647","0.008624","0.007944","0.009670","0.0173756","0.001731"
"0.004874","0.015250","0.008896","0.009528","0.009596","0.0172676","0.001551"
"0.005600","0.014260","0.009823","0.009433","0.010140","0.0170117","0.001272"
"0.005841","0.014286","0.010005","0.009930","0.010947","0.0167691","0.001077"
"0.005861","0.014048","0.009764","0.009900","0.011862","0.0165348","0.001039"
"0.005632","0.013158","0.009262","0.010061","0.012658","0.0163496","0.000979"
"0.005580","0.011994","0.008000","0.010061","0.012782","0.0162440","0.001050"
"0.005500","0.010766","0.007543","0.010061","0.012471","0.0161077","0.001108"
"0.005350","0.010171","0.007510","0.010061","0.012247","0.0159514","0.001176"
"0.005241","0.010061","0.007912","0.010061","0.012387","0.0155998","0.001191"
"0.004936","0.009915","0.008573","0.010371","0.012831","0.0150733","0.001317"
"0.004395","0.009612","0.009226","0.011593","0.012773","0.0147428","0.001422"
"0.005025","0.009891","0.010343","0.011079","0.012567","0.0140064","0.001689"
"0.005537","0.009847","0.011278","0.010523","0.011971","0.0134324","0.002090"
"0.006371","0.009932","0.011975","0.009421","0.011640","0.0129979","0.002289"
"0.007219","0.010247","0.012562","0.007538","0.012204","0.0124726","0.002432"
"0.007926","0.010115","0.012423","0.008056","0.012853","0.0123423","0.002393"
"0.009493","0.009902","0.011624","0.007458","0.013292","0.0122689","0.002538"
"0.010215","0.009627","0.011588","0.008441","0.012983","0.0123177","0.002657"
"0.011470","0.009906","0.011714","0.009844","0.012387","0.0123518","0.002728"
"0.013676","0.010288","0.012172","0.010271","0.011724","0.0123610","0.002929"
"0.015993","0.011167","0.013340","0.011782","0.011789","0.0120211","0.003038"
"0.018593","0.012171","0.014253","0.014550","0.012194","0.0115406","0.003097"
"0.020110","0.012625","0.015229","0.017233","0.012384","0.0110714","0.003182"
"0.021788","0.012711","0.016331","0.018679","0.012241","0.0107392","0.003303"
"0.024905","0.012699","0.017297","0.019563","0.011875","0.0106278","0.003237"
"0.028274","0.012855","0.018069","0.020181","0.011505","0.0104434","0.003169"
"0.031442","0.012832","0.018451","0.020938","0.011308","0.0102399","0.003066"
"0.035969","0.013070","0.018474","0.021810","0.011659","0.0098675","0.002871"
"0.039922","0.013176","0.019794","0.022177","0.011690","0.0095466","0.002776"
"0.044150","0.012877","0.021053","0.023429","0.011296","0.0093230","0.002774"
"0.050614","0.012342","0.024519","0.022233","0.010771","0.0091071","0.002648"
"0.054156","0.011992","0.028176","0.022093","0.010218","0.0089878","0.002510"
"0.058850","0.011739","0.030542","0.020044","0.010639","0.0086715","0.002555"
"0.063575","0.011091","0.034095","0.017792","0.011632","0.0081821","0.002390"
"0.068307","0.010652","0.034553","0.017691","0.012896","0.0077255","0.003456"
"0.073622","0.009667","0.035880","0.018752","0.013481","0.0073886","0.005527"
"0.081058","0.008548","0.037278","0.017801","0.013902","0.0070616","0.008188"
"0.089533","0.008102","0.038677","0.017560","0.014245","0.0068127","0.011165"
"0.098070","0.008462","0.039268","0.018245","0.014515","0.0065567","0.014369"
"0.104534","0.009256","0.039736","0.019251","0.014910","0.0063296","0.017621"
"0.111221","0.010793","0.040715","0.018239","0.015302","0.0062634","0.020825"
"0.117126","0.012363","0.041628","0.017898","0.015455","0.0062904","0.023938"
"0.122223","0.013764","0.042855","0.016691","0.015585","0.0063729","0.026855"
"0.125536","0.015115","0.043411","0.016176","0.015780","0.0065129","0.029752"
"0.127557","0.016737","0.044353","0.014924","0.016049","0.0065896","0.032415"
"0.127045","0.018700","0.044355","0.014017","0.016362","0.0068007","0.035052"
"0.128921","0.020648","0.043348","0.013929","0.016552","0.0069513","0.037931"
"0.130733","0.022591","0.042453","0.014011","0.016124","0.0071845","0.040500"
"0.130646","0.024400","0.040108","0.014011","0.015351","0.0076940","0.042760"
"0.129254","0.025637","0.040160","0.013078","0.014610","0.0080728","0.043767"
"0.126509","0.027119","0.039284","0.010577","0.014049","0.0085011","0.043814"
"0.120641","0.027581","0.038023","0.009822","0.013545","0.0090579","0.043351"
"0.113958","0.027373","0.036951","0.009534","0.013049","0.0094265","0.043690"
"0.106494","0.026855","0.036924","0.009670","0.012580","0.0096630","0.045047"
"0.099305","0.026262","0.037049","0.011506","0.012099","0.0097701","0.046223"
"0.092711","0.024738","0.036444","0.014655","0.011892","0.0097493","0.047139"
"0.085508","0.023276","0.035791","0.018500","0.011626","0.0096558","0.048505"
"0.078043","0.021814","0.034481","0.022959","0.011343","0.0095714","0.050196"
"0.071837","0.020266","0.032758","0.027782","0.011110","0.0094816","0.051741"
"0.066175","0.018722","0.030870","0.032840","0.010955","0.0093662","0.053990"
"0.060838","0.017117","0.028077","0.038189","0.010797","0.0092331","0.056847"
"0.054063","0.015274","0.026251","0.043941","0.010509","0.0090956","0.060122"
"0.047078","0.013391","0.024866","0.049992","0.010276","0.0089803","0.063639"
"0.041617","0.011507","0.023377","0.056304","0.010047","0.0088016","0.067710"
"0.037224","0.009878","0.021570","0.061853","0.009906","0.0087314","0.070784"
"0.034433","0.008369","0.019457","0.066727","0.009824","0.0086315","0.073590"
"0.032431","0.007931","0.017838","0.070133","0.009740","0.0084444","0.076676"
"0.030422","0.007991","0.016073","0.072971","0.009717","0.0083511","0.078662"
"0.027590","0.007967","0.014366","0.076126","0.009845","0.0083487","0.078892"
"0.025337","0.008311","0.012519","0.076707","0.010288","0.0083923","0.079502"
"0.022580","0.008796","0.010847","0.077237","0.010548","0.0084779","0.080401"
"0.020722","0.009363","0.009229","0.076321","0.011115","0.0085936","0.080607"
"0.018671","0.010014","0.008561","0.075127","0.011606","0.0087360","0.080213"
"0.017418","0.010875","0.007946","0.074780","0.011985","0.0087541","0.080079"
"0.016871","0.011736","0.007236","0.074428","0.012388","0.0087138","0.079214"
"0.016651","0.012639","0.006507","0.074093","0.012748","0.0087052","0.077435"
"0.016517","0.013547","0.005803","0.073669","0.013377","0.0087214","0.074527"
"0.016199","0.014343","0.005183","0.072653","0.014188","0.0087922","0.071554"
"0.017023","0.015084","0.004526","0.072145","0.015003","0.0087522","0.068716"
"0.017677","0.015753","0.004178","0.072651","0.015541","0.0086823","0.067100"
"0.016901","0.016202","0.004227","0.074602","0.015993","0.0086017","0.065527"
"0.015802","0.016377","0.004439","0.077956","0.016536","0.0084267","0.063029"
"0.015090","0.016351","0.004657","0.082164","0.017203","0.0081991","0.059979"
"0.015636","0.016339","0.004570","0.086346","0.017484","0.0079677","0.057305"
"0.016206","0.015783","0.004357","0.091298","0.017558","0.0078196","0.053885"
"0.016657","0.015041","0.004189","0.096062","0.017527","0.0077131","0.050339"
"0.016861","0.014133","0.004068","0.101894","0.017498","0.0075333","0.047128"
"0.017080","0.013183","0.003895","0.107318","0.017582","0.0073108","0.044280"
"0.017483","0.012155","0.003602","0.112045","0.017704","0.0070701","0.041429"
"0.017233","0.011173","0.003441","0.115804","0.017937","0.0069307","0.038385"
"0.016057","0.010098","0.003568","0.116919","0.018465","0.0068769","0.035395"
"0.015257","0.009103","0.003623","0.118043","0.018755","0.0068369","0.032661"
"0.015193","0.008216","0.003510","0.118428","0.018965","0.0067499","0.029789"
"0.014342","0.007337","0.003597","0.118482","0.019321","0.0066937","0.026700"
"0.013247","0.006514","0.003791","0.118225","0.019938","0.0066226","0.023426"
"0.012625","0.005878","0.003864","0.117165","0.020825","0.0065118","0.020311"
"0.011607","0.005578","0.004017","0.115410","0.021936","0.0064021","0.017940"
"0.010608","0.005593","0.004201","0.112367","0.023100","0.0062719","0.016356"
"0.009727","0.005622","0.004396","0.108665","0.024190","0.0062092","0.015069"
"0.008736","0.005740","0.004767","0.105063","0.025492","0.0060498","0.014181"
"0.007580","0.006068","0.005210","0.100874","0.027557","0.0057489","0.013354"
"0.006734","0.006416","0.005595","0.095972","0.029951","0.0053979","0.012534"
"0.005895","0.006760","0.005900","0.091916","0.032283","0.0050589","0.011668"
"0.004850","0.007082","0.006276","0.086969","0.034994","0.0047151","0.010792"
"0.004213","0.007426","0.006544","0.082488","0.037949","0.0042783","0.010450"
"0.003993","0.007823","0.006647","0.078390","0.040550","0.0038299","0.010568"
"0.003989","0.008152","0.006690","0.073076","0.043127","0.0033920","0.010931"
"0.003609","0.008453","0.006820","0.068200","0.045770","0.0029953","0.011435"
"0.003031","0.008651","0.006948","0.063016","0.048049","0.0027788","0.011741"
"0.002190","0.008786","0.007104","0.057903","0.050269","0.0026026","0.011713"
"0.001347","0.008921","0.007273","0.052214","0.052681","0.0024020","0.011686"
"0.001046","0.008900","0.007224","0.046278","0.054287","0.0024169","0.011768"
"0.001200","0.008723","0.006978","0.040148","0.055047","0.0026078","0.011668"
"0.001281","0.008642","0.006760","0.034397","0.055830","0.0027533","0.011295"
"0.001546","0.008578","0.006506","0.028485","0.056432","0.0028913","0.011056"
"0.001851","0.008271","0.006139","0.023405","0.055573","0.0033270","0.010887"
"0.002078","0.007957","0.005788","0.018890","0.054341","0.0038157","0.010646"
"0.002105","0.007698","0.005594","0.014683","0.053279","0.0042456","0.010432"
"0.002120","0.007419","0.005412","0.011057","0.051909","0.0047542","0.010220"
"0.002120","0.007100","0.005226","0.007660","0.049838","0.0053664","0.009957"
"0.002120","0.006812","0.005063","0.006209","0.047779","0.0059397","0.009636"
"0.002435","0.006579","0.004760","0.005068","0.045567","0.0065680","0.009302"
"0.002523","0.006338","0.004524","0.004886","0.042836","0.0072091","0.008911"
"0.002523","0.006200","0.004402","0.004744","0.040234","0.0077344","0.008808"
"0.002462","0.006072","0.004326","0.004568","0.037517","0.0082707","0.009041"
"0.002141","0.005930","0.004294","0.004800","0.034319","0.0089440","0.009346"
"0.002055","0.005900","0.004252","0.004851","0.031760","0.0095131","0.009407"
"0.002084","0.005909","0.004233","0.004822","0.029821","0.0100037","0.009379"
"0.002155","0.005884","0.004181","0.004672","0.027824","0.0105346","0.009440"
"0.002196","0.005893","0.004119","0.004616","0.025917","0.0110669","0.009467"
"0.002154","0.006016","0.004186","0.004616","0.024795","0.0113567","0.009610"
"0.002124","0.006073","0.004276","0.004421","0.023723","0.0116207","0.010074"
"0.002177","0.006116","0.004334","0.004077","0.022502","0.0118706","0.010634"
"0.002162","0.006186","0.004384","0.003712","0.021282","0.0121218","0.011333"
"0.002162","0.006260","0.004407","0.003206","0.020406","0.0123304","0.012248"
"0.002162","0.006363","0.004467","0.002797","0.020152","0.0123987","0.012970"
"0.001847","0.006500","0.004635","0.002893","0.020098","0.0122785","0.013688"
"0.001759","0.006563","0.004680","0.002564","0.020225","0.0122000","0.014358"
"0.001759","0.006748","0.004636","0.002484","0.020463","0.0121436","0.014522"
"0.001759","0.006838","0.004531","0.002798","0.020626","0.0121537","0.014059"
"0.001680","0.006922","0.004435","0.003315","0.021058","0.0121004","0.013468"
"0.001479","0.006888","0.004406","0.004115","0.021670","0.0119747","0.012884"
"0.001338","0.007806","0.004415","0.004832","0.023328","0.0116296","0.012191"
"0.001235","0.008945","0.004462","0.005487","0.024999","0.0112058","0.011605"
"0.000918","0.010103","0.004604","0.006430","0.026694","0.0107465","0.011062"
"0.000654","0.010943","0.004667","0.007170","0.027636","0.0104316","0.010576"
"0.000457","0.010923","0.004573","0.007821","0.027613","0.0103871","0.010077"
"0.000377","0.011078","0.004469","0.008276","0.028310","0.0103351","0.009440"
"0.000377","0.011199","0.004293","0.008761","0.028986","0.0102929","0.008491"
"0.000377","0.011313","0.004147","0.009431","0.029534","0.0102695","0.007206"
"0.000458","0.011633","0.004113","0.009981","0.030898","0.0100160","0.005891"
"0.000597","0.011772","0.004019","0.010448","0.031535","0.0100478","0.004609"
"0.000830","0.011901","0.003940","0.010750","0.032066","0.0100566","0.003444"
"0.001016","0.011635","0.003803","0.010626","0.031498","0.0102583","0.002949"
"0.001016","0.011493","0.003736","0.010342","0.030612","0.0103965","0.003143"
"0.001016","0.011478","0.003736","0.010026","0.030493","0.0103835","0.003415"
"0.001016","0.011681","0.003658","0.009727","0.030231","0.0104266","0.003637"
"0.000847","0.010904","0.003573","0.009939","0.029156","0.0106611","0.003750"
"0.000640","0.009819","0.003512","0.010196","0.028307","0.0108728","0.003746"
"0.000867","0.008301","0.003269","0.009679","0.026515","0.0113600","0.003739"
"0.001314","0.007053","0.003089","0.008939","0.025612","0.0116373","0.003596"
"0.001530","0.006844","0.003138","0.008795","0.025913","0.0116200","0.003197"
"0.001745","0.006418","0.003231","0.008557","0.025462","0.0116010","0.002970"
"0.001745","0.006058","0.003434","0.008593","0.024949","0.0115642","0.002999"
"0.001953","0.005642","0.003462","0.008139","0.023838","0.0116841","0.003201"
"0.001966","0.005233","0.003343","0.007796","0.020985","0.0122063","0.003720"
"0.001827","0.005261","0.003217","0.007743","0.018806","0.0125455","0.004257"
"0.001594","0.005421","0.003186","0.007883","0.016942","0.0128682","0.004629"
"0.001513","0.005869","0.003176","0.008005","0.016135","0.0130448","0.004783"
"0.001843","0.006596","0.003105","0.007478","0.015812","0.0131596","0.004864"
"0.002112","0.007090","0.003079","0.007093","0.014564","0.0134037","0.004867"
"0.002480","0.007609","0.003158","0.006412","0.013268","0.0135649","0.004948"
"0.002735","0.007850","0.003275","0.005668","0.011894","0.0137209","0.005199"
"0.003156","0.007811","0.003295","0.004844","0.010613","0.0139175","0.005308"
"0.003253","0.007906","0.003334","0.004594","0.010295","0.0139542","0.005353"
"0.003122","0.007908","0.003256","0.004779","0.009757","0.0141213","0.005394"
"0.003205","0.007785","0.003041","0.004469","0.008901","0.0143208","0.005572"
"0.003395","0.007591","0.002733","0.004042","0.007919","0.0146736","0.005771"
"0.003882","0.007338","0.002333","0.003255","0.007055","0.0150412","0.005763"
"0.004147","0.007247","0.002124","0.002959","0.006925","0.0152362","0.005659"
"0.004469","0.006980","0.001924","0.002582","0.007166","0.0153511","0.005402"
"0.004861","0.006544","0.001875","0.002071","0.007462","0.0152978","0.005072"
"0.004951","0.006137","0.001911","0.002004","0.007546","0.0151830","0.004901"
"0.005260","0.006199","0.002093","0.001552","0.007570","0.0151743","0.004708"
"0.005383","0.006188","0.002362","0.001516","0.007478","0.0152419","0.004597"
"0.005603","0.006349","0.003390","0.001319","0.007360","0.0153365","0.004473"
"0.005761","0.006589","0.004618","0.001319","0.007129","0.0154481","0.004317"
"0.005997","0.006742","0.005964","0.001338","0.006939","0.0154003","0.004147"
"0.006186","0.007419","0.007773","0.001249","0.006622","0.0154217","0.004041"
"0.006667","0.009066","0.008972","0.001073","0.006129","0.0154789","0.004048"
"0.007264","0.010567","0.010441","0.000888","0.005965","0.0154534","0.003934"
"0.008462","0.012231","0.011623","0.000691","0.006211","0.0153692","0.003711"
"0.009470","0.013630","0.013025","0.000691","0.006623","0.0151683","0.003402"
"0.010087","0.014776","0.014635","0.000803","0.006862","0.0150494","0.003254"
"0.010577","0.015872","0.015551","0.000803","0.006589","0.0151920","0.003178"
"0.011018","0.016779","0.016212","0.000803","0.006404","0.0153393","0.003124"
"0.011456","0.017651","0.016557","0.000803","0.006707","0.0155724","0.003004"
"0.012384","0.018555","0.017224","0.000316","0.007343","0.0155692","0.002913"
"0.013173","0.019135","0.017903","0.000316","0.008008","0.0154762","0.002724"
"0.013581","0.019445","0.018493","0.000316","0.008576","0.0154322","0.002464"
"0.013898","0.019284","0.017833","0.000316","0.008906","0.0154305","0.002414"
"0.013759","0.018957","0.016685","0.000316","0.009177","0.0154678","0.002541"
"0.013617","0.018601","0.015776","0.000112","0.009541","0.0154655","0.002697"
"0.013146","0.018273","0.014537","0.000492","0.010177","0.0152751","0.002849"
"0.012661","0.017144","0.014128","0.000763","0.010874","0.0150831","0.002798"
"0.011914","0.016339","0.013391","0.001406","0.011373","0.0149831","0.002698"
"0.011018","0.015122","0.012670","0.001406","0.011105","0.0151358","0.002703"
"0.010125","0.014079","0.011597","0.001406","0.010717","0.0154230","0.002835"
"0.009476","0.013555","0.010312","0.001294","0.010372","0.0154895","0.003022"
"0.008958","0.012854","0.009675","0.001294","0.010502","0.0152694","0.003260"
"0.008540","0.012415","0.009330","0.001294","0.010884","0.0149984","0.003391"
"0.008230","0.011796","0.009253","0.001294","0.010994","0.0147751","0.003504"
"0.007745","0.011162","0.008455","0.001294","0.011021","0.0148696","0.003524"
"0.007071","0.010186","0.007506","0.001310","0.011033","0.0149116","0.003651"
"0.006401","0.009395","0.006736","0.001807","0.010733","0.0148719","0.003839"
"0.005596","0.008881","0.006413","0.002473","0.010647","0.0147964","0.004013"
"0.005208","0.008238","0.006580","0.003144","0.010586","0.0146940","0.004020"
"0.004942","0.007922","0.006355","0.003708","0.010514","0.0147347","0.003991"
"0.004803","0.007172","0.006371","0.004117","0.010202","0.0148608","0.003884"
"0.004835","0.006484","0.006037","0.004073","0.010304","0.0149684","0.003820"
"0.004713","0.005744","0.005803","0.004115","0.010241","0.0151143","0.003878"
"0.004143","0.005245","0.005619","0.004815","0.010463","0.0151500","0.003952"
"0.004008","0.004888","0.005325","0.004815","0.010713","0.0151396","0.003997"
"0.003983","0.004486","0.005103","0.004815","0.010769","0.0152150","0.003998"
"0.003972","0.004866","0.004937","0.004815","0.010841","0.0152904","0.003843"
"0.003940","0.005385","0.005024","0.004815","0.010941","0.0151957","0.003792"
"0.003702","0.005989","0.005378","0.006798","0.010617","0.0150514","0.003721"
"0.004467","0.006000","0.006511","0.008397","0.010344","0.0147205","0.003639"
"0.006103","0.006093","0.007809","0.011177","0.009732","0.0143422","0.003599"
"0.010824","0.006229","0.009746","0.012191","0.009950","0.0137936","0.003400"
"0.014948","0.007166","0.011584","0.013594","0.010351","0.0132848","0.003117"
"0.020562","0.008424","0.014473","0.013469","0.011110","0.0126532","0.002744"
"0.025677","0.009887","0.018233","0.012933","0.011396","0.0120805","0.002422"
"0.033139","0.011764","0.021224","0.012842","0.011655","0.0114244","0.002464"
"0.041479","0.012866","0.024767","0.012829","0.011403","0.0107346","0.002466"
"0.055873","0.014235","0.027543","0.013421","0.010987","0.0098507","0.002719"
"0.071025","0.016443","0.030802","0.013860","0.010575","0.0088846","0.003047"
"0.085365","0.018643","0.034104","0.014951","0.010283","0.0079407","0.003356"
"0.100629","0.020360","0.037560","0.015703","0.010371","0.0069699","0.003639"
"0.115396","0.021380","0.041748","0.016825","0.010282","0.0060260","0.004070"
"0.133018","0.021993","0.044997","0.018092","0.009859","0.0052435","0.004699"
"0.152029","0.022515","0.047499","0.017945","0.009596","0.0044518","0.005806"
"0.169853","0.023656","0.049511","0.018739","0.009148","0.0037828","0.007240"
"0.186885","0.024930","0.051086","0.018475","0.009102","0.0031613","0.008776"
"0.199611","0.026103","0.052165","0.019968","0.008807","0.0027180","0.010646"
"0.211662","0.027715","0.053605","0.020860","0.008493","0.0022592","0.013382"
"0.220900","0.028841","0.054352","0.022860","0.007963","0.0019880","0.016709"
"0.228082","0.029809","0.054342","0.024643","0.007861","0.0018107","0.020457"
"0.230886","0.030395","0.054307","0.027689","0.007691","0.0017544","0.024297"
"0.231894","0.031000","0.053263","0.030989","0.007638","0.0016929","0.028705"
"0.226742","0.031402","0.052505","0.033264","0.007860","0.0017664","0.033162"
"0.220584","0.030988","0.050794","0.036306","0.008092","0.0018767","0.037481"
"0.213602","0.030688","0.049224","0.039367","0.008211","0.0019824","0.041542"
"0.201936","0.030725","0.048185","0.042684","0.008186","0.0022378","0.045485"
"0.189576","0.030730","0.046487","0.045529","0.008390","0.0024975","0.049426"
"0.174912","0.030916","0.045226","0.048674","0.008636","0.0027890","0.053366"
"0.159185","0.031185","0.044364","0.051059","0.008964","0.0031062","0.057251"
"0.143600","0.031084","0.042790","0.052274","0.009177","0.0035415","0.060818"
"0.127270","0.030437","0.040987","0.054109","0.009324","0.0040019","0.063736"
"0.112286","0.029612","0.038730","0.055700","0.009492","0.0044291","0.065795"
"0.099117","0.027525","0.035967","0.057192","0.009568","0.0048767","0.066431"
"0.088216","0.025538","0.032349","0.059030","0.009688","0.0052802","0.066256"
"0.080580","0.023700","0.028335","0.064691","0.009487","0.0054579","0.065354"
"0.074627","0.022140","0.024905","0.067463","0.009637","0.0056434","0.064656"
"0.068769","0.021462","0.022184","0.069842","0.009889","0.0057917","0.063986"
"0.063650","0.020671","0.019882","0.073995","0.010014","0.0058857","0.063510"
"0.058602","0.019853","0.018130","0.078966","0.009997","0.0059557","0.063432"
"0.054325","0.018979","0.016497","0.083916","0.009895","0.0060095","0.063488"
"0.053567","0.017838","0.014120","0.087383","0.009973","0.0059857","0.063558"
"0.054010","0.016766","0.011636","0.091469","0.009900","0.0059718","0.063407"
"0.053837","0.015655","0.009324","0.095924","0.009832","0.0059896","0.062731"
"0.053322","0.014410","0.006971","0.101011","0.009708","0.0060925","0.061744"
"0.051997","0.013484","0.005296","0.107883","0.009616","0.0060972","0.061218"
"0.051013","0.013015","0.004171","0.113603","0.009648","0.0060341","0.061462"
"0.049705","0.012639","0.003229","0.116925","0.009757","0.0060497","0.062514"
"0.047787","0.012290","0.002524","0.118916","0.009990","0.0060793","0.063813"
"0.045135","0.012058","0.002012","0.123153","0.009702","0.0060892","0.064789"
"0.041526","0.011698","0.001776","0.125229","0.009564","0.0062210","0.065624"
"0.038385","0.011385","0.001431","0.125533","0.009561","0.0063241","0.065473"
"0.035818","0.010965","0.001046","0.126154","0.009449","0.0064311","0.064232"
"0.032899","0.010570","0.000757","0.125338","0.009473","0.0065708","0.062130"
"0.030144","0.010181","0.000637","0.122927","0.009685","0.0067078","0.059282"
"0.027828","0.009675","0.000454","0.119970","0.010052","0.0068270","0.056387"
"0.025739","0.009281","0.000313","0.118233","0.010367","0.0068787","0.053601"
"0.023631","0.008932","0.000179","0.116137","0.010674","0.0069494","0.050565"
"0.021267","0.008582","0.000107","0.114127","0.010703","0.0071112","0.047330"
"0.018999","0.008365","0.000133","0.111859","0.010664","0.0072742","0.043939"
"0.017499","0.008305","0.000213","0.107902","0.010826","0.0074265","0.040039"
"0.016227","0.008502","0.000337","0.102816","0.011046","0.0076536","0.035869"
"0.014911","0.008876","0.000594","0.097860","0.011382","0.0078875","0.031330"
"0.013822","0.009402","0.000846","0.093474","0.012036","0.0080248","0.027090"
"0.012524","0.009897","0.001109","0.087191","0.013107","0.0082254","0.023386"
"0.011389","0.010477","0.001358","0.080911","0.014294","0.0083804","0.020086"
"0.010217","0.010886","0.001607","0.077477","0.015239","0.0085546","0.017530"
"0.008942","0.011261","0.001882","0.074199","0.016287","0.0087015","0.015759"
"0.007695","0.011750","0.002168","0.070539","0.017245","0.0088454","0.014484"
"0.006471","0.012285","0.002433","0.067119","0.018082","0.0090087","0.013545"
"0.005321","0.012886","0.002723","0.064387","0.018830","0.0091238","0.012729"
"0.004142","0.013556","0.003035","0.061986","0.019544","0.0092466","0.011922"
"0.002965","0.014254","0.003329","0.059378","0.020405","0.0093302","0.011464"
"0.002138","0.014628","0.003618","0.055330","0.022072","0.0092504","0.011504"
"0.001353","0.015042","0.003900","0.050976","0.023978","0.0091192","0.011704"
"0.000644","0.014938","0.004121","0.047017","0.025581","0.0090611","0.012029"
"0.000029","0.014553","0.004280","0.044546","0.026781","0.0090301","0.012395"
"0.000000","0.013995","0.004307","0.043369","0.027579","0.0089297","0.013002"
"0.000000","0.013410","0.004327","0.042203","0.028123","0.0088537","0.013513"
"0.000000","0.012958","0.004404","0.040794","0.028749","0.0086983","0.013774"
"0.000000","0.012514","0.004492","0.038666","0.029350","0.0085714","0.013807"
"0.000000","0.012094","0.004586","0.036459","0.030226","0.0083955","0.013480"
"0.000000","0.011674","0.004722","0.034257","0.031202","0.0082624","0.012900"
"0.000139","0.011220","0.004796","0.031780","0.032423","0.0081663","0.012207"
"0.000512","0.010686","0.004814","0.028804","0.033711","0.0080808","0.011478"
"0.000832","0.010135","0.004821","0.025842","0.034855","0.0080590","0.010732"
"0.000939","0.009491","0.004809","0.023136","0.035395","0.0081745","0.010028"
"0.001105","0.008763","0.004798","0.020312","0.035683","0.0082907","0.009315"
"0.001348","0.008461","0.004734","0.017860","0.035332","0.0084797","0.008657"
"0.001632","0.008212","0.004701","0.015455","0.034875","0.0087004","0.007950"
"0.002044","0.008298","0.004649","0.013008","0.034699","0.0088560","0.007179"
"0.002540","0.008453","0.004601","0.010478","0.034544","0.0089798","0.006394"
"0.003052","0.008664","0.004540","0.008696","0.034328","0.0091509","0.005506"
"0.003575","0.008846","0.004487","0.007804","0.034023","0.0093442","0.004650"
"0.004061","0.008846","0.004377","0.006874","0.033127","0.0097096","0.004258"
"0.004484","0.008800","0.004245","0.005736","0.032073","0.0100884","0.004259"
"0.004788","0.008735","0.004151","0.004553","0.030589","0.0104985","0.004592"
"0.004988","0.008698","0.004011","0.003519","0.028789","0.0109253","0.005219"
"0.004995","0.008579","0.003948","0.002768","0.026914","0.0113161","0.006016"
"0.004766","0.008552","0.003983","0.002424","0.025319","0.0116531","0.006890"
"0.004574","0.008698","0.004008","0.001974","0.023955","0.0119680","0.007797"
"0.004586","0.008984","0.004021","0.001281","0.023183","0.0121593","0.008693"
"0.004554","0.009240","0.004003","0.000756","0.022505","0.0124430","0.009587"
"0.004427","0.009397","0.004014","0.000400","0.021801","0.0127624","0.010459"
"0.004230","0.009435","0.004012","0.000119","0.021130","0.0130575","0.011369"
"0.003902","0.009374","0.004022","0.000000","0.020375","0.0133768","0.012316"
"0.003519","0.009351","0.004031","0.000000","0.019868","0.0136612","0.013199"
"0.003095","0.009414","0.004074","0.000000","0.019607","0.0138644","0.014107"
"0.002704","0.009606","0.004084","0.000000","0.019529","0.0139629","0.015049"
"0.002533","0.009874","0.004066","0.000000","0.020710","0.0138032","0.015472"
"0.002369","0.009846","0.004094","0.000000","0.021972","0.0135351","0.015967"
"0.002363","0.009790","0.004044","0.000000","0.023276","0.0132013","0.016250"
"0.002609","0.009492","0.003916","0.000000","0.023938","0.0130709","0.015915"
"0.003045","0.009261","0.003743","0.000000","0.025115","0.0129042","0.015032"
"0.003514","0.008991","0.003568","0.000000","0.026002","0.0128441","0.014138"
"0.003839","0.008576","0.003351","0.000000","0.026812","0.0127929","0.013611"
"0.004056","0.008136","0.003189","0.000000","0.027255","0.0127172","0.013185"
"0.004210","0.007728","0.003032","0.000000","0.027433","0.0126245","0.012748"
"0.004398","0.007593","0.002898","0.000210","0.027483","0.0125202","0.011770"
"0.004561","0.007433","0.002787","0.000560","0.027506","0.0124935","0.010755"
"0.004555","0.007393","0.002780","0.001242","0.027899","0.0123171","0.009660"
"0.004728","0.007863","0.002726","0.001611","0.029115","0.0120402","0.008642"
"0.005012","0.008572","0.002659","0.001881","0.030207","0.0117873","0.007682"
"0.004973","0.009345","0.002679","0.002665","0.030630","0.0117015","0.006630"
"0.004658","0.009630","0.002782","0.003597","0.029949","0.0117060","0.006020"
"0.004400","0.009768","0.002803","0.004388","0.028473","0.0119498","0.005323"
"0.004102","0.010045","0.002852","0.005220","0.027429","0.0122343","0.004608"
"0.003657","0.010458","0.002952","0.006091","0.027551","0.0122435","0.004258"
"0.003074","0.010541","0.003004","0.006909","0.026934","0.0123468","0.004274"
"0.002462","0.010649","0.003061","0.007729","0.026227","0.0123625","0.004276"
"0.002016","0.010637","0.003186","0.008572","0.025478","0.0123478","0.003809"
"0.001815","0.010639","0.003269","0.009237","0.025193","0.0122800","0.003280"
"0.001693","0.010742","0.003384","0.009835","0.025214","0.0121253","0.002836"
"0.001804","0.010607","0.003412","0.009764","0.025011","0.0120593","0.002963"
"0.001857","0.010476","0.003433","0.009690","0.024468","0.0119996","0.003115"
"0.002213","0.010182","0.003349","0.009008","0.023606","0.0120607","0.003343"
"0.002318","0.009167","0.003307","0.008639","0.021679","0.0122621","0.003675"
"0.002275","0.007873","0.003286","0.008582","0.020525","0.0123140","0.003886"
"0.002569","0.006614","0.003126","0.007799","0.019722","0.0123613","0.004363"
"0.002712","0.006040","0.003019","0.007263","0.019209","0.0124834","0.004811"
"0.002712","0.005875","0.003019","0.007050","0.018960","0.0125272","0.005115"
"0.002712","0.005522","0.003069","0.006891","0.018444","0.0126220","0.005273"
"0.002988","0.005070","0.002988","0.006307","0.017578","0.0127904","0.005323"
"0.003344","0.004894","0.002976","0.005634","0.016842","0.0129680","0.005351"
"0.003778","0.004703","0.002865","0.004837","0.016172","0.0131447","0.005417"
"0.003831","0.004636","0.002825","0.004575","0.015190","0.0133389","0.005591"
"0.003697","0.004939","0.002767","0.004571","0.014044","0.0135846","0.005693"
"0.003774","0.005289","0.002658","0.004152","0.012888","0.0138613","0.005833"
"0.003649","0.005607","0.002617","0.004052","0.012151","0.0140100","0.006007"
"0.003602","0.005689","0.002489","0.003906","0.011788","0.0141238","0.006132"
"0.003460","0.005625","0.002407","0.003908","0.011502","0.0142048","0.006201"
"0.003397","0.005749","0.002271","0.003908","0.011570","0.0142939","0.006149"
"0.003320","0.005855","0.002106","0.003873","0.010799","0.0146272","0.006135"
"0.003314","0.005872","0.002004","0.003873","0.010026","0.0149243","0.006015"
"0.003612","0.005707","0.001813","0.003476","0.009151","0.0152325","0.005918"
"0.003741","0.005591","0.001710","0.003367","0.008834","0.0153924","0.005853"
"0.004114","0.005453","0.001539","0.002694","0.008428","0.0155587","0.005929"
"0.004250","0.005657","0.001698","0.002406","0.007878","0.0156891","0.006040"
"0.004335","0.006157","0.001901","0.002262","0.007392","0.0157629","0.006061"
"0.004466","0.006543","0.002112","0.002238","0.007034","0.0158195","0.006016"
"0.005420","0.007104","0.001994","0.001657","0.007527","0.0156883","0.006137"
"0.005713","0.006978","0.002140","0.004004","0.007804","0.0154734","0.006133"
"0.006724","0.007049","0.002737","0.005263","0.008159","0.0152158","0.006013"
"0.007200","0.007608","0.003722","0.006928","0.008609","0.0149321","0.005621"
"0.007446","0.008552","0.005079","0.007544","0.008886","0.0147272","0.005302"
"0.007811","0.009563","0.005866","0.007542","0.009229","0.0145759","0.005105"
"0.008387","0.010384","0.006817","0.007542","0.009021","0.0144592","0.004972"
"0.009506","0.011317","0.008019","0.007363","0.008846","0.0142247","0.004812"
"0.010416","0.013048","0.009189","0.007447","0.008607","0.0139765","0.004610"
"0.011148","0.014982","0.010257","0.007654","0.008680","0.0137109","0.004367"
"0.011273","0.016733","0.010463","0.007517","0.008763","0.0135862","0.004231"
"0.010928","0.018205","0.010717","0.008141","0.008718","0.0133810","0.004155"
"0.011106","0.019349","0.010829","0.008186","0.008609","0.0132308","0.004238"
"0.011225","0.019802","0.011055","0.008387","0.008472","0.0130923","0.004367"
"0.011347","0.020354","0.011416","0.008387","0.008429","0.0130321","0.004526"
"0.010935","0.019891","0.011767","0.008387","0.008057","0.0132490","0.004633"
"0.011331","0.019578","0.011636","0.005379","0.008265","0.0134689","0.004882"
"0.010784","0.018893","0.010995","0.003942","0.008394","0.0137268","0.005163"
"0.010455","0.017856","0.010346","0.004172","0.008271","0.0137939","0.005358"
"0.011090","0.016781","0.009198","0.003470","0.008293","0.0137993","0.005643"
"0.011322","0.015928","0.008649","0.003982","0.008440","0.0137873","0.005746"
"0.010419","0.014983","0.007927","0.004967","0.008895","0.0142790","0.005544"
"0.009047","0.013854","0.006738","0.005989","0.009392","0.0148721","0.005302"
"0.007756","0.011853","0.005555","0.006973","0.009737","0.0155633","0.005109"
"0.006582","0.009684","0.004491","0.007823","0.009652","0.0160896","0.004931"
"0.006752","0.007770","0.004309","0.007492","0.009867","0.0160570","0.004921"
"0.007033","0.006099","0.004246","0.007033","0.010281","0.0160413","0.004824"
"0.006638","0.004602","0.004141","0.007492","0.010772","0.0160556","0.004562"
"0.006557","0.003601","0.003704","0.007301","0.011140","0.0161586","0.004536"
"0.006057","0.002889","0.003149","0.007966","0.011849","0.0161616","0.004414"
"0.005690","0.003007","0.002781","0.008409","0.012293","0.0160370","0.004247"
"0.005082","0.003359","0.003320","0.009160","0.012373","0.0158610","0.003885"
"0.004881","0.003527","0.004421","0.009299","0.012078","0.0157107","0.003456"
"0.005155","0.003640","0.005137","0.007883","0.011957","0.0157340","0.003341"
"0.004811","0.003669","0.006463","0.008211","0.011989","0.0156448","0.003080"
"0.004231","0.003727","0.006957","0.008831","0.011969","0.0155204","0.002992"
"0.004307","0.003826","0.007503","0.008732","0.011930","0.0149499","0.003129"
"0.004402","0.004547","0.007884","0.008420","0.011688","0.0144358","0.003353"
"0.004665","0.005400","0.008130","0.008204","0.011955","0.0137459","0.003639"
"0.005194","0.006309","0.008237","0.007465","0.012440","0.0132267","0.003977"
"0.005237","0.006477","0.008237","0.007856","0.012742","0.0131474","0.004020"
"0.005202","0.006558","0.008420","0.008068","0.012737","0.0131123","0.004010"
"0.005613","0.006777","0.008732","0.008083","0.012719","0.0129532","0.004038"
"0.006397","0.006947","0.009626","0.009610","0.012891","0.0125638","0.003889"
"0.010121","0.007408","0.011385","0.008945","0.012709","0.0120826","0.003784"
"0.015494","0.008050","0.013390","0.009140","0.013033","0.0114476","0.003508"
"0.021815","0.008567","0.014983","0.008688","0.013406","0.0111129","0.003422"
"0.027053","0.009224","0.015048","0.011409","0.014004","0.0109873","0.003772"
"0.036965","0.009435","0.015206","0.013410","0.014573","0.0108660","0.005645"
"0.046244","0.009562","0.014965","0.014589","0.014920","0.0108945","0.008034"
"0.055377","0.009612","0.015404","0.015194","0.015062","0.0109463","0.010392"
"0.065457","0.009819","0.015764","0.016042","0.015494","0.0107718","0.012854"
"0.076587","0.009314","0.016343","0.019012","0.015982","0.0103634","0.015539"
"0.088541","0.008631","0.017084","0.022389","0.016206","0.0099547","0.018682"
"0.100151","0.007824","0.018460","0.024812","0.016601","0.0095617","0.021959"
"0.110999","0.007509","0.020499","0.026730","0.016894","0.0092164","0.025327"
"0.121911","0.007551","0.022014","0.029259","0.017221","0.0088578","0.028646"
"0.131932","0.007587","0.023530","0.032378","0.017582","0.0084502","0.032351"
"0.140446","0.007638","0.024817","0.035861","0.017768","0.0082246","0.036183"
"0.144843","0.007009","0.025737","0.041697","0.017746","0.0084080","0.040187"
"0.145143","0.006412","0.026940","0.046574","0.017294","0.0089049","0.043981"
"0.142021","0.006101","0.027559","0.053309","0.016560","0.0093571","0.047537"
"0.139342","0.005754","0.029133","0.057160","0.015934","0.0095694","0.050617"
"0.131567","0.005803","0.030508","0.061463","0.015298","0.0098700","0.052178"
"0.123983","0.005978","0.032060","0.067375","0.014487","0.0100918","0.053679"
"0.116223","0.006223","0.033774","0.072927","0.013688","0.0103625","0.055073"
"0.106802","0.006446","0.035872","0.076441","0.012830","0.0108149","0.055917"
"0.096372","0.006724","0.037725","0.077857","0.012109","0.0113280","0.056432"
"0.084782","0.006943","0.039070","0.079559","0.011361","0.0118888","0.056148"
"0.073815","0.007168","0.039601","0.083981","0.010432","0.0123905","0.055638"
"0.065194","0.007437","0.038974","0.089099","0.009434","0.0128720","0.055197"
"0.058262","0.007683","0.038100","0.092995","0.008602","0.0133813","0.054970"
"0.052043","0.007867","0.037010","0.094722","0.007925","0.0136872","0.055652"
"0.046479","0.007981","0.035622","0.094692","0.007443","0.0138019","0.056810"
"0.042926","0.008251","0.033401","0.092898","0.007170","0.0136447","0.057744"
"0.041890","0.008462","0.030346","0.091136","0.007053","0.0133706","0.058792"
"0.043273","0.008370","0.027628","0.088232","0.007157","0.0130149","0.059787"
"0.044541","0.008421","0.025052","0.085765","0.007320","0.0126325","0.060665"
"0.045232","0.008533","0.022574","0.083543","0.007588","0.0122490","0.061220"
"0.045863","0.008732","0.019803","0.081266","0.008146","0.0118018","0.061550"
"0.046752","0.008989","0.016832","0.080005","0.008835","0.0112597","0.062231"
"0.047468","0.009254","0.013744","0.081314","0.009570","0.0106585","0.063574"
"0.047391","0.009484","0.011191","0.082454","0.010474","0.0100674","0.065200"
"0.047452","0.009714","0.009061","0.079112","0.011772","0.0095436","0.067284"
"0.046789","0.009962","0.007288","0.072373","0.013374","0.0090156","0.068967"
"0.044393","0.010395","0.006006","0.066115","0.014950","0.0085297","0.069159"
"0.040267","0.010709","0.005193","0.061017","0.016299","0.0080626","0.068643"
"0.036013","0.010876","0.004475","0.058443","0.017504","0.0078459","0.066545"
"0.031842","0.010967","0.003906","0.057084","0.018633","0.0077330","0.063830"
"0.027113","0.010972","0.003761","0.057155","0.019882","0.0075564","0.061322"
"0.022239","0.010924","0.004028","0.057628","0.021622","0.0072008","0.059073"
"0.017577","0.010979","0.004325","0.057335","0.023709","0.0067865","0.056962"
"0.013244","0.011020","0.004602","0.057470","0.025723","0.0063994","0.054726"
"0.009704","0.010937","0.004908","0.058213","0.027479","0.0059878","0.052671"
"0.006584","0.010735","0.005292","0.058526","0.029332","0.0055942","0.050344"
"0.004014","0.010443","0.005822","0.058000","0.031313","0.0052143","0.047680"
"0.002564","0.010253","0.006181","0.057045","0.033190","0.0048117","0.044681"
"0.001891","0.010123","0.006383","0.056456","0.035023","0.0044697","0.041362"
"0.001337","0.010032","0.006652","0.059432","0.036568","0.0040764","0.037801"
"0.000913","0.009899","0.006858","0.064757","0.037877","0.0037482","0.034648"
"0.000658","0.009698","0.007006","0.068482","0.039351","0.0034610","0.032734"
"0.000537","0.009740","0.007179","0.071495","0.041400","0.0030984","0.031327"
"0.000387","0.010151","0.007348","0.072624","0.043499","0.0028394","0.030108"
"0.000389","0.010762","0.007506","0.073547","0.045152","0.0027072","0.028632"
"0.000487","0.011529","0.007573","0.074027","0.046154","0.0027675","0.027216"
"0.000888","0.012144","0.007456","0.073521","0.046440","0.0030759","0.025946"
"0.001094","0.012708","0.007317","0.071936","0.046720","0.0034948","0.024849"
"0.001244","0.013274","0.007200","0.069527","0.046983","0.0039781","0.023826"
"0.001612","0.013862","0.006973","0.065781","0.047414","0.0045517","0.022530"
"0.002000","0.014500","0.006828","0.061802","0.047901","0.0051105","0.021243"
"0.002299","0.015270","0.006744","0.057783","0.048540","0.0055664","0.020120"
"0.002519","0.015974","0.006701","0.053816","0.049232","0.0059611","0.019120"
"0.002747","0.016656","0.006675","0.049690","0.049893","0.0063144","0.018197"
"0.002850","0.017374","0.006660","0.045700","0.050438","0.0066693","0.017307"
"0.003002","0.018110","0.006660","0.041581","0.050767","0.0070019","0.016444"
"0.003312","0.018402","0.006593","0.038700","0.050608","0.0073559","0.015740"
"0.003776","0.018298","0.006369","0.036408","0.049873","0.0077699","0.015197"
"0.004037","0.017698","0.006188","0.035083","0.049193","0.0080940","0.014581"
"0.004349","0.017025","0.006000","0.032981","0.049286","0.0082208","0.014002"
"0.004894","0.016172","0.005808","0.030273","0.050001","0.0082086","0.013224"
"0.005562","0.015410","0.005620","0.027736","0.050836","0.0080999","0.012179"
"0.006102","0.014642","0.005478","0.027224","0.051000","0.0079503","0.011091"
"0.006232","0.013928","0.005426","0.027727","0.050694","0.0077580","0.010266"
"0.006023","0.013073","0.005420","0.028812","0.049854","0.0076291","0.009786"
"0.006003","0.012190","0.005288","0.029442","0.048461","0.0076090","0.009560"
"0.005863","0.011159","0.005151","0.030296","0.046523","0.0077396","0.009433"
"0.005872","0.010159","0.004974","0.031061","0.044530","0.0079016","0.009382"
"0.005930","0.009156","0.004815","0.031937","0.042702","0.0080542","0.009356"
"0.005981","0.008149","0.004646","0.032679","0.040928","0.0082148","0.009365"
"0.005947","0.007150","0.004503","0.032309","0.039501","0.0083669","0.009673"
"0.005773","0.006662","0.004455","0.030933","0.038702","0.0084206","0.010081"
"0.005662","0.006355","0.004456","0.028593","0.037879","0.0085035","0.010543"
"0.005587","0.006159","0.004398","0.026182","0.036416","0.0087163","0.011450"
"0.005238","0.005927","0.004406","0.024340","0.034592","0.0089801","0.012794"
"0.004590","0.005709","0.004489","0.023318","0.032501","0.0092300","0.014552"
"0.003599","0.005424","0.004663","0.022900","0.030473","0.0094931","0.016502"
"0.002881","0.005133","0.004808","0.022474","0.029056","0.0096874","0.018369"
"0.002620","0.004800","0.004856","0.022130","0.028341","0.0098253","0.020012"
"0.002461","0.004603","0.004914","0.022079","0.028236","0.0098165","0.021444"
"0.002093","0.004431","0.005018","0.022727","0.028455","0.0097293","0.022690"
"0.001933","0.004319","0.005066","0.022907","0.028808","0.0096266","0.023737"
"0.001705","0.004228","0.005132","0.022906","0.029046","0.0095136","0.024804"
"0.001373","0.004165","0.005176","0.022939","0.029072","0.0094406","0.025658"
"0.001241","0.004069","0.005153","0.022895","0.028961","0.0094435","0.026190"
"0.001432","0.003942","0.005012","0.023377","0.028581","0.0094873","0.026562"
"0.001674","0.003730","0.004856","0.024221","0.028051","0.0095373","0.027078"
"0.001625","0.003561","0.004799","0.025770","0.027961","0.0094573","0.027469"
"0.001700","0.003479","0.004758","0.027077","0.028574","0.0092859","0.027304"
"0.002027","0.003388","0.004621","0.027575","0.029389","0.0091523","0.026781"
"0.002145","0.003266","0.004446","0.026711","0.029986","0.0091828","0.025790"
"0.002067","0.003283","0.004377","0.026984","0.030670","0.0091217","0.024794"
"0.002039","0.003421","0.004236","0.027321","0.030788","0.0092177","0.023247"
"0.002020","0.003774","0.004186","0.027139","0.031301","0.0092379","0.021488"
"0.002020","0.004071","0.004168","0.025167","0.031454","0.0092969","0.020387"
"0.002020","0.004175","0.004139","0.022633","0.031252","0.0094397","0.019666"
"0.002020","0.004053","0.004039","0.020290","0.030832","0.0095647","0.019201"
"0.002020","0.003853","0.003933","0.018284","0.030623","0.0096725","0.018335"
"0.002230","0.003773","0.003823","0.016511","0.030634","0.0098074","0.017198"
"0.002932","0.003845","0.003616","0.014239","0.031104","0.0098779","0.015972"
"0.003335","0.004408","0.003502","0.012645","0.031530","0.0099875","0.014527"
"0.003402","0.005907","0.003517","0.011164","0.031372","0.0100032","0.012985"
"0.003370","0.007458","0.003522","0.009532","0.030606","0.0102071","0.011904"
"0.003278","0.008209","0.003464","0.008196","0.029875","0.0104600","0.011231"
"0.002945","0.008620","0.003449","0.007493","0.028577","0.0108018","0.010710"
"0.002804","0.009110","0.003468","0.008265","0.027593","0.0109375","0.009736"
"0.003212","0.009560","0.003287","0.007233","0.026099","0.0112269","0.008746"
"0.003284","0.011202","0.003235","0.006351","0.024967","0.0114134","0.008333"
"0.003284","0.012573","0.003147","0.005292","0.023377","0.0117094","0.008294"
"0.003284","0.013319","0.003083","0.005437","0.022094","0.0119410","0.007867"
"0.003397","0.013474","0.002986","0.005672","0.021163","0.0121621","0.007062"
"0.003622","0.013600","0.002953","0.005744","0.020544","0.0123782","0.006025"
"0.004038","0.013871","0.002893","0.005351","0.019953","0.0126388","0.005232"
"0.003828","0.013929","0.003029","0.004830","0.019394","0.0126483","0.005852"
"0.002971","0.013872","0.003295","0.004830","0.018871","0.0125559","0.007290"
"0.002172","0.013270","0.003523","0.004681","0.018569","0.0124127","0.008818"
"0.001856","0.011708","0.003503","0.005063","0.018260","0.0125848","0.008916"
"0.001576","0.010047","0.003621","0.005888","0.018524","0.0125722","0.008479"
"0.001404","0.009109","0.003838","0.006165","0.018530","0.0124674","0.008593"
"0.001404","0.008625","0.003989","0.005904","0.018950","0.0122911","0.009281"
"0.001471","0.008148","0.004028","0.005301","0.018867","0.0122566","0.010170"
"0.001063","0.008491","0.004141","0.005955","0.019156","0.0122239","0.010301"
"0.000991","0.007800","0.004188","0.005835","0.019110","0.0121852","0.010442"
"0.000991","0.007143","0.004152","0.005369","0.018694","0.0122055","0.010794"
"0.001147","0.007199","0.004084","0.004568","0.018313","0.0121854","0.011223"
"0.001034","0.008577","0.004200","0.004154","0.017775","0.0121497","0.012039"
"0.000809","0.010329","0.004436","0.004438","0.017086","0.0121843","0.012687"
"0.000719","0.011238","0.004602","0.004694","0.016492","0.0121886","0.013027"
"0.000889","0.011941","0.004517","0.005021","0.015646","0.0124062","0.012323"
"0.001058","0.012352","0.004343","0.005461","0.014419","0.0126832","0.011086"
"0.001058","0.013298","0.004223","0.006273","0.012923","0.0130190","0.009784"
"0.000887","0.013983","0.004277","0.006632","0.012106","0.0131027","0.009721"
"0.000887","0.014691","0.004204","0.006556","0.011122","0.0132306","0.009781"
"0.001186","0.015550","0.004034","0.006241","0.010302","0.0133557","0.009310"
"0.001344","0.016106","0.003859","0.006402","0.009401","0.0134643","0.008342"
"0.001278","0.017119","0.003840","0.006828","0.009219","0.0134497","0.007648"
"0.001278","0.017074","0.003908","0.006764","0.009332","0.0132766","0.007566"
"0.001298","0.016791","0.003974","0.006720","0.009840","0.0131734","0.007548"
"0.001652","0.015983","0.003945","0.006296","0.010361","0.0131792","0.007426"
"0.001881","0.015324","0.003872","0.006294","0.010611","0.0133742","0.007065"
"0.001924","0.014296","0.003773","0.006883","0.010919","0.0134532","0.006196"
"0.001924","0.013597","0.003481","0.007055","0.011109","0.0134925","0.005574"
"0.001932","0.014347","0.003186","0.006980","0.011391","0.0135142","0.005472"
"0.002107","0.015277","0.002944","0.006776","0.011512","0.0135489","0.005430"
"0.002165","0.015486","0.002866","0.006806","0.011695","0.0136761","0.005420"
"0.002179","0.014798","0.002807","0.006727","0.011869","0.0137812","0.005425"
"0.002179","0.014355","0.002736","0.006670","0.011908","0.0139124","0.005470"
"0.002179","0.014890","0.002677","0.006806","0.011773","0.0140324","0.005416"
"0.002059","0.015812","0.002617","0.007471","0.011569","0.0142279","0.005218"
"0.002491","0.016700","0.002500","0.007168","0.011599","0.0143642","0.005119"
"0.003015","0.016586","0.002287","0.006573","0.011320","0.0146628","0.005050"
"0.003453","0.016446","0.002095","0.005977","0.010715","0.0150123","0.005005"
"0.003814","0.016164","0.001858","0.005463","0.010218","0.0152633","0.004955"
"0.003877","0.016296","0.001767","0.005463","0.009978","0.0152899","0.004859"
"0.003531","0.016197","0.002011","0.006135","0.009583","0.0151273","0.004859"
"0.003933","0.016243","0.002321","0.005503","0.009219","0.0151439","0.004887"
"0.004425","0.015911","0.002717","0.004803","0.009070","0.0151627","0.004780"
"0.004594","0.015143","0.002844","0.004621","0.008667","0.0153008","0.004570"
"0.004284","0.014465","0.002997","0.005052","0.008252","0.0152457","0.004515"
"0.004058","0.014735","0.003036","0.005407","0.007743","0.0152248","0.004434"
"0.004178","0.015095","0.003308","0.005223","0.007573","0.0151388","0.004391"
"0.004392","0.015475","0.004038","0.004993","0.007722","0.0149908","0.004306"
"0.004941","0.015534","0.004586","0.004108","0.008661","0.0148638","0.004310"
"0.005182","0.014919","0.004892","0.003524","0.009506","0.0146469","0.004325"
"0.005109","0.014677","0.004916","0.003524","0.010207","0.0145028","0.004272"
"0.004837","0.014402","0.005234","0.003775","0.010510","0.0142777","0.004379"
"0.004759","0.014281","0.005501","0.003775","0.010918","0.0140672","0.004601"
"0.004608","0.013940","0.006283","0.004045","0.010663","0.0140759","0.004562"
"0.004190","0.013536","0.006989","0.004960","0.010395","0.0141065","0.004373"
"0.004683","0.013378","0.007152","0.004497","0.010902","0.0142241","0.004117"
"0.004679","0.013082","0.006672","0.004678","0.011648","0.0142163","0.004145"
"0.004616","0.012690","0.006117","0.004949","0.012641","0.0141749","0.004142"
"0.004125","0.012095","0.006082","0.005809","0.013027","0.0140768","0.004178"
"0.004168","0.011727","0.006239","0.005851","0.013596","0.0141377","0.004102"
"0.004168","0.011366","0.006617","0.005738","0.014486","0.0139811","0.004289"
"0.004034","0.011184","0.007064","0.006609","0.015385","0.0136680","0.004342"
"0.004037","0.010795","0.007121","0.007959","0.015797","0.0134111","0.004295"
"0.004554","0.009851","0.007074","0.008204","0.015089","0.0131951","0.004344"
"0.004620","0.009071","0.007011","0.008168","0.014337","0.0133111","0.004341"
"0.004659","0.008115","0.007154","0.008197","0.013616","0.0135411","0.004222"
"0.005018","0.007524","0.006852","0.007946","0.013692","0.0139346","0.003909"
"0.004834","0.007047","0.006539","0.008559","0.013630","0.0141580","0.003566"
"0.004604","0.007019","0.005742","0.008977","0.013666","0.0141422","0.003457"
"0.004604","0.007806","0.005437","0.008684","0.013608","0.0140282","0.003557"
"0.004637","0.008553","0.005769","0.009213","0.013197","0.0138665","0.003708"
"0.006492","0.008980","0.007367","0.009336","0.013039","0.0135486","0.003628"
"0.009311","0.009562","0.008931","0.011664","0.012487","0.0132244","0.003585"
"0.012990","0.009986","0.010485","0.013119","0.012397","0.0128673","0.003478"
"0.017410","0.009936","0.012417","0.014282","0.012337","0.0124285","0.003306"
"0.022598","0.010179","0.015671","0.013801","0.012188","0.0120121","0.002960"
"0.027487","0.010923","0.019996","0.012379","0.011825","0.0117220","0.002679"
"0.034316","0.012903","0.025021","0.010577","0.011502","0.0113312","0.002500"
"0.040530","0.015796","0.031021","0.010331","0.011466","0.0109302","0.002199"
"0.045857","0.018790","0.036901","0.010168","0.011125","0.0104962","0.002197"
"0.050334","0.021952","0.043148","0.010274","0.010778","0.0099794","0.002591"
"0.054553","0.026132","0.050162","0.010274","0.010147","0.0092135","0.003358"
"0.059005","0.030493","0.056758","0.009680","0.009564","0.0087282","0.004216"
"0.063625","0.034592","0.063960","0.009124","0.009293","0.0082946","0.005025"
"0.068691","0.037930","0.070532","0.008851","0.009231","0.0080016","0.005703"
"0.073811","0.040735","0.075792","0.008799","0.009231","0.0076431","0.006542"
"0.077405","0.043142","0.079221","0.009462","0.008894","0.0074570","0.007741"
"0.082204","0.046655","0.085279","0.007455","0.008573","0.0071971","0.008783"
"0.087301","0.051231","0.093306","0.005139","0.008242","0.0069211","0.009388"
"0.091493","0.056529","0.100456","0.003244","0.007678","0.0068237","0.009740"
"0.096348","0.060682","0.105062","0.003014","0.007062","0.0067030","0.010075"
"0.103599","0.064515","0.106698","0.003014","0.006720","0.0064108","0.010987"
"0.108973","0.067475","0.107156","0.003014","0.006461","0.0062010","0.013023"
"0.115399","0.069305","0.105984","0.003014","0.006426","0.0059829","0.015664"
"0.121580","0.070894","0.105970","0.003014","0.006825","0.0055886","0.018537"
"0.125310","0.071500","0.105088","0.002878","0.007180","0.0052931","0.022428"
"0.126721","0.069983","0.100932","0.005263","0.007409","0.0050776","0.026726"
"0.128403","0.066762","0.095556","0.010017","0.007664","0.0046544","0.032135"
"0.130207","0.063530","0.089042","0.015423","0.007947","0.0042329","0.038280"
"0.129187","0.060291","0.083275","0.020341","0.007991","0.0039901","0.044519"
"0.126493","0.057414","0.079143","0.025068","0.007928","0.0038363","0.051222"
"0.122667","0.055006","0.076273","0.029612","0.007783","0.0038207","0.057443"
"0.117397","0.051195","0.070360","0.034801","0.007673","0.0038892","0.064151"
"0.112150","0.046362","0.064452","0.040910","0.007468","0.0038255","0.071266"
"0.108575","0.040855","0.059332","0.045749","0.007594","0.0036685","0.077196"
"0.102674","0.036145","0.055535","0.051782","0.007425","0.0036972","0.082894"
"0.094540","0.031682","0.053360","0.053398","0.007456","0.0040113","0.087442"
"0.085107","0.027277","0.051924","0.056773","0.007311","0.0043689","0.091070"
"0.074977","0.023076","0.050828","0.060020","0.007153","0.0047234","0.093747"
"0.066773","0.019072","0.048641","0.062496","0.006939","0.0050592","0.095951"
"0.061564","0.015961","0.047116","0.064671","0.006675","0.0052676","0.096442"
"0.057387","0.014251","0.047563","0.064438","0.006468","0.0055894","0.095895"
"0.053745","0.014232","0.046849","0.063812","0.006476","0.0059970","0.094348"
"0.051249","0.014416","0.046307","0.062306","0.006528","0.0063348","0.092582"
"0.051336","0.014613","0.045169","0.060963","0.006705","0.0065015","0.090709"
"0.052627","0.014568","0.043163","0.060592","0.006731","0.0066778","0.088286"
"0.054661","0.014638","0.040932","0.061466","0.006593","0.0067089","0.086220"
"0.056225","0.015026","0.039213","0.064143","0.006305","0.0067019","0.083431"
"0.057152","0.015856","0.035378","0.067055","0.006097","0.0068278","0.080212"
"0.056516","0.017131","0.031119","0.069216","0.005965","0.0069401","0.078215"
"0.056832","0.018482","0.026556","0.071021","0.005867","0.0069269","0.076033"
"0.056305","0.019533","0.021984","0.073128","0.005632","0.0070069","0.074763"
"0.055479","0.020500","0.016996","0.077829","0.005269","0.0070206","0.073201"
"0.054328","0.021358","0.012547","0.085544","0.004841","0.0069369","0.071998"
"0.052551","0.022048","0.008460","0.092737","0.004465","0.0069102","0.070591"
"0.050652","0.022505","0.004408","0.098848","0.004230","0.0069338","0.069290"
"0.050031","0.022326","0.001096","0.104551","0.004061","0.0068541","0.068099"
"0.048816","0.021462","0.000601","0.109067","0.003583","0.0067577","0.067258"
"0.046138","0.020504","0.000427","0.114264","0.002966","0.0067469","0.066082"
"0.043003","0.019773","0.000356","0.119494","0.002366","0.0067067","0.065115"
"0.040001","0.019376","0.000363","0.124659","0.001883","0.0066280","0.064083"
"0.036589","0.018841","0.000479","0.125518","0.001714","0.0067043","0.062972"
"0.032932","0.018161","0.000606","0.123218","0.001704","0.0068449","0.062820"
"0.029342","0.017000","0.000713","0.120379","0.001762","0.0070571","0.062504"
"0.025866","0.015641","0.000751","0.119915","0.001620","0.0072663","0.062338"
"0.022311","0.014371","0.000843","0.118719","0.001814","0.0075165","0.062249"
"0.019798","0.013118","0.000862","0.121483","0.001909","0.0075647","0.061763"
"0.018641","0.011638","0.000947","0.119761","0.002410","0.0076913","0.061308"
"0.017262","0.010169","0.001030","0.114075","0.002992","0.0079118","0.060956"
"0.016165","0.008747","0.001154","0.109123","0.003524","0.0080597","0.060296"
"0.014801","0.007544","0.001405","0.105801","0.004300","0.0081652","0.059076"
"0.013554","0.006957","0.001680","0.103830","0.005302","0.0081420","0.057699"
"0.012309","0.006915","0.001937","0.101774","0.006623","0.0080991","0.055773"
"0.011221","0.006983","0.002245","0.096934","0.008402","0.0080161","0.053855"
"0.010338","0.006920","0.002492","0.092553","0.010087","0.0079776","0.051733"
"0.009194","0.006914","0.002827","0.087878","0.012046","0.0079003","0.049274"
"0.008640","0.007126","0.003062","0.086811","0.014165","0.0076501","0.045780"
"0.007987","0.007399","0.003360","0.087262","0.016874","0.0073024","0.041528"
"0.007109","0.007831","0.003714","0.087418","0.019793","0.0068626","0.038156"
"0.006105","0.008227","0.004080","0.086943","0.022694","0.0064713","0.035017"
"0.005204","0.008500","0.004465","0.085463","0.025843","0.0060627","0.031966"
"0.004237","0.008885","0.004866","0.083929","0.029196","0.0056105","0.028721"
"0.003233","0.009318","0.005248","0.081906","0.032618","0.0051700","0.025504"
"0.002188","0.009645","0.005617","0.078780","0.036011","0.0047979","0.022223"
"0.001270","0.010048","0.005992","0.075967","0.039589","0.0043381","0.019479"
"0.000980","0.010381","0.006201","0.072707","0.042608","0.0038885","0.017623"
"0.000785","0.010503","0.006344","0.068605","0.045124","0.0036285","0.015991"
"0.001081","0.010609","0.006398","0.062920","0.047551","0.0033978","0.014068"
"0.001051","0.010724","0.006507","0.059257","0.049100","0.0033195","0.011954"
"0.001441","0.010790","0.006488","0.054484","0.050596","0.0033313","0.010017"
"0.001791","0.010732","0.006429","0.048952","0.051484","0.0035239","0.008446"
"0.002128","0.010611","0.006354","0.042733","0.051927","0.0037498","0.007838"
"0.002584","0.010450","0.006159","0.036123","0.051722","0.0041359","0.007422"
"0.003103","0.010165","0.005892","0.029785","0.051042","0.0047083","0.006734"
"0.003622","0.009958","0.005633","0.023724","0.050940","0.0051465","0.005861"
"0.003947","0.009756","0.005407","0.018561","0.050052","0.0056764","0.005738"
"0.004126","0.009377","0.005164","0.013609","0.048731","0.0062922","0.006289"
"0.004232","0.008913","0.004911","0.009403","0.047122","0.0069343","0.006920"
"0.004232","0.008626","0.004743","0.007541","0.045448","0.0074318","0.007535"
"0.004232","0.008325","0.004518","0.005811","0.043547","0.0080252","0.008286"
"0.004232","0.008041","0.004363","0.004261","0.041929","0.0085737","0.008906"
"0.004232","0.007841","0.004251","0.002586","0.040381","0.0090163","0.009733"
"0.003728","0.007517","0.004213","0.001769","0.038352","0.0095434","0.010828"
"0.003595","0.007119","0.004024","0.001118","0.036151","0.0101306","0.011830"
"0.003334","0.006838","0.003904","0.001150","0.034307","0.0105702","0.012229"
"0.003144","0.006695","0.003872","0.001189","0.033597","0.0106938","0.012670"
"0.002779","0.006466","0.003950","0.001610","0.033656","0.0106842","0.013064"
"0.002534","0.006271","0.003998","0.001791","0.033851","0.0106370","0.013374"
"0.002198","0.006899","0.004169","0.002281","0.034929","0.0103396","0.013593"
"0.002176","0.007372","0.004216","0.002507","0.034711","0.0103716","0.013422"
"0.001862","0.008016","0.004310","0.003534","0.034649","0.0103390","0.012827"
"0.001695","0.008721","0.004376","0.004700","0.034811","0.0103057","0.011856"
"0.001964","0.009269","0.004295","0.005119","0.034976","0.0103566","0.010822"
"0.002338","0.009586","0.004101","0.005469","0.034865","0.0106334","0.009725"
"0.003101","0.009721","0.003875","0.005296","0.035294","0.0107950","0.008499"
"0.003707","0.009734","0.003661","0.005284","0.035051","0.0110688","0.007305"
"0.004300","0.009761","0.003423","0.005177","0.034701","0.0113410","0.006198"
"0.004670","0.009918","0.003334","0.005234","0.034542","0.0113857","0.005111"
"0.004898","0.010061","0.003371","0.005267","0.034405","0.0112283","0.004390"
"0.004908","0.010013","0.003445","0.005444","0.034650","0.0110194","0.004048"
"0.004971","0.009988","0.003427","0.005507","0.034077","0.0110534","0.003728"
"0.005278","0.010016","0.003280","0.005159","0.032965","0.0112667","0.003345"
"0.005033","0.010041","0.003275","0.005742","0.031729","0.0114789","0.003069"
"0.004850","0.009248","0.003151","0.005916","0.030516","0.0117990","0.003059"
"0.004354","0.008400","0.003188","0.006234","0.030011","0.0118585","0.003598"
"0.004343","0.007314","0.003131","0.005733","0.029439","0.0119927","0.004176"
"0.004330","0.006339","0.003114","0.005280","0.028504","0.0120794","0.004454"
"0.004001","0.005606","0.003247","0.005383","0.027274","0.0121002","0.004719"
"0.003700","0.004992","0.003334","0.005470","0.026198","0.0120993","0.004991"
"0.002937","0.004635","0.003471","0.006362","0.024617","0.0121318","0.005218"
"0.002330","0.004638","0.003532","0.007204","0.023851","0.0120661","0.005392"
"0.001738","0.004678","0.003631","0.008049","0.023192","0.0120664","0.005468"
"0.001542","0.004842","0.003547","0.008357","0.022855","0.0122188","0.005463"
"0.001452","0.005491","0.003392","0.008562","0.022641","0.0124455","0.005321"
"0.001543","0.006314","0.003191","0.008352","0.021879","0.0127064","0.005366"
"0.001629","0.006920","0.003075","0.008251","0.020841","0.0129389","0.005323"
"0.001727","0.007190","0.003011","0.008178","0.019720","0.0131644","0.005226"
"0.002200","0.007096","0.002857","0.007590","0.018787","0.0133582","0.005099"
"0.002239","0.007057","0.002812","0.007822","0.017115","0.0134875","0.004830"
"0.002239","0.007082","0.002738","0.008183","0.015616","0.0136452","0.004518"
"0.002380","0.007063","0.002597","0.008285","0.014295","0.0138572","0.004107"
"0.002713","0.007088","0.002440","0.007866","0.013258","0.0140489","0.004070"
"0.002862","0.007246","0.002298","0.007522","0.012475","0.0142294","0.004290"
"0.003086","0.007728","0.002264","0.006871","0.011965","0.0142821","0.004530"
"0.003433","0.008323","0.002133","0.005980","0.011469","0.0144149","0.004840"
"0.003819","0.008890","0.002032","0.004995","0.010754","0.0145453","0.005072"
"0.004315","0.009353","0.001907","0.004150","0.010347","0.0146279","0.005117"
"0.004403","0.009460","0.001881","0.004105","0.009650","0.0146857","0.005166"
"0.004625","0.008903","0.001806","0.003951","0.009682","0.0146827","0.005108"
"0.004731","0.008293","0.001752","0.003951","0.009447","0.0147632","0.005011"
"0.004719","0.007658","0.001723","0.003951","0.009482","0.0148128","0.005010"
"0.004579","0.007328","0.001815","0.003976","0.009423","0.0148232","0.005092"
"0.004310","0.007193","0.002013","0.004155","0.009222","0.0148085","0.005150"
"0.004599","0.007001","0.002086","0.003400","0.009238","0.0148840","0.005165"
"0.004850","0.006762","0.002133","0.002719","0.009019","0.0149330","0.005271"
"0.005046","0.006819","0.002385","0.002091","0.008818","0.0148678","0.005396"
"0.005076","0.006744","0.002720","0.001797","0.008547","0.0149209","0.005433"
"0.005280","0.006633","0.003028","0.001494","0.008427","0.0149563","0.005199"
"0.005383","0.006750","0.003086","0.001417","0.008187","0.0151047","0.005030"
"0.005394","0.006771","0.003091","0.001417","0.007887","0.0151786","0.004923"
"0.005376","0.006627","0.003061","0.001417","0.007671","0.0153165","0.004954"
"0.005296","0.006178","0.003042","0.001417","0.007323","0.0154652","0.005069"
"0.005349","0.005739","0.003037","0.001175","0.007105","0.0156436","0.005023"
"0.005015","0.005430","0.003151","0.001706","0.006725","0.0157848","0.004884"
"0.004562","0.005235","0.003387","0.002440","0.006513","0.0158049","0.004752"
"0.004132","0.005067","0.003667","0.003240","0.006329","0.0157963","0.004499"
"0.003765","0.005148","0.003813","0.003946","0.006200","0.0158069","0.004276"
"0.003760","0.005293","0.003872","0.004042","0.006122","0.0157635","0.004170"
"0.003540","0.005545","0.003991","0.004483","0.005878","0.0157663","0.004125"
"0.003612","0.005770","0.003960","0.004494","0.005732","0.0158918","0.004040"
"0.003388","0.005807","0.004106","0.005145","0.005646","0.0160174","0.003808"
"0.003248","0.005831","0.004039","0.005484","0.005666","0.0159977","0.003783"
"0.003267","0.005783","0.003860","0.005522","0.005838","0.0159660","0.003790"
"0.003345","0.005109","0.003766","0.005522","0.006024","0.0159928","0.003720"
"0.003473","0.004368","0.003719","0.005522","0.006331","0.0160946","0.003573"
"0.003651","0.003614","0.003741","0.005522","0.006951","0.0160513","0.003260"
"0.003814","0.003249","0.003774","0.005522","0.007665","0.0159677","0.002987"
"0.003835","0.003180","0.003877","0.005760","0.008213","0.0157616","0.002898"
"0.004337","0.003229","0.004042","0.004979","0.008763","0.0156281","0.002957"
"0.004689","0.003082","0.004145","0.004383","0.008860","0.0156707","0.003117"
"0.005037","0.002942","0.004087","0.003583","0.008952","0.0157602","0.003398"
"0.005377","0.002571","0.003857","0.002853","0.009245","0.0157484","0.003654"
"0.005417","0.002344","0.003678","0.003551","0.009558","0.0156725","0.003809"
"0.005621","0.002662","0.003518","0.004107","0.009898","0.0155861","0.003801"
"0.005708","0.003551","0.003553","0.004933","0.010067","0.0154439","0.003656"
"0.006017","0.004422","0.003269","0.004490","0.010046","0.0153709","0.003644"
"0.005793","0.005256","0.003188","0.004948","0.009923","0.0153039","0.003521"
"0.005377","0.005450","0.003185","0.005767","0.010044","0.0151338","0.003476"
"0.004899","0.005852","0.003507","0.007201","0.010433","0.0146756","0.003425"
"0.004413","0.006410","0.004010","0.008682","0.010852","0.0141626","0.003357"
"0.003866","0.007055","0.004416","0.010181","0.010729","0.0137753","0.003459"
"0.003288","0.007891","0.004753","0.011185","0.010548","0.0134407","0.003566"
"0.003030","0.008543","0.004722","0.011404","0.010081","0.0133845","0.003671"
"0.002779","0.009024","0.004511","0.011750","0.009565","0.0132981","0.003777"
"0.002548","0.009450","0.004330","0.012162","0.009739","0.0130966","0.003733"
"0.002232","0.009792","0.004175","0.012806","0.009991","0.0128588","0.003770"
"0.001967","0.010027","0.004180","0.013296","0.010104","0.0127302","0.003767"
"0.002135","0.010073","0.004056","0.012169","0.010298","0.0128019","0.003753"
"0.002400","0.009347","0.003935","0.011517","0.010504","0.0128250","0.003817"
"0.002078","0.008229","0.004066","0.013308","0.010733","0.0128341","0.003749"
"0.003744","0.007591","0.004359","0.016484","0.011104","0.0125646","0.003777"
"0.006596","0.007341","0.005378","0.017916","0.011398","0.0122999","0.003658"
"0.012108","0.008117","0.006319","0.017712","0.011535","0.0120306","0.003724"
"0.017669","0.009097","0.007371","0.016747","0.011419","0.0120781","0.004018"
"0.024133","0.009738","0.008015","0.016431","0.011315","0.0121964","0.004754"
"0.030479","0.010140","0.011214","0.016019","0.011338","0.0120992","0.005941"
"0.036977","0.010516","0.015954","0.015015","0.011240","0.0119184","0.007237"
"0.043615","0.010759","0.021607","0.014378","0.011557","0.0114662","0.009085"
"0.049337","0.011281","0.027477","0.014032","0.011814","0.0110121","0.011181"
"0.055060","0.012278","0.034101","0.013624","0.011731","0.0105267","0.013161"
"0.060971","0.014263","0.041394","0.013274","0.011470","0.0100233","0.014896"
"0.068142","0.016614","0.048362","0.013259","0.011203","0.0093758","0.016839"
"0.075640","0.019146","0.055250","0.013541","0.010822","0.0086259","0.019304"
"0.082463","0.021933","0.062691","0.013270","0.010333","0.0079141","0.021963"
"0.088718","0.025362","0.069571","0.010564","0.009875","0.0073227","0.025105"
"0.092125","0.028225","0.076188","0.007590","0.009422","0.0069735","0.028433"
"0.094490","0.030883","0.081181","0.005896","0.009065","0.0067428","0.032132"
"0.094066","0.033695","0.085360","0.005702","0.008540","0.0066059","0.035468"
"0.094640","0.036375","0.087267","0.005637","0.008086","0.0062948","0.038713"
"0.094396","0.039199","0.088947","0.004733","0.007525","0.0059376","0.041408"
"0.093341","0.041913","0.088928","0.004194","0.006930","0.0057198","0.044124"
"0.092142","0.044178","0.087043","0.004882","0.006422","0.0055614","0.047336"
"0.090610","0.045883","0.083594","0.006066","0.006010","0.0055457","0.050645"
"0.091501","0.047191","0.079550","0.007357","0.005700","0.0054140","0.054436"
"0.094127","0.048064","0.074334","0.008463","0.005479","0.0052564","0.058677"
"0.097515","0.047929","0.067811","0.009963","0.005388","0.0050772","0.063312"
"0.098790","0.046761","0.060986","0.013500","0.005083","0.0050133","0.067729"
"0.098985","0.045362","0.054229","0.018161","0.004733","0.0050240","0.071513"
"0.099329","0.043879","0.046978","0.023250","0.004617","0.0049215","0.075597"
"0.100182","0.041273","0.040131","0.028713","0.004655","0.0046851","0.080339"
"0.100412","0.038608","0.033707","0.033936","0.004771","0.0045003","0.084953"
"0.100204","0.035648","0.028018","0.038661","0.004983","0.0043537","0.089004"
"0.099559","0.032320","0.022646","0.045424","0.005020","0.0042323","0.092623"
"0.096937","0.028779","0.019258","0.053118","0.004872","0.0041085","0.096708"
"0.094065","0.025108","0.016419","0.060175","0.004744","0.0040083","0.101007"
"0.090456","0.021509","0.013142","0.065470","0.004845","0.0040636","0.104115"
"0.085600","0.018101","0.010487","0.069713","0.005039","0.0041860","0.106016"
"0.080930","0.015438","0.008579","0.072755","0.005252","0.0043393","0.106668"
"0.074547","0.013021","0.007080","0.074476","0.005645","0.0046276","0.106451"
"0.066637","0.010776","0.005975","0.076186","0.006204","0.0049701","0.105905"
"0.057594","0.008719","0.005620","0.078450","0.006811","0.0053882","0.104475"
"0.049218","0.007507","0.005912","0.080692","0.007338","0.0058231","0.102125"
"0.042676","0.006460","0.005923","0.081724","0.007942","0.0061344","0.099665"
"0.036454","0.005438","0.005872","0.082681","0.008379","0.0064789","0.096791"
"0.030253","0.004839","0.005782","0.083460","0.008695","0.0068867","0.092698"
"0.025667","0.004459","0.005296","0.084129","0.009047","0.0071963","0.087283"
"0.021882","0.004419","0.004796","0.085314","0.009359","0.0074050","0.081607"
"0.018360","0.004468","0.004952","0.085104","0.009763","0.0075732","0.076518"
"0.015565","0.004523","0.005173","0.083055","0.010332","0.0077553","0.071236"
"0.012355","0.004788","0.005540","0.081340","0.010914","0.0079322","0.066001"
"0.010773","0.005325","0.005535","0.081730","0.011237","0.0080098","0.061256"
"0.010615","0.005937","0.005210","0.083345","0.011335","0.0080380","0.056808"
"0.010999","0.006630","0.004861","0.087084","0.011056","0.0080164","0.052774"
"0.011321","0.007285","0.004569","0.091362","0.010701","0.0079509","0.049296"
"0.011423","0.007811","0.004300","0.093807","0.010454","0.0079408","0.045921"
"0.011399","0.008284","0.004041","0.095139","0.010185","0.0079564","0.042962"
"0.011445","0.008721","0.003782","0.094256","0.010259","0.0079386","0.040924"
"0.009968","0.009117","0.003922","0.093817","0.010269","0.0080536","0.039152"
"0.008778","0.009491","0.003961","0.092710","0.010417","0.0082003","0.037218"
"0.008390","0.009702","0.003842","0.090986","0.010666","0.0083213","0.035423"
"0.007400","0.009973","0.003890","0.090135","0.010952","0.0084305","0.034325"
"0.006177","0.010184","0.004116","0.088652","0.011674","0.0084698","0.033459"
"0.005312","0.010153","0.004314","0.085831","0.012825","0.0084990","0.032640"
"0.004601","0.010146","0.004426","0.083523","0.014133","0.0085240","0.031448"
"0.004463","0.010026","0.004363","0.079939","0.015521","0.0085490","0.030006"
"0.004463","0.009913","0.004288","0.075868","0.016923","0.0085872","0.028235"
"0.004326","0.009870","0.004278","0.071503","0.018685","0.0085849","0.026568"
"0.003451","0.009818","0.004447","0.065920","0.020760","0.0085702","0.025176"
"0.002778","0.009741","0.004573","0.060800","0.022706","0.0085912","0.023373"
"0.002353","0.009799","0.004652","0.057407","0.024647","0.0085770","0.021427"
"0.002779","0.009821","0.004468","0.053394","0.026779","0.0086408","0.019584"
"0.003217","0.009812","0.004307","0.049659","0.028905","0.0086915","0.017771"
"0.003632","0.009773","0.004153","0.046025","0.030844","0.0087432","0.015981"
"0.003888","0.009681","0.004005","0.042510","0.032355","0.0088840","0.014369"
"0.003623","0.009750","0.003970","0.039850","0.033397","0.0090655","0.012815"
"0.004140","0.009745","0.003738","0.035836","0.034221","0.0093157","0.011647"
"0.004719","0.009660","0.003518","0.032032","0.034700","0.0096150","0.010774"
"0.005151","0.009508","0.003313","0.028165","0.035024","0.0099423","0.009990"
"0.005551","0.009314","0.003132","0.024424","0.034877","0.0102747","0.009630"
"0.005938","0.009167","0.002966","0.022405","0.034552","0.0105945","0.009313"
"0.006267","0.008962","0.002789","0.020244","0.034363","0.0109097","0.009440"
"0.006577","0.008635","0.002588","0.018062","0.034070","0.0111972","0.009701"
"0.006575","0.008277","0.002526","0.016309","0.033415","0.0114452","0.009861"
"0.006476","0.008004","0.002442","0.014498","0.032662","0.0116606","0.010085"
"0.006462","0.007649","0.002305","0.012500","0.031690","0.0118712","0.010380"
"0.006014","0.007418","0.002343","0.011124","0.030590","0.0119630","0.010725"
"0.005687","0.007197","0.002349","0.009487","0.029680","0.0120358","0.011031"
"0.005434","0.006991","0.002376","0.007637","0.029019","0.0119771","0.011378"
"0.005064","0.006826","0.002461","0.005999","0.028631","0.0118463","0.011786"
"0.004901","0.006614","0.002476","0.003996","0.028459","0.0117476","0.012367"
"0.004584","0.006428","0.002574","0.002560","0.028365","0.0116005","0.012644"
"0.004389","0.006322","0.002646","0.001400","0.028293","0.0114531","0.012910"
"0.004248","0.006298","0.002727","0.001112","0.028057","0.0112871","0.012962"
"0.004146","0.006326","0.002785","0.001112","0.027749","0.0111378","0.012762"
"0.004014","0.006315","0.002878","0.001112","0.027398","0.0109867","0.012844"
"0.003833","0.006237","0.002987","0.001112","0.026999","0.0108358","0.012992"
"0.003635","0.006214","0.003114","0.001112","0.026525","0.0107308","0.013153"
"0.003856","0.006061","0.003106","0.000484","0.026302","0.0107011","0.013303"
"0.004022","0.005988","0.003124","0.000126","0.026171","0.0107025","0.013357"
"0.004059","0.006166","0.003179","0.000112","0.026148","0.0107283","0.013352"
"0.004093","0.006342","0.003194","0.000112","0.026032","0.0107595","0.013324"
"0.004145","0.006556","0.003221","0.000112","0.025869","0.0107366","0.013223"
"0.004281","0.006788","0.003206","0.000050","0.025747","0.0107961","0.012999"
"0.004413","0.006934","0.003186","0.000098","0.025544","0.0109016","0.012648"
"0.004595","0.007157","0.003179","0.000098","0.025446","0.0109087","0.012249"
"0.004624","0.007390","0.003180","0.000180","0.025344","0.0109476","0.012085"
"0.004605","0.008100","0.003160","0.000516","0.025240","0.0109928","0.011658"
"0.004937","0.008621","0.003002","0.000480","0.025215","0.0111859","0.011088"
"0.005364","0.009170","0.002832","0.000480","0.025721","0.0112914","0.010272"
"0.005794","0.009476","0.002624","0.000480","0.026663","0.0113554","0.009240"
"0.006165","0.009315","0.002399","0.000533","0.027184","0.0115168","0.008282"
"0.006459","0.009139","0.002178","0.000533","0.027077","0.0117418","0.007517"
"0.006789","0.008994","0.001945","0.000647","0.027176","0.0119856","0.006599"
"0.007106","0.008854","0.001718","0.000647","0.027134","0.0121803","0.005717"
"0.007380","0.008503","0.001525","0.000647","0.027096","0.0123105","0.004911"
"0.007593","0.008037","0.001350","0.000647","0.026642","0.0125212","0.004206"
"0.007712","0.007391","0.001155","0.000647","0.025772","0.0128443","0.003717"
"0.007785","0.006838","0.000965","0.000633","0.024788","0.0132264","0.003357"
"0.007828","0.006379","0.000877","0.000585","0.023819","0.0135465","0.003052"
"0.007787","0.005992","0.000778","0.000645","0.023245","0.0137696","0.002751"
"0.007681","0.005749","0.000685","0.000563","0.022721","0.0138697","0.002755"
"0.007454","0.004918","0.000602","0.000518","0.021985","0.0140370","0.003007"
"0.007216","0.004466","0.000575","0.000518","0.021106","0.0141618","0.003314"
"0.006849","0.003958","0.000593","0.000727","0.019847","0.0144587","0.003529"
"0.006685","0.003807","0.000657","0.000727","0.018418","0.0146539","0.003717"
"0.006498","0.004087","0.000750","0.000674","0.017243","0.0146199","0.004002"
"0.006319","0.004369","0.000845","0.000702","0.016568","0.0145644","0.004190"
"0.006200","0.004735","0.000937","0.000588","0.015899","0.0145011","0.004593"
"0.005930","0.005042","0.000962","0.000896","0.015515","0.0146099","0.004884"
"0.005815","0.005208","0.000991","0.000949","0.015013","0.0147523","0.005133"
"0.005782","0.005251","0.001026","0.000949","0.014680","0.0148359","0.005281"
"0.005724","0.005714","0.001088","0.000949","0.014172","0.0148792","0.005471"
"0.005673","0.006303","0.001218","0.000949","0.013677","0.0148736","0.005553"
"0.005690","0.007007","0.001235","0.000949","0.013391","0.0148532","0.005604"
"0.005684","0.007650","0.001334","0.000948","0.012780","0.0149047","0.005694"
"0.005663","0.007586","0.001390","0.001222","0.012122","0.0150511","0.005636"
"0.005690","0.007731","0.001456","0.001261","0.011447","0.0151215","0.005701"
"0.005528","0.008196","0.001521","0.001509","0.010805","0.0151689","0.005828"
"0.005621","0.008604","0.001486","0.001300","0.010396","0.0152468","0.006013"
"0.005600","0.008915","0.001397","0.001300","0.009833","0.0154815","0.006079"
"0.005455","0.008654","0.001377","0.001300","0.009416","0.0157748","0.006495"
"0.005079","0.008360","0.001518","0.001597","0.008958","0.0158442","0.006958"
"0.004625","0.008034","0.001627","0.001939","0.008408","0.0158017","0.007465"
"0.004452","0.007694","0.001803","0.002171","0.007758","0.0157200","0.007635"
"0.004074","0.007402","0.001891","0.002826","0.007102","0.0157076","0.007703"
"0.003883","0.007532","0.001914","0.003160","0.006785","0.0157409","0.007781"
"0.003610","0.007369","0.001883","0.003679","0.006769","0.0157777","0.007669"
"0.003247","0.007178","0.001839","0.004346","0.006738","0.0158421","0.007645"
"0.002946","0.006821","0.001855","0.004960","0.006545","0.0159674","0.007580"
"0.003036","0.006310","0.001763","0.004900","0.006462","0.0160577","0.007536"
"0.003208","0.006252","0.001780","0.004626","0.006417","0.0160927","0.007419"
"0.003417","0.005981","0.001843","0.004296","0.006499","0.0160799","0.007256"
"0.003570","0.005544","0.001961","0.004049","0.006523","0.0161085","0.007080"
"0.003559","0.005253","0.002287","0.004049","0.006486","0.0160487","0.006974"
"0.003572","0.005355","0.002586","0.004049","0.006437","0.0160277","0.006974"
"0.003636","0.005912","0.002978","0.004261","0.006492","0.0159417","0.006513"
"0.004028","0.006346","0.003255","0.004062","0.006688","0.0160012","0.005926"
"0.004480","0.007247","0.003341","0.003720","0.006837","0.0161398","0.005176"
"0.004810","0.008276","0.003340","0.003180","0.006944","0.0161749","0.004904"
"0.005269","0.009634","0.003420","0.002862","0.007333","0.0159963","0.004744"
"0.005002","0.010536","0.003727","0.004324","0.007843","0.0157335","0.004481"
"0.004862","0.010956","0.004078","0.005647","0.008713","0.0153410","0.004331"
"0.004824","0.011276","0.004469","0.006840","0.009897","0.0148885","0.004090"
"0.004716","0.011786","0.004921","0.007114","0.011054","0.0144156","0.003980"
"0.004309","0.012440","0.005410","0.007967","0.011971","0.0140217","0.003757"
"0.004003","0.013525","0.005756","0.009134","0.012512","0.0137702","0.003620"
"0.003808","0.014454","0.005824","0.010345","0.012858","0.0136701","0.003440"
"0.003378","0.014998","0.005927","0.011974","0.013441","0.0135084","0.003352"
"0.003099","0.015295","0.005848","0.012805","0.013840","0.0133299","0.003298"
"0.003077","0.014932","0.005684","0.012805","0.014343","0.0130710","0.003350"
"0.003057","0.014758","0.005405","0.012741","0.014612","0.0128942","0.003354"
"0.003101","0.014666","0.005129","0.012616","0.014997","0.0128152","0.003409"
"0.003150","0.014087","0.005038","0.012616","0.015384","0.0128811","0.003388"
"0.003188","0.013097","0.005041","0.012616","0.015847","0.0129663","0.003280"
"0.003145","0.011865","0.004990","0.012225","0.015974","0.0130832","0.003236"
"0.003417","0.010930","0.004996","0.010629","0.015871","0.0130195","0.003422"
"0.003417","0.010356","0.005166","0.009475","0.015260","0.0131952","0.003531"
"0.003451","0.009613","0.005240","0.008168","0.014617","0.0133823","0.003696"
"0.003451","0.008714","0.005116","0.007976","0.014084","0.0135863","0.003781"
"0.003451","0.007767","0.004953","0.008180","0.013945","0.0136376","0.003789"
"0.003334","0.006525","0.004830","0.008227","0.014254","0.0135927","0.003761"
"0.003155","0.005605","0.004934","0.008693","0.014884","0.0133663","0.003745"
"0.003155","0.004743","0.004950","0.008872","0.014928","0.0132109","0.003646"
"0.002984","0.004834","0.005153","0.009445","0.015094","0.0129442","0.003554"
"0.002493","0.005315","0.005546","0.010767","0.014884","0.0127659","0.003431"
"0.002163","0.005777","0.006064","0.011810","0.015072","0.0125455","0.003385"
"0.001727","0.005973","0.006358","0.012932","0.015129","0.0122978","0.003403"
"0.001229","0.005855","0.006600","0.014103","0.015121","0.0119185","0.003519"
"0.001105","0.005883","0.006685","0.014399","0.015183","0.0115457","0.003691"
"0.000980","0.005833","0.006760","0.014546","0.015364","0.0113381","0.003735"
"0.000709","0.005565","0.006874","0.015085","0.015333","0.0113631","0.003643"
"0.000710","0.005365","0.006830","0.015076","0.015497","0.0112871","0.003670"
"0.000676","0.005216","0.006723","0.015315","0.015393","0.0112809","0.003639"
"0.000676","0.005153","0.006612","0.016863","0.015398","0.0111598","0.003518"
"0.000676","0.005238","0.006525","0.018356","0.015366","0.0111263","0.003501"
"0.000676","0.005319","0.006833","0.020829","0.015159","0.0110789","0.003429"
"0.000676","0.005402","0.007100","0.021779","0.014609","0.0111638","0.003452"
"0.000676","0.005753","0.007415","0.022652","0.014426","0.0111570","0.003511"
"0.000676","0.005427","0.007407","0.022997","0.013742","0.0113413","0.003651"
"0.000676","0.004934","0.007441","0.023226","0.013419","0.0114314","0.003789"
"0.001199","0.004546","0.007935","0.023948","0.013077","0.0114396","0.003830"
"0.002882","0.004625","0.009754","0.024640","0.012770","0.0112627","0.004135"
"0.005746","0.005110","0.012563","0.026516","0.012478","0.0110048","0.005646"
"0.012658","0.005636","0.015917","0.027081","0.011949","0.0106656","0.007173"
"0.022292","0.006721","0.019791","0.026935","0.011392","0.0102802","0.008488"
"0.032697","0.007719","0.022933","0.026196","0.011023","0.0099859","0.009280"
"0.042017","0.008887","0.025852","0.025519","0.010638","0.0097428","0.010629"
"0.049829","0.010629","0.029057","0.024746","0.010267","0.0095017","0.013227"
"0.059434","0.012761","0.033741","0.022503","0.009779","0.0092919","0.016821"
"0.071597","0.014845","0.039129","0.020108","0.008978","0.0089211","0.022039"
"0.082427","0.016829","0.042934","0.017095","0.008378","0.0086578","0.027666"
"0.092278","0.019517","0.048067","0.014468","0.007860","0.0083168","0.034062"
"0.105592","0.022312","0.052559","0.011787","0.007347","0.0078045","0.040803"
"0.120260","0.025188","0.056912","0.010519","0.007433","0.0072764","0.046905"
"0.136743","0.027889","0.060016","0.009875","0.007772","0.0066624","0.051745"
"0.150896","0.029691","0.061467","0.010999","0.007960","0.0062186","0.056299"
"0.162883","0.031482","0.060616","0.012667","0.008060","0.0060455","0.059330"
"0.171723","0.032823","0.058920","0.012852","0.008202","0.0060262","0.061262"
"0.174247","0.033345","0.055804","0.018222","0.008265","0.0061495","0.062878"
"0.172359","0.032991","0.052093","0.025582","0.008223","0.0063651","0.064480"
"0.166324","0.032607","0.049492","0.030979","0.008316","0.0065327","0.066613"
"0.161111","0.031905","0.047295","0.035380","0.008333","0.0066173","0.068610"
"0.155157","0.030547","0.045523","0.037712","0.008363","0.0067170","0.069782"
"0.146018","0.028646","0.042444","0.039929","0.008339","0.0069304","0.069951"
"0.134338","0.026734","0.037980","0.040106","0.008671","0.0073328","0.068209"
"0.125167","0.024650","0.034812","0.041176","0.008746","0.0075706","0.065928"
"0.118436","0.021716","0.029948","0.042846","0.008929","0.0078661","0.062421"
"0.109135","0.018350","0.025613","0.044651","0.009180","0.0082396","0.058302"
"0.099266","0.015013","0.021455","0.046434","0.009495","0.0084375","0.054646"
"0.087874","0.012016","0.018060","0.048882","0.009374","0.0087695","0.051690"
"0.078998","0.009846","0.015759","0.049887","0.009009","0.0090698","0.048731"
"0.071390","0.007582","0.014696","0.051400","0.008577","0.0092466","0.046506"
"0.065284","0.005768","0.013675","0.052680","0.008135","0.0093426","0.044202"
"0.059483","0.004792","0.014060","0.050754","0.007953","0.0093422","0.042384"
"0.054754","0.004428","0.014813","0.048014","0.007813","0.0092338","0.041009"
"0.053490","0.004239","0.015220","0.046939","0.007597","0.0091065","0.039432"
"0.051696","0.004141","0.015952","0.046047","0.007680","0.0090360","0.037535"
"0.051620","0.004235","0.015968","0.046925","0.007852","0.0088587","0.036081"
"0.052625","0.004382","0.015881","0.047616","0.008074","0.0086460","0.034556"
"0.052666","0.004565","0.016307","0.052330","0.007862","0.0084444","0.033239"
"0.052760","0.005048","0.016029","0.054551","0.008042","0.0082685","0.032099"
"0.052936","0.005428","0.015827","0.057557","0.008432","0.0079787","0.031097"
"0.053638","0.005867","0.015665","0.059935","0.008801","0.0076915","0.030436"
"0.053534","0.006325","0.015636","0.062620","0.008971","0.0074990","0.029759"
"0.054481","0.006641","0.015540","0.066976","0.008905","0.0072187","0.029245"
"0.055110","0.006804","0.015541","0.069143","0.009051","0.0069712","0.029869"
"0.055468","0.007014","0.015545","0.070182","0.009308","0.0067456","0.031031"
"0.056590","0.007249","0.015747","0.069988","0.009646","0.0065259","0.032126"
"0.058090","0.007537","0.015984","0.068890","0.009869","0.0064039","0.033081"
"0.059724","0.007641","0.015983","0.067482","0.009990","0.0063088","0.033790"
"0.061133","0.007648","0.015219","0.066097","0.010145","0.0062286","0.034751"
"0.061136","0.007657","0.014386","0.065795","0.010042","0.0062501","0.035691"
"0.060964","0.007646","0.013526","0.065636","0.009903","0.0063205","0.035945"
"0.060627","0.007680","0.012590","0.066548","0.009890","0.0063126","0.036284"
"0.060368","0.007534","0.012278","0.066428","0.010129","0.0062955","0.036604"
"0.060390","0.007200","0.012111","0.067063","0.010164","0.0062900","0.037206"
"0.058194","0.006868","0.012396","0.068142","0.009935","0.0063979","0.037915"
"0.054638","0.006565","0.012764","0.069780","0.009759","0.0065214","0.038548"
"0.051728","0.006012","0.013204","0.069800","0.009741","0.0066248","0.039479"
"0.047850","0.005766","0.014179","0.067346","0.010080","0.0067991","0.039893"
"0.044019","0.005660","0.014969","0.065218","0.010600","0.0069638","0.039022"
"0.040095","0.005543","0.015639","0.063929","0.010839","0.0071618","0.038130"
"0.035896","0.005378","0.015574","0.064874","0.011043","0.0073790","0.037164"
"0.032804","0.005238","0.014933","0.066888","0.011275","0.0075420","0.035747"
"0.029504","0.005066","0.014434","0.068983","0.011599","0.0077301","0.034687"
"0.026090","0.005140","0.014479","0.072016","0.011950","0.0077856","0.034060"
"0.024902","0.005181","0.013635","0.075004","0.012222","0.0077474","0.033556"
"0.024383","0.005001","0.012754","0.076741","0.012470","0.0077945","0.032712"
"0.023805","0.004765","0.012036","0.078184","0.012691","0.0078811","0.031676"
"0.024153","0.004660","0.010776","0.078026","0.012816","0.0080245","0.030768"
"0.022378","0.005157","0.010128","0.078103","0.012857","0.0082271","0.029667"
"0.021278","0.006177","0.009338","0.076933","0.012912","0.0084125","0.028615"
"0.020213","0.007150","0.008537","0.074673","0.012867","0.0086811","0.027555"
"0.018592","0.008279","0.007680","0.074627","0.012710","0.0089476","0.025486"
"0.016648","0.009201","0.006749","0.075184","0.012634","0.0091161","0.024904"
"0.014596","0.010116","0.005769","0.076522","0.012629","0.0092273","0.025243"
"0.012305","0.011032","0.004961","0.077791","0.013047","0.0092048","0.025555"
"0.009780","0.011509","0.004686","0.078850","0.013825","0.0090446","0.026079"
"0.007397","0.011565","0.004594","0.081723","0.014650","0.0088124","0.027297"
"0.005714","0.011524","0.004359","0.085823","0.015508","0.0084670","0.027992"
"0.004706","0.011399","0.004051","0.090383","0.016266","0.0081564","0.028210"
"0.003577","0.011270","0.004146","0.093018","0.017177","0.0079731","0.027599"
"0.002488","0.011252","0.004326","0.096498","0.017776","0.0077841","0.026904"
"0.001931","0.011286","0.004439","0.099996","0.018077","0.0076669","0.026055"
"0.001318","0.011229","0.004592","0.104031","0.017952","0.0076566","0.025161"
"0.001318","0.010614","0.004615","0.107722","0.017800","0.0076607","0.024211"
"0.001352","0.009601","0.004640","0.111186","0.017778","0.0076422","0.023383"
"0.001258","0.008600","0.004684","0.113682","0.017828","0.0076332","0.022852"
"0.001094","0.007477","0.004767","0.114624","0.018141","0.0075825","0.023065"
"0.001109","0.006361","0.004801","0.115093","0.018450","0.0075479","0.022710"
"0.000561","0.005273","0.004948","0.116912","0.018504","0.0075737","0.021843"
"0.000521","0.004187","0.004941","0.118073","0.018389","0.0076517","0.020949"
"0.000743","0.003541","0.004892","0.118822","0.018295","0.0077331","0.019853"
"0.000743","0.003274","0.004862","0.116817","0.018186","0.0078949","0.017885"
"0.000743","0.003068","0.004808","0.114174","0.018138","0.0081469","0.016014"
"0.000650","0.002934","0.004737","0.110511","0.017848","0.0084683","0.014114"
"0.000742","0.003004","0.004699","0.108617","0.017320","0.0086929","0.012770"
"0.000894","0.003126","0.004655","0.105847","0.016999","0.0088282","0.011731"
"0.000984","0.003262","0.004690","0.102768","0.017242","0.0088401","0.011092"
"0.000984","0.003393","0.004824","0.099114","0.017928","0.0087146","0.010545"
"0.000984","0.003625","0.004924","0.096609","0.018392","0.0085829","0.010135"
"0.001178","0.003825","0.004967","0.093885","0.018738","0.0084964","0.009906"
"0.001398","0.004070","0.005016","0.092332","0.019283","0.0083073","0.009410"
"0.001426","0.004310","0.005066","0.091268","0.019902","0.0081502","0.008854"
"0.002176","0.004469","0.005007","0.090276","0.021074","0.0080834","0.008225"
"0.003404","0.004515","0.004852","0.088186","0.022387","0.0080638","0.007664"
"0.004396","0.004535","0.004750","0.086314","0.023691","0.0080683","0.007216"
"0.005587","0.004538","0.004544","0.084270","0.024512","0.0081996","0.007013"
"0.007078","0.004566","0.004245","0.083981","0.025186","0.0083402","0.007285"
"0.008799","0.004634","0.003929","0.082968","0.025846","0.0084637","0.007655"
"0.010784","0.004730","0.003582","0.081658","0.027043","0.0084709","0.007919"
"0.012663","0.004808","0.003227","0.080284","0.028493","0.0084416","0.008105"
"0.014558","0.004876","0.002913","0.080190","0.030022","0.0084116","0.008248"
"0.016450","0.004962","0.002540","0.079664","0.031198","0.0084517","0.008460"
"0.017867","0.005148","0.002236","0.079922","0.032151","0.0084621","0.008580"
"0.018476","0.005329","0.002142","0.078993","0.032980","0.0084108","0.008586"
"0.019166","0.005561","0.001978","0.077429","0.033686","0.0083477","0.008385"
"0.019596","0.005803","0.001863","0.076845","0.033977","0.0083453","0.008145"
"0.019724","0.006052","0.001805","0.076796","0.033779","0.0084045","0.007812"
"0.019398","0.006312","0.001747","0.075032","0.033001","0.0084816","0.007473"
"0.018359","0.006719","0.001851","0.071919","0.032305","0.0084844","0.007140"
"0.017203","0.007118","0.001968","0.068514","0.031631","0.0085317","0.006649"
"0.015791","0.007488","0.002132","0.065057","0.030933","0.0086103","0.006066"
"0.014535","0.007782","0.002284","0.060235","0.030307","0.0086376","0.005636"
"0.012814","0.008072","0.002522","0.055611","0.029498","0.0087204","0.005277"
"0.010829","0.008278","0.002831","0.051044","0.028380","0.0088795","0.005209"
"0.008858","0.008391","0.003133","0.046343","0.027177","0.0090329","0.005390"
"0.006811","0.008465","0.003428","0.041751","0.025947","0.0091866","0.005638"
"0.004828","0.008471","0.003723","0.037814","0.024602","0.0093389","0.005789"
"0.003581","0.008439","0.003857","0.034728","0.023304","0.0094876","0.005942"
"0.002972","0.008416","0.003913","0.033619","0.022259","0.0095946","0.006065"
"0.002054","0.008378","0.004104","0.034005","0.021333","0.0096289","0.006209"
"0.001404","0.008323","0.004237","0.034447","0.020584","0.0096485","0.006384"
"0.001461","0.008252","0.004237","0.034735","0.019942","0.0095862","0.006764"
"0.001355","0.008196","0.004292","0.036287","0.019131","0.0095063","0.007208"
"0.001510","0.008110","0.004291","0.039755","0.018169","0.0094183","0.007584"
"0.001733","0.008037","0.004275","0.043563","0.017253","0.0092746","0.007988"
"0.001800","0.008020","0.004289","0.048182","0.016340","0.0091080","0.008118"
"0.001953","0.008113","0.004268","0.052951","0.015501","0.0089500","0.008071"
"0.002416","0.008438","0.004165","0.057459","0.014832","0.0087533","0.008001"
"0.002779","0.009173","0.004065","0.061584","0.014223","0.0085772","0.007864"
"0.003251","0.010292","0.003996","0.064513","0.013820","0.0083999","0.007588"
"0.003554","0.011574","0.003978","0.066898","0.013467","0.0082653","0.007215"
"0.003688","0.012884","0.003973","0.069004","0.013217","0.0081777","0.006814"
"0.003518","0.014302","0.004047","0.069917","0.013081","0.0081352","0.006394"
"0.003518","0.015709","0.004028","0.068632","0.013147","0.0081561","0.005988"
"0.003518","0.017150","0.004010","0.067118","0.013144","0.0082463","0.005588"
"0.003518","0.018700","0.003978","0.065311","0.012962","0.0083983","0.005215"
"0.003334","0.020322","0.003968","0.062805","0.012829","0.0086271","0.004821"
"0.002787","0.022027","0.004042","0.060281","0.012793","0.0088845","0.004376"
"0.002441","0.023708","0.004087","0.057231","0.012659","0.0091670","0.004087"
"0.002219","0.025135","0.004088","0.053908","0.012495","0.0094640","0.003804"
"0.002151","0.026197","0.004073","0.050131","0.012489","0.0097456","0.003730"
"0.001763","0.026818","0.004114","0.046528","0.012502","0.0100582","0.003730"
"0.001300","0.027047","0.004153","0.042723","0.012361","0.0104130","0.003785"
"0.000938","0.026856","0.004181","0.039416","0.012071","0.0107511","0.003849"
"0.000465","0.026205","0.004219","0.037660","0.011570","0.0111014","0.003982"
"0.000163","0.025423","0.004188","0.035810","0.011073","0.0114658","0.004500"
"0.000149","0.024549","0.004113","0.033105","0.010677","0.0117690","0.005254"
"0.000308","0.023423","0.004021","0.030476","0.010323","0.0120522","0.006050"
"0.000556","0.022153","0.004040","0.028499","0.009904","0.0123003","0.006814"
"0.000821","0.020731","0.004228","0.026510","0.009512","0.0125164","0.007561"
"0.001104","0.019048","0.004458","0.024863","0.009260","0.0127122","0.008191"
"0.001597","0.017237","0.004700","0.022994","0.009068","0.0128693","0.008813"
"0.002271","0.015386","0.004957","0.020821","0.008845","0.0129848","0.009530"
"0.002532","0.013550","0.005319","0.019451","0.008514","0.0131338","0.010159"
"0.003236","0.011902","0.005726","0.017540","0.008260","0.0132903","0.010896"
"0.003684","0.010626","0.006437","0.016501","0.008121","0.0133781","0.011552"
"0.003972","0.009720","0.007258","0.016008","0.008017","0.0134402","0.012089"
"0.004181","0.008950","0.008248","0.016086","0.008055","0.0134333","0.012216"
"0.004753","0.008212","0.009195","0.015635","0.008278","0.0134201","0.012164"
"0.005436","0.007577","0.010077","0.014728","0.008582","0.0134110","0.012016"
"0.006102","0.006928","0.010828","0.014433","0.008842","0.0133870","0.011559"
"0.006457","0.006371","0.011504","0.015020","0.009086","0.0133759","0.010912"
"0.006619","0.006069","0.012190","0.016170","0.009334","0.0133334","0.010251"
"0.007287","0.006019","0.012713","0.016490","0.009743","0.0133042","0.009670"
"0.007382","0.006060","0.013280","0.017763","0.010094","0.0132850","0.008956"
"0.007177","0.006195","0.013850","0.019248","0.010461","0.0132128","0.008232"
"0.007174","0.006424","0.014251","0.020028","0.011034","0.0130764","0.007582"
"0.006540","0.006621","0.014586","0.021879","0.011446","0.0129313","0.007072"
"0.006879","0.006829","0.014629","0.022565","0.011918","0.0127346","0.006608"
"0.006473","0.007101","0.014610","0.024836","0.012167","0.0125580","0.006007"
"0.006536","0.007285","0.014181","0.025929","0.012425","0.0124179","0.005510"
"0.006248","0.007578","0.013812","0.028058","0.012753","0.0122063","0.005080"
"0.006160","0.007917","0.013403","0.030802","0.013136","0.0119655","0.004955"
"0.006231","0.008192","0.013251","0.034692","0.013456","0.0116622","0.005024"
"0.006694","0.008457","0.013268","0.037905","0.013940","0.0112986","0.005053"
"0.007567","0.008630","0.013585","0.040964","0.014710","0.0107918","0.005081"
"0.009041","0.008796","0.014025","0.044251","0.015710","0.0101886","0.005143"
"0.011115","0.008938","0.014473","0.046868","0.016874","0.0095635","0.005314"
"0.013478","0.009144","0.015205","0.050424","0.017985","0.0088906","0.005531"
"0.016431","0.009466","0.016162","0.052857","0.019195","0.0082616","0.006164"
"0.018726","0.009962","0.017819","0.056634","0.020217","0.0076124","0.008149"
"0.022348","0.010501","0.019377","0.063308","0.020892","0.0068618","0.011286"
"0.025888","0.011138","0.021227","0.071854","0.021600","0.0060965","0.014656"
"0.028591","0.011654","0.023344","0.080611","0.022229","0.0053569","0.018678"
"0.030819","0.012222","0.025577","0.088549","0.022875","0.0046030","0.023461"
"0.032483","0.012815","0.027650","0.097461","0.023131","0.0038765","0.029006"
"0.034539","0.013260","0.029448","0.105584","0.023323","0.0032126","0.034993"
"0.037715","0.013743","0.030418","0.113981","0.023555","0.0025978","0.041651"
"0.040344","0.014264","0.031010","0.121854","0.023709","0.0020543","0.049235"
"0.042436","0.014686","0.031315","0.130521","0.023667","0.0015579","0.057216"
"0.043707","0.015027","0.030964","0.138160","0.023260","0.0011642","0.065634"
"0.044342","0.015284","0.030223","0.145209","0.022589","0.0008674","0.073780"
"0.043284","0.015245","0.029342","0.152992","0.022028","0.0006658","0.080343"
"0.040306","0.015017","0.028384","0.157349","0.021915","0.0005810","0.085903"
"0.037254","0.014596","0.026937","0.160864","0.021736","0.0005213","0.090916"
"0.035183","0.014079","0.024730","0.162769","0.021760","0.0004907","0.094433"
"0.031315","0.013547","0.022789","0.163232","0.021756","0.0006341","0.096294"
"0.028067","0.012906","0.020575","0.161088","0.021881","0.0008184","0.097521"
"0.025175","0.012303","0.018209","0.159120","0.022209","0.0009956","0.097749"
"0.023037","0.011635","0.015765","0.156782","0.022872","0.0011486","0.096908"
"0.021217","0.010988","0.013610","0.152966","0.024212","0.0012548","0.095040"
"0.019481","0.010427","0.011603","0.148208","0.025777","0.0013444","0.092532"
"0.016350","0.009820","0.010338","0.142497","0.027389","0.0013994","0.089175"
"0.013220","0.009176","0.009172","0.136480","0.028932","0.0014971","0.084811"
"0.009983","0.008642","0.008176","0.128534","0.030700","0.0016498","0.079907"
"0.007172","0.008230","0.007665","0.119896","0.032567","0.0018585","0.074331"
"0.004588","0.007901","0.007516","0.110368","0.034586","0.0020723","0.068332"
"0.003252","0.007785","0.007481","0.099768","0.036377","0.0022556","0.063531"
"0.002951","0.007682","0.007290","0.092315","0.037640","0.0024227","0.059490"
"0.002689","0.007717","0.007131","0.085526","0.039052","0.0025458","0.055531"
"0.002388","0.007730","0.007022","0.078694","0.040621","0.0026419","0.051413"
"0.002115","0.007727","0.006957","0.071472","0.042488","0.0026682","0.047574"
"0.001784","0.007775","0.006963","0.064416","0.044483","0.0026573","0.043598"
"0.001371","0.007906","0.007015","0.057391","0.046404","0.0026282","0.039774"
"0.000985","0.007994","0.007054","0.050797","0.048109","0.0026471","0.036108"
"0.000629","0.008036","0.007066","0.044936","0.049288","0.0027319","0.032709"
"0.000309","0.008071","0.007054","0.039487","0.050155","0.0028516","0.029514"
"0.000144","0.008096","0.007020","0.033831","0.050944","0.0030020","0.026498"
