"1 Chan 1","2 Chan 2","3 Chan 3","4 Chan 4","5 Chan 5","6 Chan 6","7 Chan 7"
0.008618,0.017268,0.004512,0.002061,0.026064,0.0058676,0.0094987
0.008196,0.017170,0.004416,0.001923,0.026449,0.0059539,0.0096043
0.007771,0.016948,0.004351,0.001916,0.026828,0.0060282,0.0096546
0.007352,0.016577,0.004305,0.001931,0.027049,0.0060921,0.0096350
0.006939,0.016282,0.004292,0.001933,0.026955,0.0061326,0.0096090
0.006536,0.015849,0.004333,0.001910,0.026861,0.0062052,0.0095806
0.006119,0.015310,0.004395,0.001911,0.026747,0.0063397,0.0095307
0.005713,0.014869,0.004434,0.001986,0.026664,0.0064291,0.0094662
0.005248,0.014652,0.004471,0.002092,0.026504,0.0065371,0.0094279
0.004740,0.014476,0.004466,0.002141,0.026293,0.0066457,0.0094297
0.004435,0.014445,0.004466,0.002234,0.026000,0.0067467,0.0094763
0.004250,0.014395,0.004499,0.002422,0.025796,0.0068599,0.0094616
0.004070,0.014424,0.004487,0.002658,0.025419,0.0069903,0.0094226
0.003882,0.014381,0.004506,0.002809,0.024931,0.0071060,0.0094340
0.003699,0.014546,0.004516,0.002947,0.024470,0.0072396,0.0094534
0.003540,0.014633,0.004499,0.003043,0.023945,0.0073993,0.0094905
0.003339,0.014980,0.004480,0.003235,0.023474,0.0075961,0.0094891
0.003202,0.015708,0.004411,0.003488,0.023049,0.0078673,0.0093751
0.003100,0.016700,0.004346,0.003704,0.022308,0.0080662,0.0092506
0.003021,0.018075,0.004257,0.003913,0.021678,0.0082534,0.0090997
0.002910,0.019516,0.004214,0.004187,0.021104,0.0084524,0.0088954
0.002891,0.021046,0.004286,0.004520,0.020516,0.0086974,0.0086387
0.002884,0.022787,0.004321,0.004874,0.020019,0.0089839,0.0083863
0.002876,0.024732,0.004372,0.005141,0.019578,0.0091855,0.0081570
0.002911,0.026354,0.004491,0.005342,0.019305,0.0093574,0.0079908
0.002925,0.027906,0.004719,0.005565,0.019302,0.0095226,0.0077991
0.002940,0.029286,0.004948,0.005809,0.019280,0.0096609,0.0076124
0.002964,0.031018,0.005173,0.006012,0.019301,0.0098089,0.0074317
0.002882,0.032478,0.005333,0.006123,0.019317,0.0098691,0.0072951
0.002929,0.033758,0.005632,0.006239,0.019407,0.0098262,0.0071237
0.003043,0.034955,0.005972,0.006394,0.019446,0.0098661,0.0069327
0.003102,0.036060,0.006293,0.006564,0.019563,0.0099037,0.0066782
0.003191,0.036865,0.006559,0.006674,0.019646,0.0099828,0.0064582
0.003272,0.037563,0.006943,0.006717,0.019754,0.0100293,0.0062609
0.003377,0.038176,0.007444,0.006792,0.019870,0.0101041,0.0060359
0.003489,0.038865,0.008021,0.006878,0.019974,0.0101925,0.0057843
0.003479,0.039583,0.008489,0.006932,0.019943,0.0103340,0.0055591
0.003471,0.040299,0.009057,0.006910,0.019927,0.0103304,0.0053655
0.003479,0.040912,0.009649,0.006835,0.019762,0.0102870,0.0052344
0.003470,0.041452,0.010277,0.006777,0.019615,0.0102782,0.0050987
0.003469,0.041295,0.010841,0.006684,0.019470,0.0102837,0.0050087
0.003479,0.041069,0.011344,0.006564,0.019332,0.0102899,0.0049504
0.003363,0.040816,0.011619,0.006442,0.019193,0.0102150,0.0049617
0.003226,0.040594,0.011892,0.006362,0.019106,0.0101415,0.0049830
0.003096,0.040031,0.012135,0.006293,0.018972,0.0102233,0.0050185
0.002914,0.039675,0.012371,0.006251,0.018811,0.0103368,0.0050542
0.002748,0.039142,0.012598,0.006148,0.018587,0.0104636,0.0051349
0.002591,0.038753,0.012898,0.006003,0.018370,0.0106524,0.0052177
0.002443,0.037975,0.013160,0.005890,0.018180,0.0107270,0.0052975
0.002435,0.036983,0.013550,0.005741,0.017947,0.0109881,0.0053672
0.002320,0.036020,0.013794,0.005554,0.017683,0.0113122,0.0054548
0.002192,0.034820,0.014050,0.005340,0.017512,0.0115464,0.0055534
0.002115,0.033517,0.014239,0.005163,0.017340,0.0118274,0.0056361
0.002023,0.032430,0.014376,0.005049,0.017200,0.0120876,0.0057018
0.001933,0.031287,0.014384,0.004975,0.017085,0.0123240,0.0057737
0.001837,0.030310,0.014235,0.004927,0.016969,0.0126156,0.0058452
0.001737,0.029278,0.013960,0.004876,0.016903,0.0127876,0.0059256
0.001767,0.028155,0.013874,0.004883,0.016925,0.0129132,0.0059570
0.001792,0.027097,0.013598,0.004905,0.017272,0.0130596,0.0059961
0.001831,0.025893,0.013366,0.004912,0.017894,0.0131389,0.0060431
0.001874,0.024669,0.013124,0.004939,0.018435,0.0131601,0.0060715
0.001911,0.023813,0.013123,0.004941,0.019059,0.0131686,0.0060876
0.001932,0.022871,0.013231,0.004910,0.019889,0.0131475,0.0060978
0.001958,0.021981,0.013539,0.004839,0.020774,0.0131175,0.0061089
0.002000,0.020766,0.013825,0.004690,0.021666,0.0130805,0.0061424
0.002036,0.019650,0.014202,0.004568,0.022279,0.0129345,0.0061490
0.002073,0.018558,0.014458,0.004429,0.022900,0.0127350,0.0061580
0.002097,0.017436,0.014603,0.004358,0.023790,0.0125556,0.0061585
0.002110,0.016361,0.014437,0.004369,0.024650,0.0123253,0.0061459
0.002151,0.015283,0.014279,0.004377,0.025416,0.0121592,0.0061479
0.002179,0.014384,0.014002,0.004453,0.026185,0.0118916,0.0061474
0.002190,0.013464,0.013770,0.004566,0.027015,0.0116043,0.0061294
0.002202,0.012780,0.013484,0.004696,0.027807,0.0113282,0.0061169
0.002197,0.012195,0.013332,0.004800,0.028437,0.0109858,0.0061051
0.002201,0.011701,0.013250,0.004869,0.028878,0.0105872,0.0060918
0.002195,0.011203,0.013235,0.004924,0.029208,0.0102542,0.0060788
0.002175,0.010775,0.013256,0.004947,0.029595,0.0098397,0.0060551
0.002167,0.010365,0.013290,0.005046,0.029862,0.0094716,0.0060387
0.002322,0.010263,0.013142,0.005811,0.030169,0.0090546,0.0060138
0.002921,0.010132,0.013063,0.007069,0.030139,0.0086609,0.0059128
0.003659,0.009914,0.012975,0.008862,0.029936,0.0083085,0.0058013
0.004892,0.009789,0.012958,0.011933,0.029811,0.0079770,0.0056497
0.006741,0.009709,0.012937,0.015378,0.029594,0.0075844,0.0054228
0.008525,0.009712,0.013597,0.021245,0.029047,0.0073404,0.0052027
0.010207,0.010026,0.014833,0.027229,0.028513,0.0071030,0.0049717
0.011966,0.010704,0.016335,0.032811,0.027911,0.0068171,0.0047401
0.013286,0.011458,0.018056,0.040666,0.027464,0.0067785,0.0045765
0.014781,0.013042,0.020703,0.048889,0.026945,0.0068708,0.0044138
0.015768,0.014745,0.023334,0.055828,0.026163,0.0069826,0.0043030
0.016660,0.016621,0.026062,0.061671,0.025368,0.0071823,0.0042248
0.017616,0.018566,0.027865,0.065976,0.024609,0.0073411,0.0041771
0.018816,0.020610,0.029607,0.069901,0.023861,0.0075083,0.0041504
0.020091,0.022597,0.031184,0.073764,0.023107,0.0077226,0.0041290
0.021441,0.024744,0.032807,0.077751,0.022372,0.0079618,0.0040949
0.023045,0.026798,0.034383,0.082237,0.021783,0.0082531,0.0040794
0.024679,0.028657,0.035934,0.086534,0.021346,0.0085103,0.0041016
0.026441,0.030665,0.037440,0.088545,0.020997,0.0086865,0.0041179
0.028277,0.032821,0.038334,0.089755,0.020625,0.0088637,0.0040943
0.029882,0.034845,0.039061,0.090604,0.020311,0.0090645,0.0040902
0.031327,0.036760,0.039784,0.090746,0.019935,0.0093046,0.0041319
0.032482,0.038653,0.040569,0.090673,0.019549,0.0095837,0.0042450
0.033604,0.040557,0.041492,0.090207,0.019137,0.0098299,0.0044206
0.034283,0.042277,0.042394,0.088917,0.018549,0.0100785,0.0047816
0.034093,0.043676,0.043110,0.087438,0.017973,0.0103040,0.0052628
0.033961,0.044741,0.043013,0.083536,0.017476,0.0104150,0.0057713
0.033787,0.045362,0.042057,0.079413,0.016894,0.0105373,0.0063882
0.033648,0.045704,0.040869,0.075713,0.016355,0.0106901,0.0070171
0.034283,0.046119,0.039324,0.069890,0.015968,0.0106095,0.0075826
0.034649,0.045677,0.036761,0.063845,0.015638,0.0104117,0.0081656
0.035320,0.045160,0.034104,0.058446,0.015351,0.0101248,0.0087846
0.036193,0.044501,0.031500,0.053963,0.015111,0.0097105,0.0094054
0.036969,0.043680,0.029743,0.051437,0.014922,0.0093881,0.0099964
0.037501,0.042566,0.028160,0.049525,0.014708,0.0091054,0.0105874
0.038305,0.041038,0.026699,0.047815,0.014487,0.0087381,0.0112086
0.039083,0.039410,0.025246,0.045896,0.014255,0.0083124,0.0118682
0.039526,0.037853,0.023730,0.043346,0.014024,0.0078749,0.0125276
0.039767,0.036557,0.022069,0.040822,0.013807,0.0075420,0.0131141
0.039904,0.035183,0.020359,0.040307,0.013659,0.0072867,0.0135867
0.039947,0.033743,0.020028,0.041285,0.013770,0.0070106,0.0141484
0.040701,0.032514,0.021287,0.042649,0.014324,0.0066569,0.0146131
0.041525,0.031283,0.022912,0.044127,0.015001,0.0062365,0.0149575
0.042194,0.029986,0.024497,0.045298,0.015673,0.0058330,0.0152831
0.042365,0.028479,0.025954,0.046224,0.016277,0.0055315,0.0156050
0.042405,0.027037,0.027345,0.046320,0.016977,0.0052785,0.0158124
0.042893,0.025831,0.028793,0.046317,0.017780,0.0050934,0.0158515
0.043363,0.024845,0.030268,0.046640,0.018578,0.0049073,0.0159077
0.044244,0.023967,0.031864,0.046860,0.019424,0.0046312,0.0158986
0.045354,0.023059,0.033400,0.046680,0.020242,0.0043460,0.0159152
0.045827,0.021974,0.035008,0.046171,0.020989,0.0040994,0.0159856
0.046186,0.020974,0.036718,0.045965,0.021746,0.0038935,0.0160296
0.046997,0.020094,0.038511,0.046794,0.022518,0.0037227,0.0159840
0.047764,0.019062,0.040348,0.048008,0.023245,0.0035586,0.0159741
0.048736,0.018185,0.042273,0.048481,0.024012,0.0033123,0.0159274
0.049814,0.017466,0.043302,0.048142,0.024522,0.0031073,0.0157935
0.050022,0.017042,0.042956,0.048118,0.024555,0.0030626,0.0157017
0.050320,0.016671,0.042408,0.048270,0.024556,0.0030508,0.0155848
0.050856,0.016390,0.041919,0.048745,0.024638,0.0029632,0.0153852
0.051689,0.016020,0.041615,0.049577,0.024733,0.0027689,0.0152085
0.052670,0.015681,0.041408,0.050963,0.024794,0.0025386,0.0150987
0.053254,0.015341,0.040434,0.052213,0.024541,0.0023684,0.0149563
0.053105,0.014915,0.038091,0.053276,0.023892,0.0023134,0.0148322
0.052729,0.014599,0.035478,0.054542,0.023168,0.0023176,0.0147422
0.052386,0.014458,0.032821,0.056012,0.022504,0.0023083,0.0146053
0.052827,0.014701,0.030085,0.057871,0.021966,0.0022291,0.0143444
0.053601,0.015024,0.027364,0.059654,0.021499,0.0021240,0.0140189
0.054088,0.015395,0.024638,0.060732,0.020948,0.0020325,0.0137925
0.054532,0.015740,0.021960,0.062041,0.020456,0.0019600,0.0135015
0.054504,0.016015,0.019333,0.064935,0.019985,0.0019505,0.0131830
0.053892,0.016346,0.016782,0.069638,0.019569,0.0019386,0.0128474
0.053920,0.016683,0.014249,0.074473,0.019325,0.0018905,0.0123748
0.054212,0.016965,0.011786,0.078954,0.019179,0.0018273,0.0118812
0.053916,0.017390,0.009329,0.082827,0.019027,0.0018230,0.0114252
0.053370,0.017955,0.006881,0.086207,0.018923,0.0018612,0.0109284
0.052615,0.018417,0.004439,0.090024,0.018813,0.0019268,0.0104615
0.051857,0.018920,0.002893,0.093965,0.019020,0.0019366,0.0100376
0.051676,0.019523,0.002756,0.097219,0.019640,0.0018621,0.0095473
0.051137,0.020073,0.002798,0.100692,0.020278,0.0017804,0.0090598
0.050072,0.020442,0.002878,0.104162,0.020834,0.0017546,0.0086539
0.048599,0.020584,0.002994,0.107281,0.021390,0.0017873,0.0082665
0.046857,0.020600,0.003106,0.110071,0.021878,0.0018403,0.0079341
0.045411,0.020538,0.003207,0.112258,0.022456,0.0018716,0.0075498
0.044213,0.020456,0.003283,0.113799,0.022998,0.0019000,0.0072012
0.043227,0.020375,0.003348,0.113100,0.023519,0.0019254,0.0069279
0.042286,0.020242,0.003407,0.111424,0.024095,0.0019679,0.0066801
0.040491,0.019928,0.003507,0.109674,0.024619,0.0020447,0.0065582
0.038154,0.019468,0.003631,0.108429,0.025026,0.0021358,0.0064920
0.035846,0.018793,0.003751,0.107844,0.025445,0.0022211,0.0064300
0.033592,0.018060,0.003862,0.106750,0.025865,0.0023012,0.0063660
0.031485,0.017350,0.003968,0.103995,0.026248,0.0023817,0.0062959
0.029901,0.016690,0.004054,0.099991,0.026599,0.0024538,0.0061692
0.028099,0.015993,0.004092,0.095961,0.026902,0.0025437,0.0061617
0.026290,0.015360,0.004116,0.091248,0.027181,0.0026401,0.0061683
0.024845,0.014576,0.004174,0.086505,0.027472,0.0027153,0.0061185
0.023421,0.013780,0.004241,0.081988,0.027759,0.0027975,0.0060577
0.021929,0.013114,0.004292,0.077325,0.028029,0.0029016,0.0060269
0.020339,0.012509,0.004332,0.073083,0.028258,0.0030218,0.0060279
0.018708,0.011917,0.004349,0.069031,0.028482,0.0031394,0.0060438
0.017303,0.011337,0.004366,0.064596,0.028731,0.0032493,0.0060353
0.016274,0.010867,0.004378,0.059871,0.028900,0.0033442,0.0060162
0.015597,0.010599,0.004354,0.054851,0.029030,0.0034309,0.0059833
0.015102,0.010407,0.004330,0.049712,0.029177,0.0035217,0.0059807
0.014778,0.010206,0.004327,0.044630,0.029260,0.0036298,0.0060367
0.014458,0.010004,0.004343,0.040296,0.029344,0.0037503,0.0061235
0.014088,0.009758,0.004394,0.037716,0.029404,0.0038768,0.0062111
0.013364,0.009446,0.004488,0.035603,0.029321,0.0040141,0.0063562
0.012987,0.009095,0.004622,0.033206,0.029193,0.0041865,0.0064343
0.012880,0.008781,0.004754,0.030746,0.029111,0.0043526,0.0065010
0.012843,0.008678,0.004856,0.028285,0.028985,0.0045208,0.0065891
0.012825,0.008736,0.004946,0.025815,0.028815,0.0046776,0.0066848
0.012858,0.008917,0.005044,0.023654,0.028640,0.0048315,0.0067447
0.012608,0.009216,0.005140,0.021325,0.028445,0.0050090,0.0068352
0.012227,0.010165,0.005165,0.019026,0.028074,0.0052369,0.0069096
0.011600,0.011862,0.005164,0.017378,0.027496,0.0054587,0.0069317
0.010910,0.013766,0.005112,0.015907,0.026944,0.0056404,0.0069790
0.010383,0.015828,0.005060,0.014430,0.026388,0.0058162,0.0070029
0.009904,0.017323,0.005087,0.012987,0.025898,0.0059669,0.0070074
0.009510,0.018119,0.005159,0.011478,0.025466,0.0061093,0.0070590
0.009500,0.018783,0.005247,0.010001,0.025131,0.0062203,0.0070916
0.009538,0.019026,0.005310,0.008666,0.024788,0.0062933,0.0071354
0.009734,0.019143,0.005348,0.007346,0.024525,0.0063241,0.0072216
0.009760,0.019198,0.005339,0.006515,0.024303,0.0063365,0.0072773
0.009555,0.019305,0.005307,0.005862,0.024008,0.0063533,0.0073286
0.009567,0.019275,0.005279,0.005351,0.023710,0.0063369,0.0073807
0.009426,0.019558,0.005208,0.004858,0.023277,0.0064210,0.0074430
0.009944,0.020255,0.005088,0.004727,0.022774,0.0065168,0.0075247
0.010759,0.021503,0.005001,0.005172,0.022139,0.0066552,0.0076089
0.011241,0.022784,0.004902,0.005494,0.021547,0.0067918,0.0077282
0.011793,0.023881,0.004809,0.005811,0.021105,0.0068113,0.0078265
0.011685,0.024636,0.004746,0.005939,0.020773,0.0068080,0.0078985
0.011605,0.024699,0.004648,0.005813,0.020571,0.0067338,0.0079550
0.011541,0.024631,0.004526,0.005590,0.020315,0.0066458,0.0080986
0.011596,0.024452,0.004369,0.005667,0.019997,0.0065723,0.0083027
0.011691,0.023736,0.004324,0.005716,0.019694,0.0064714,0.0085519
0.011888,0.022422,0.004283,0.005781,0.019519,0.0063571,0.0088658
0.012096,0.020933,0.004301,0.006072,0.019470,0.0063488,0.0090914
0.012150,0.019231,0.005210,0.005975,0.020046,0.0063628,0.0093322
0.012243,0.018079,0.006463,0.005818,0.020659,0.0064065,0.0095363
0.012205,0.017559,0.007861,0.005747,0.021282,0.0065498,0.0096174
0.011802,0.017760,0.009306,0.005632,0.021706,0.0067166,0.0096871
0.011352,0.018978,0.009894,0.005605,0.021528,0.0070587,0.0096688
0.010729,0.020337,0.010170,0.005732,0.021163,0.0076660,0.0095729
0.010321,0.021669,0.010404,0.005792,0.020714,0.0083181,0.0095294
0.010070,0.022179,0.010832,0.005740,0.020360,0.0090004,0.0094701
0.009576,0.022251,0.011401,0.005535,0.020042,0.0095671,0.0093679
0.009225,0.021927,0.011953,0.005321,0.019964,0.0098032,0.0092571
0.008080,0.021306,0.012501,0.004970,0.019922,0.0100044,0.0090984
0.006929,0.020210,0.012955,0.004386,0.020056,0.0100749,0.0089106
0.006275,0.019165,0.013247,0.004065,0.020223,0.0100768,0.0087154
0.005675,0.018197,0.013515,0.003755,0.020266,0.0101456,0.0085277
0.005768,0.017407,0.013792,0.003607,0.020265,0.0102614,0.0083633
0.005920,0.017364,0.013955,0.003775,0.020205,0.0103919,0.0082049
0.005963,0.017298,0.014171,0.004015,0.020235,0.0105637,0.0079638
0.005890,0.017107,0.014479,0.003974,0.020475,0.0107534,0.0076520
0.005764,0.016953,0.014640,0.004013,0.020849,0.0108206,0.0072963
0.005703,0.016676,0.014856,0.003997,0.021232,0.0109444,0.0069191
0.005705,0.016334,0.015121,0.003829,0.021441,0.0110104,0.0066137
0.005793,0.016189,0.014463,0.004054,0.020940,0.0110412,0.0062983
0.005847,0.016163,0.013445,0.004308,0.020319,0.0110919,0.0060156
0.005877,0.016200,0.012320,0.004552,0.019609,0.0110436,0.0058055
0.005950,0.015863,0.011072,0.004812,0.019047,0.0110006,0.0056006
0.005976,0.014873,0.010668,0.004929,0.019122,0.0107794,0.0055015
0.006126,0.013613,0.010698,0.004973,0.019348,0.0103974,0.0054159
0.006160,0.012530,0.010705,0.004991,0.019649,0.0100183,0.0053318
0.006186,0.011916,0.010543,0.005069,0.020054,0.0096062,0.0052800
0.006225,0.011952,0.010241,0.005192,0.020380,0.0093282,0.0052349
0.006182,0.012235,0.009898,0.005321,0.020619,0.0092200,0.0051848
0.006275,0.012307,0.009623,0.005439,0.020850,0.0091216,0.0051452
0.006271,0.012457,0.009428,0.005658,0.020964,0.0090280,0.0050747
0.006206,0.012625,0.009551,0.005776,0.020967,0.0090472,0.0049914
0.006034,0.013154,0.009626,0.005824,0.020957,0.0090792,0.0049416
0.005830,0.013729,0.009760,0.005850,0.020907,0.0092007,0.0048940
0.005537,0.014024,0.010114,0.005755,0.020766,0.0094107,0.0048623
0.005325,0.014333,0.010321,0.005713,0.020664,0.0096189,0.0048578
0.005118,0.014527,0.010498,0.005728,0.020463,0.0098033,0.0048499
0.004906,0.014674,0.010808,0.005732,0.020254,0.0099705,0.0048406
0.004709,0.015449,0.010936,0.005774,0.019949,0.0101760,0.0048602
0.004447,0.016363,0.010927,0.005781,0.019682,0.0103231,0.0048936
0.004253,0.017275,0.010996,0.005792,0.019610,0.0104344,0.0049345
0.004101,0.018028,0.010946,0.005810,0.019499,0.0106395,0.0049812
0.004027,0.018160,0.010967,0.005773,0.019416,0.0108035,0.0050344
0.003929,0.017842,0.011207,0.005720,0.019265,0.0110132,0.0051053
0.003867,0.017597,0.011434,0.005634,0.019005,0.0112506,0.0051681
0.003683,0.017720,0.011556,0.005545,0.018807,0.0113205,0.0052685
0.003499,0.018160,0.011747,0.005494,0.018712,0.0112860,0.0053421
0.003283,0.018960,0.011889,0.005507,0.018467,0.0111604,0.0053747
0.003034,0.019402,0.012087,0.005496,0.018316,0.0110907,0.0054391
0.002865,0.019575,0.012404,0.005472,0.018237,0.0110340,0.0054938
0.002669,0.019677,0.012686,0.005421,0.018196,0.0110568,0.0055915
0.002615,0.019672,0.013047,0.005194,0.018191,0.0112052,0.0057432
0.002556,0.019590,0.013224,0.005018,0.018229,0.0112764,0.0058868
0.002535,0.019174,0.013384,0.004908,0.018230,0.0113838,0.0060379
0.002532,0.018588,0.013526,0.004834,0.018198,0.0113871,0.0061716
0.002511,0.018015,0.013473,0.004878,0.018372,0.0112919,0.0063176
0.002501,0.017514,0.013474,0.004885,0.018510,0.0111610,0.0064610
0.002525,0.017367,0.013456,0.004862,0.018609,0.0110293,0.0066082
0.002535,0.017271,0.013291,0.004843,0.018744,0.0109199,0.0067414
0.002528,0.016552,0.013220,0.004861,0.018919,0.0107093,0.0068046
0.002559,0.015779,0.013220,0.004883,0.019073,0.0105226,0.0068442
0.002525,0.014658,0.013188,0.004878,0.019142,0.0103502,0.0068597
0.002487,0.013636,0.013190,0.004939,0.019282,0.0100205,0.0068376
0.002451,0.013302,0.013049,0.005059,0.019429,0.0097421,0.0068026
0.002383,0.013239,0.012721,0.005174,0.019661,0.0093552,0.0067612
0.002323,0.013366,0.012430,0.005301,0.019987,0.0089639,0.0067060
0.002238,0.013359,0.012134,0.005664,0.020297,0.0086662,0.0066392
0.002157,0.012921,0.011840,0.006031,0.020536,0.0084333,0.0066015
0.002061,0.012264,0.011658,0.006802,0.020883,0.0082619,0.0065558
0.002317,0.011810,0.011824,0.009035,0.021204,0.0080054,0.0064414
0.002722,0.011338,0.012580,0.012531,0.021311,0.0078530,0.0063135
0.003704,0.011612,0.014197,0.018608,0.021428,0.0075856,0.0060664
0.005244,0.012317,0.016698,0.027761,0.021578,0.0071516,0.0057066
0.006505,0.013060,0.018987,0.035899,0.021721,0.0067604,0.0054176
0.007800,0.013926,0.021438,0.043778,0.021918,0.0063508,0.0051178
0.009138,0.015169,0.023822,0.051348,0.022154,0.0059160,0.0048306
0.010485,0.016595,0.026094,0.058357,0.022221,0.0055505,0.0045474
0.011818,0.018080,0.028252,0.065217,0.022331,0.0051561,0.0042717
0.013506,0.019735,0.030550,0.070659,0.022478,0.0047367,0.0039763
0.014873,0.021369,0.032664,0.075128,0.022487,0.0044739,0.0037550
0.016142,0.022928,0.034489,0.079446,0.022531,0.0042737,0.0036075
0.017699,0.024269,0.036359,0.083743,0.022612,0.0040614,0.0034509
0.019563,0.025477,0.038211,0.088366,0.022696,0.0038632,0.0033026
0.021389,0.026620,0.039992,0.093390,0.022767,0.0036865,0.0031822
0.022881,0.027507,0.041397,0.097493,0.022780,0.0035599,0.0031373
0.024383,0.028395,0.042696,0.099428,0.022694,0.0034922,0.0031373
0.026055,0.029184,0.043778,0.101154,0.022582,0.0034494,0.0031585
0.027909,0.030071,0.045173,0.102362,0.022496,0.0033971,0.0031886
0.029824,0.031215,0.046698,0.103262,0.022349,0.0033406,0.0032311
0.031989,0.032577,0.048145,0.103661,0.022077,0.0032825,0.0032770
0.034073,0.033990,0.049139,0.102709,0.021797,0.0032377,0.0033659
0.035966,0.035516,0.049506,0.100545,0.021631,0.0031178,0.0034774
0.037256,0.036394,0.048838,0.096012,0.021461,0.0030216,0.0036820
0.038123,0.036795,0.047129,0.088905,0.021313,0.0030140,0.0040046
0.039398,0.037045,0.045632,0.082683,0.021097,0.0029691,0.0044333
0.040379,0.037165,0.044083,0.076643,0.020834,0.0029547,0.0048903
0.041419,0.036769,0.042277,0.070750,0.020604,0.0029520,0.0053345
0.042685,0.036304,0.040711,0.065252,0.020361,0.0029254,0.0058232
0.044109,0.035720,0.039262,0.060200,0.020037,0.0029179,0.0063386
0.044804,0.034790,0.037622,0.056677,0.019665,0.0029369,0.0069417
0.045713,0.033776,0.036305,0.053862,0.019313,0.0029000,0.0075041
0.046675,0.032762,0.035341,0.051152,0.018995,0.0028469,0.0080397
0.047379,0.031945,0.034308,0.048468,0.018664,0.0028352,0.0085999
0.047888,0.031345,0.033286,0.045469,0.018328,0.0028316,0.0091901
0.048206,0.030643,0.032178,0.042110,0.017966,0.0028468,0.0097824
0.049158,0.029988,0.031210,0.040028,0.017647,0.0027924,0.0102777
0.050167,0.029105,0.030322,0.041363,0.017431,0.0027159,0.0107003
0.050831,0.028074,0.029653,0.043137,0.017222,0.0026432,0.0111423
0.051276,0.026959,0.028633,0.045111,0.017005,0.0025953,0.0115689
0.051728,0.025605,0.027405,0.047291,0.016775,0.0025817,0.0119933
0.051975,0.024192,0.026150,0.049104,0.016564,0.0025943,0.0124313
0.051770,0.022818,0.024954,0.050800,0.016411,0.0026272,0.0127532
0.051826,0.021513,0.023732,0.052695,0.016367,0.0026139,0.0129589
0.052019,0.020339,0.022656,0.054404,0.016299,0.0025968,0.0131719
0.051928,0.019226,0.021568,0.056138,0.016201,0.0025812,0.0133988
0.051232,0.018220,0.020490,0.060539,0.016187,0.0025529,0.0134604
0.050474,0.017275,0.019378,0.065222,0.016257,0.0025240,0.0134492
0.049775,0.016761,0.018501,0.069879,0.016309,0.0024894,0.0134229
0.049279,0.016193,0.017600,0.074342,0.016370,0.0024615,0.0133564
0.048718,0.015588,0.016612,0.078399,0.016415,0.0024384,0.0132990
0.048788,0.014929,0.015674,0.082396,0.016546,0.0023695,0.0131115
0.048995,0.014242,0.014706,0.086826,0.016732,0.0023038,0.0128915
0.049184,0.013646,0.013667,0.091239,0.016897,0.0022267,0.0126862
0.049421,0.013103,0.012655,0.095380,0.017047,0.0021413,0.0124577
0.049986,0.012736,0.011605,0.099303,0.017174,0.0020412,0.0122115
0.050690,0.012466,0.010686,0.103300,0.017307,0.0019249,0.0119756
0.051044,0.012385,0.009980,0.107157,0.017434,0.0018149,0.0117541
0.051345,0.012482,0.009329,0.110467,0.017604,0.0017280,0.0115191
0.051839,0.012598,0.008682,0.114829,0.017795,0.0016274,0.0112307
0.052380,0.012707,0.008060,0.119517,0.017929,0.0015291,0.0109621
0.052614,0.012836,0.007539,0.124209,0.018073,0.0014267,0.0107368
0.053106,0.012970,0.007073,0.129303,0.018285,0.0013084,0.0104414
0.053869,0.013158,0.006581,0.133146,0.018455,0.0011853,0.0102306
0.054759,0.013382,0.006109,0.134976,0.018542,0.0010982,0.0100721
0.055841,0.013586,0.005659,0.136524,0.018712,0.0010196,0.0098637
0.056978,0.013740,0.005261,0.137800,0.019000,0.0009567,0.0095896
0.058232,0.013922,0.004890,0.136679,0.019365,0.0008911,0.0092548
0.059372,0.014104,0.004516,0.135670,0.019712,0.0008335,0.0089665
0.060084,0.014264,0.004150,0.134795,0.020040,0.0008036,0.0087213
0.060388,0.014470,0.003821,0.133965,0.020364,0.0007982,0.0084522
0.060602,0.014664,0.003659,0.133151,0.020792,0.0008065,0.0081387
0.059894,0.014783,0.003537,0.131554,0.021212,0.0008624,0.0079468
0.058859,0.014923,0.003455,0.129277,0.021698,0.0009296,0.0077184
0.057936,0.014983,0.003439,0.126886,0.022185,0.0009800,0.0074844
0.057065,0.014953,0.003439,0.124439,0.022697,0.0010383,0.0072697
0.056042,0.014905,0.003445,0.121261,0.023239,0.0011052,0.0070445
0.055082,0.014912,0.003497,0.116697,0.023815,0.0011654,0.0067767
0.054117,0.014894,0.003582,0.111813,0.024439,0.0012316,0.0065010
0.052853,0.014880,0.003662,0.106273,0.025033,0.0013208,0.0062452
0.051205,0.014843,0.003737,0.099422,0.025594,0.0014469,0.0060348
0.049544,0.014734,0.003830,0.092274,0.026167,0.0015703,0.0058220
0.047913,0.014632,0.003924,0.085161,0.026719,0.0016999,0.0055696
0.045860,0.014557,0.004015,0.077818,0.027153,0.0018455,0.0054058
0.043572,0.014415,0.004118,0.071614,0.027514,0.0020079,0.0053126
0.041186,0.014223,0.004221,0.066840,0.027848,0.0021840,0.0052682
0.038608,0.014016,0.004325,0.062100,0.028098,0.0023748,0.0052712
0.036100,0.013845,0.004433,0.057195,0.028268,0.0025750,0.0052953
0.033939,0.013668,0.004509,0.052179,0.028409,0.0027658,0.0053673
0.032158,0.013493,0.004576,0.046839,0.028455,0.0029419,0.0054271
0.030627,0.013317,0.004631,0.041513,0.028430,0.0031043,0.0055009
0.029138,0.013139,0.004674,0.036417,0.028371,0.0032653,0.0056056
0.027558,0.013005,0.004681,0.031365,0.028230,0.0034334,0.0057371
0.026407,0.012971,0.004683,0.026942,0.028006,0.0035856,0.0058549
0.025442,0.012901,0.004691,0.022968,0.027717,0.0037463,0.0060470
0.024430,0.012871,0.004710,0.019063,0.027428,0.0039256,0.0062597
0.023264,0.012874,0.004694,0.015483,0.027064,0.0041015,0.0064899
0.021885,0.012841,0.004733,0.012881,0.026621,0.0042700,0.0067379
0.020526,0.012766,0.004779,0.011488,0.026165,0.0044246,0.0070147
0.019200,0.012663,0.004804,0.010188,0.025743,0.0045862,0.0073159
0.018153,0.012540,0.004838,0.008876,0.025275,0.0047626,0.0076452
0.017467,0.012425,0.004890,0.007588,0.024803,0.0049063,0.0079462
0.016726,0.012382,0.004940,0.006326,0.024372,0.0050749,0.0082424
0.015986,0.012325,0.005013,0.005142,0.023961,0.0052362,0.0085155
0.015401,0.012245,0.005067,0.004239,0.023636,0.0054032,0.0087451
0.014975,0.012169,0.005145,0.003441,0.023307,0.0055569,0.0089455
0.014299,0.012208,0.005225,0.002994,0.023026,0.0057083,0.0091331
0.013473,0.012694,0.005262,0.002783,0.022758,0.0058985,0.0092936
0.012628,0.013221,0.005267,0.002602,0.022450,0.0060667,0.0094227
0.011788,0.013649,0.005300,0.002415,0.022283,0.0062375,0.0095360
0.010980,0.014059,0.005348,0.002216,0.022422,0.0064370,0.0096471
0.010172,0.014489,0.005388,0.002039,0.022529,0.0066173,0.0097533
0.009327,0.014909,0.005400,0.001876,0.022650,0.0067903,0.0098554
0.008567,0.015322,0.005406,0.001694,0.023028,0.0069610,0.0099724
0.008002,0.015743,0.005349,0.001539,0.023627,0.0071180,0.0100910
0.007603,0.016197,0.005285,0.001416,0.024257,0.0072498,0.0102099
0.007211,0.016116,0.005278,0.001329,0.024877,0.0073748,0.0103408
0.006827,0.015964,0.005286,0.001239,0.025607,0.0075232,0.0104987
0.006422,0.015789,0.005261,0.001154,0.026383,0.0077255,0.0106403
0.005964,0.015643,0.005222,0.001084,0.026867,0.0078980,0.0107862
0.005505,0.015580,0.005165,0.001006,0.027218,0.0080541,0.0109355
0.005043,0.015702,0.005064,0.000938,0.027552,0.0081991,0.0111097
0.004573,0.015993,0.004950,0.000890,0.027857,0.0083448,0.0112393
0.004235,0.016493,0.004814,0.000844,0.027758,0.0084754,0.0113940
0.004106,0.016992,0.004669,0.000791,0.027631,0.0085879,0.0115186
0.003989,0.017609,0.004512,0.000724,0.027489,0.0087033,0.0116170
0.003875,0.018817,0.004234,0.000688,0.027330,0.0087914,0.0116706
0.003753,0.019976,0.003949,0.000673,0.027167,0.0088179,0.0117034
0.003685,0.020646,0.003731,0.000614,0.027026,0.0088112,0.0117652
0.003615,0.021201,0.003550,0.000518,0.026912,0.0088501,0.0118691
0.003538,0.022122,0.003359,0.000454,0.026584,0.0089261,0.0119463
0.003453,0.023175,0.003151,0.000470,0.025981,0.0090344,0.0119952
0.003366,0.024000,0.002997,0.000503,0.025496,0.0091501,0.0119982
0.003277,0.024877,0.002921,0.000496,0.024997,0.0092876,0.0119919
0.003192,0.025986,0.002828,0.000542,0.024283,0.0094102,0.0119416
0.003120,0.027069,0.002798,0.000578,0.023344,0.0095309,0.0118725
0.003025,0.027970,0.002815,0.000626,0.022376,0.0096529,0.0117867
0.002960,0.029588,0.002765,0.000686,0.021357,0.0097855,0.0116679
0.002898,0.031353,0.002727,0.000832,0.020203,0.0099155,0.0114715
0.002850,0.033074,0.002667,0.001000,0.019079,0.0099973,0.0112729
0.002869,0.034566,0.002688,0.001094,0.018201,0.0101202,0.0110961
0.002909,0.035911,0.002741,0.001094,0.017362,0.0102182,0.0109856
0.002936,0.036979,0.002817,0.001153,0.016521,0.0103263,0.0108136
0.002955,0.038043,0.002902,0.001262,0.015739,0.0104467,0.0106456
0.002958,0.038536,0.003056,0.001338,0.015339,0.0105503,0.0104749
0.002959,0.039061,0.003227,0.001416,0.014906,0.0107364,0.0103301
0.002954,0.039337,0.003494,0.001475,0.014508,0.0108914,0.0102343
0.002958,0.039052,0.003895,0.001460,0.014200,0.0110752,0.0101726
0.002963,0.038534,0.004444,0.001416,0.013887,0.0112801,0.0101294
0.002946,0.038083,0.005036,0.001402,0.013567,0.0114770,0.0100668
0.002912,0.037765,0.005666,0.001477,0.013327,0.0116504,0.0099181
0.002874,0.037227,0.006365,0.001522,0.013122,0.0118884,0.0097935
0.002859,0.036440,0.007139,0.001405,0.012926,0.0120720,0.0097611
0.002847,0.035790,0.007977,0.001314,0.012720,0.0122755,0.0097277
0.002824,0.035164,0.008759,0.001262,0.012620,0.0124391,0.0096691
0.002825,0.034561,0.009513,0.001185,0.012496,0.0125897,0.0096165
0.002810,0.033988,0.010404,0.001149,0.012390,0.0127825,0.0095477
0.002807,0.033642,0.011148,0.001101,0.012227,0.0130400,0.0094826
0.002787,0.033401,0.011862,0.001049,0.012139,0.0133192,0.0094044
0.002766,0.033018,0.012555,0.000936,0.012124,0.0135620,0.0093699
0.002726,0.032944,0.013222,0.000849,0.012097,0.0137367,0.0093297
0.002658,0.033174,0.013883,0.000889,0.012159,0.0138760,0.0092006
0.002568,0.033590,0.014533,0.000965,0.012246,0.0140916,0.0090127
0.002493,0.034022,0.015159,0.000997,0.012347,0.0142611,0.0088616
0.002426,0.034522,0.015851,0.001016,0.012475,0.0144509,0.0087151
0.002345,0.035311,0.016385,0.001136,0.012678,0.0146780,0.0085270
0.002266,0.036124,0.016911,0.001230,0.012973,0.0149069,0.0083429
0.002192,0.036870,0.017520,0.001331,0.013252,0.0150505,0.0081320
0.002115,0.037366,0.018150,0.001442,0.013531,0.0151257,0.0079600
0.002052,0.037849,0.018687,0.001522,0.013829,0.0151615,0.0078028
0.001996,0.038390,0.019088,0.001636,0.014140,0.0151878,0.0076410
0.001961,0.038815,0.019383,0.001693,0.014343,0.0151929,0.0075461
0.001930,0.038994,0.019517,0.001771,0.014542,0.0150592,0.0074843
0.001881,0.039297,0.019592,0.001982,0.014760,0.0149826,0.0073343
0.001832,0.039350,0.019545,0.002168,0.014944,0.0148034,0.0072021
0.001804,0.039117,0.019531,0.002361,0.015118,0.0145750,0.0070795
0.001743,0.038396,0.019475,0.002760,0.015361,0.0143805,0.0069594
0.001689,0.037675,0.019163,0.003184,0.015634,0.0141655,0.0068332
0.001643,0.036994,0.018841,0.003616,0.015902,0.0139132,0.0067202
0.001593,0.035761,0.018491,0.004065,0.016178,0.0136720,0.0066107
0.001551,0.034530,0.018144,0.004505,0.016479,0.0134585,0.0064988
0.001523,0.033023,0.017924,0.004892,0.016792,0.0133500,0.0063994
0.001499,0.031276,0.017642,0.005177,0.017084,0.0132436,0.0063619
0.001475,0.029405,0.017300,0.005530,0.017385,0.0130905,0.0063002
0.001445,0.027575,0.016987,0.005891,0.017706,0.0129371,0.0062435
0.001432,0.025583,0.016623,0.006091,0.018018,0.0127024,0.0062199
0.001436,0.023631,0.016384,0.006140,0.018228,0.0124353,0.0062107
0.001414,0.021618,0.016154,0.006281,0.018470,0.0120727,0.0061675
0.001395,0.019760,0.015757,0.006438,0.018715,0.0117798,0.0061317
0.001363,0.018191,0.015286,0.006630,0.018917,0.0114711,0.0060677
0.001327,0.016742,0.014765,0.006840,0.019080,0.0112757,0.0060093
0.001333,0.015277,0.014256,0.007131,0.019280,0.0110234,0.0059431
0.001547,0.013927,0.013806,0.007617,0.019504,0.0107568,0.0058603
0.001916,0.012803,0.013464,0.008293,0.019755,0.0105116,0.0057657
0.002359,0.011677,0.013176,0.008955,0.020026,0.0101592,0.0056821
0.002999,0.010903,0.012865,0.009805,0.020343,0.0098482,0.0055816
0.003904,0.010413,0.012535,0.011156,0.020673,0.0095982,0.0054653
0.005517,0.010118,0.012340,0.013196,0.020982,0.0093451,0.0052801
0.007717,0.009875,0.012345,0.015910,0.021361,0.0091004,0.0050446
0.009965,0.010072,0.012636,0.018635,0.021772,0.0088628,0.0047531
0.012233,0.010771,0.013242,0.021415,0.022158,0.0085538,0.0044822
0.014588,0.011519,0.014064,0.024442,0.022468,0.0082776,0.0042614
0.016984,0.012427,0.014870,0.027558,0.022661,0.0079601,0.0041330
0.019461,0.013943,0.015677,0.030691,0.022780,0.0076912,0.0039996
0.021928,0.015608,0.016661,0.034348,0.022765,0.0074505,0.0040023
0.024424,0.017366,0.017765,0.038015,0.022721,0.0072119,0.0040020
0.027139,0.019190,0.018857,0.041518,0.022627,0.0070247,0.0039872
0.029554,0.021068,0.020180,0.044727,0.022484,0.0068510,0.0040578
0.031738,0.023074,0.021928,0.046951,0.022263,0.0067389,0.0042017
0.033663,0.025383,0.023810,0.048531,0.021882,0.0067131,0.0043886
0.035508,0.027655,0.025620,0.050232,0.021467,0.0068268,0.0046245
0.037470,0.029533,0.027464,0.052128,0.020996,0.0068970,0.0048835
0.039398,0.030989,0.029358,0.054232,0.020467,0.0070116,0.0052053
0.041244,0.032340,0.031281,0.056468,0.019984,0.0071225,0.0055365
0.042823,0.033646,0.033040,0.058423,0.019487,0.0072383,0.0058842
0.044511,0.035053,0.034717,0.059760,0.019083,0.0073439,0.0061707
0.046389,0.036516,0.036420,0.060833,0.018713,0.0074937,0.0064192
0.047991,0.037568,0.038127,0.061797,0.018248,0.0076645,0.0067476
0.048733,0.038558,0.039925,0.061889,0.017795,0.0077989,0.0071298
0.049039,0.039431,0.041632,0.060734,0.017322,0.0078884,0.0074847
0.049313,0.039738,0.043097,0.059467,0.016858,0.0079496,0.0078741
0.049747,0.039879,0.044217,0.058030,0.016401,0.0080370,0.0082668
0.050085,0.040017,0.044974,0.056600,0.015978,0.0080635,0.0086044
0.050742,0.040037,0.045209,0.055291,0.015678,0.0080433,0.0088546
0.051342,0.039506,0.045181,0.054170,0.015450,0.0079237,0.0091337
0.051795,0.038805,0.045093,0.052474,0.015365,0.0076944,0.0092967
0.052201,0.038073,0.044785,0.050589,0.015310,0.0074332,0.0094393
0.052432,0.037252,0.044391,0.048908,0.015329,0.0071909,0.0095573
0.052945,0.036438,0.043492,0.047725,0.015420,0.0069343,0.0095651
0.053701,0.035492,0.042060,0.047460,0.015502,0.0066383,0.0095463
0.054713,0.034320,0.040500,0.047788,0.015657,0.0062890,0.0095267
0.055717,0.032921,0.038964,0.047922,0.015789,0.0058760,0.0095610
0.056697,0.031951,0.037303,0.047775,0.015978,0.0054730,0.0095428
0.057799,0.031356,0.035586,0.046826,0.016161,0.0050829,0.0094598
0.058749,0.030775,0.033650,0.045642,0.016332,0.0047421,0.0093671
0.059876,0.030217,0.031807,0.044758,0.016518,0.0044031,0.0092464
0.060407,0.029407,0.029985,0.044411,0.016589,0.0041271,0.0092546
0.060452,0.028402,0.028143,0.044427,0.016602,0.0038412,0.0093250
0.060139,0.027865,0.026267,0.043902,0.016606,0.0035599,0.0093583
0.060192,0.027305,0.024260,0.043430,0.016610,0.0033002,0.0093459
0.060166,0.026721,0.022101,0.043584,0.016628,0.0030747,0.0093573
0.060123,0.026319,0.019962,0.043829,0.016645,0.0028245,0.0093694
0.059847,0.025848,0.017893,0.043729,0.016603,0.0025394,0.0094641
0.059613,0.025364,0.015961,0.042998,0.016600,0.0022725,0.0095504
0.059182,0.024866,0.014508,0.041819,0.016604,0.0020487,0.0096142
0.058776,0.024417,0.013296,0.040548,0.016599,0.0019095,0.0096561
0.058238,0.023958,0.012024,0.039792,0.016596,0.0018739,0.0096440
0.057354,0.023427,0.010888,0.039279,0.016556,0.0018966,0.0096424
0.056235,0.022785,0.009824,0.038852,0.016468,0.0019615,0.0096881
0.055182,0.022112,0.008964,0.038482,0.016381,0.0020336,0.0097842
0.054302,0.021450,0.008190,0.037921,0.016329,0.0020982,0.0098803
0.053654,0.020768,0.007418,0.037563,0.016353,0.0021525,0.0098981
0.053028,0.020300,0.006722,0.037158,0.016464,0.0022108,0.0097901
0.052203,0.019722,0.006157,0.037061,0.016588,0.0022854,0.0096635
0.051103,0.019124,0.005660,0.037664,0.016733,0.0023754,0.0095648
0.049860,0.018542,0.005361,0.038359,0.016840,0.0024493,0.0095251
0.048716,0.017871,0.005128,0.039291,0.016926,0.0025180,0.0095084
0.048133,0.017373,0.004899,0.040538,0.017093,0.0025653,0.0093637
0.047782,0.016969,0.004728,0.041627,0.017289,0.0026075,0.0091939
0.047848,0.016461,0.004576,0.042898,0.017511,0.0026344,0.0090029
0.047399,0.016084,0.004426,0.044436,0.017743,0.0026803,0.0088720
0.046978,0.015842,0.004402,0.045920,0.017943,0.0027106,0.0087626
0.046708,0.015490,0.004380,0.047340,0.018208,0.0027504,0.0086295
0.046764,0.015257,0.004331,0.049231,0.018558,0.0027763,0.0083897
0.046878,0.015077,0.004312,0.051395,0.018865,0.0027666,0.0081441
0.046600,0.014903,0.004289,0.053743,0.019200,0.0027782,0.0078788
0.046016,0.014742,0.004281,0.056053,0.019528,0.0027995,0.0076273
0.045447,0.014645,0.004291,0.057846,0.019787,0.0028166,0.0074438
0.045139,0.014620,0.004277,0.060069,0.020092,0.0028176,0.0072757
0.044941,0.014713,0.004243,0.062058,0.020367,0.0027616,0.0071069
0.044576,0.014805,0.004268,0.064166,0.020707,0.0026979,0.0068835
0.044066,0.014846,0.004295,0.066116,0.021083,0.0026436,0.0066309
0.043129,0.014826,0.004327,0.067541,0.021407,0.0026116,0.0064567
0.042172,0.014801,0.004352,0.069048,0.021785,0.0025837,0.0062812
0.040925,0.014884,0.004346,0.070256,0.022137,0.0025666,0.0061793
0.039941,0.015020,0.004368,0.071070,0.022523,0.0025346,0.0060181
0.039128,0.015232,0.004369,0.071200,0.022980,0.0025024,0.0057955
0.037913,0.015510,0.004354,0.070700,0.023451,0.0024957,0.0056086
0.036500,0.015682,0.004375,0.069842,0.023899,0.0024961,0.0054929
0.034571,0.015838,0.004382,0.069028,0.024297,0.0025329,0.0054299
0.032505,0.015985,0.004386,0.068196,0.024741,0.0025766,0.0053782
0.030795,0.016191,0.004397,0.066904,0.025124,0.0026021,0.0053209
0.028995,0.016441,0.004399,0.065444,0.025515,0.0026330,0.0052863
0.027111,0.016606,0.004430,0.063515,0.025850,0.0026751,0.0052607
0.024994,0.016554,0.004510,0.061346,0.026192,0.0027712,0.0052446
0.022893,0.016462,0.004566,0.058544,0.026536,0.0029326,0.0052628
0.020815,0.016355,0.004605,0.055675,0.026812,0.0031167,0.0053469
0.018979,0.016350,0.004635,0.052777,0.027120,0.0032974,0.0054090
0.017413,0.016327,0.004657,0.049902,0.027423,0.0034810,0.0054569
0.016018,0.016276,0.004665,0.046491,0.027682,0.0036688,0.0054988
0.014869,0.016198,0.004666,0.043351,0.027926,0.0038522,0.0055271
0.013835,0.016086,0.004653,0.039887,0.028064,0.0040275,0.0055986
0.012854,0.015981,0.004636,0.036801,0.028160,0.0042058,0.0057383
0.012062,0.015969,0.004605,0.034174,0.028205,0.0043674,0.0058770
0.011385,0.015963,0.004566,0.031489,0.028153,0.0045212,0.0060425
0.011141,0.015957,0.004532,0.028728,0.028066,0.0046577,0.0061885
0.010787,0.015872,0.004493,0.026144,0.027896,0.0048072,0.0063897
0.010433,0.015632,0.004470,0.024017,0.027657,0.0049605,0.0066295
0.010336,0.015374,0.004459,0.022005,0.027390,0.0050958,0.0068452
0.010310,0.015216,0.004422,0.020073,0.027115,0.0052321,0.0070658
0.010675,0.015088,0.004372,0.017939,0.026878,0.0053268,0.0072431
0.011137,0.014954,0.004329,0.015772,0.026608,0.0053995,0.0074131
0.011568,0.014682,0.004277,0.013698,0.026397,0.0054712,0.0076212
0.011996,0.014302,0.004252,0.011770,0.026205,0.0055450,0.0078430
0.012347,0.013962,0.004258,0.010370,0.026027,0.0055977,0.0080832
0.012276,0.013618,0.004254,0.009057,0.025918,0.0056931,0.0084047
0.011988,0.013230,0.004292,0.008357,0.025959,0.0057534,0.0086219
0.011893,0.012843,0.004311,0.007780,0.026073,0.0057718,0.0088087
0.011825,0.012360,0.004342,0.007242,0.026262,0.0057742,0.0089687
0.011731,0.011895,0.004382,0.006753,0.026482,0.0057506,0.0091220
0.011655,0.011413,0.004434,0.006337,0.027091,0.0057897,0.0092413
0.011385,0.010954,0.004499,0.005925,0.027620,0.0058162,0.0093497
0.011110,0.010575,0.004604,0.005596,0.028078,0.0058304,0.0094367
0.010752,0.010245,0.004714,0.005276,0.028471,0.0058584,0.0094629
0.010380,0.009937,0.004845,0.004867,0.028860,0.0059337,0.0094485
0.009975,0.009606,0.005010,0.004497,0.029146,0.0060514,0.0094934
0.009535,0.009261,0.005163,0.004312,0.029396,0.0061609,0.0095246
0.008990,0.008993,0.005338,0.004076,0.029221,0.0062118,0.0095850
0.008449,0.009029,0.005476,0.003843,0.029044,0.0062803,0.0096353
0.007872,0.009172,0.005583,0.003655,0.028877,0.0063918,0.0096275
0.007294,0.009206,0.005739,0.003434,0.028595,0.0066069,0.0096275
0.006827,0.009129,0.005895,0.003190,0.028246,0.0068590,0.0096694
0.006339,0.009079,0.006021,0.003002,0.027955,0.0071143,0.0096556
0.005840,0.009128,0.006147,0.002852,0.027643,0.0073832,0.0095881
0.005319,0.009347,0.006245,0.002764,0.027284,0.0076537,0.0094676
0.004803,0.009423,0.006386,0.002674,0.026936,0.0079318,0.0093303
0.004676,0.009712,0.006517,0.002727,0.026518,0.0080985,0.0091097
0.004650,0.010216,0.006599,0.002875,0.025986,0.0081706,0.0089764
0.004622,0.010905,0.006708,0.003073,0.025447,0.0082132,0.0087905
0.004595,0.011731,0.006914,0.003259,0.024676,0.0083947,0.0086295
0.004605,0.012613,0.007080,0.003403,0.023840,0.0086703,0.0084848
0.004540,0.013669,0.007206,0.003516,0.022600,0.0089684,0.0083572
0.004465,0.014797,0.007369,0.003636,0.021472,0.0092973,0.0082247
0.004522,0.015892,0.007564,0.003626,0.020400,0.0097356,0.0081069
0.004635,0.016912,0.007802,0.003610,0.019481,0.0101857,0.0079787
0.004665,0.017702,0.008036,0.003586,0.018673,0.0105940,0.0078877
0.004689,0.018363,0.008144,0.003634,0.018051,0.0108124,0.0077404
0.004697,0.019692,0.008224,0.003716,0.017510,0.0110029,0.0075762
0.004798,0.020840,0.008338,0.003878,0.017482,0.0111447,0.0073652
0.004903,0.022040,0.008427,0.004043,0.017491,0.0112416,0.0071387
0.004879,0.023371,0.008428,0.004288,0.017536,0.0112056,0.0069357
0.004781,0.025020,0.008260,0.004608,0.017642,0.0110143,0.0067151
0.004575,0.026946,0.008113,0.004977,0.017693,0.0109054,0.0064497
0.004480,0.028880,0.008048,0.005317,0.017697,0.0108662,0.0062199
0.004418,0.030046,0.008111,0.005592,0.017671,0.0108480,0.0060211
0.004390,0.030966,0.008181,0.005755,0.017636,0.0108535,0.0058788
0.004342,0.031751,0.008201,0.005933,0.017608,0.0108535,0.0057597
0.004301,0.032103,0.008241,0.006046,0.017618,0.0109260,0.0056461
0.004277,0.032290,0.008295,0.006168,0.017597,0.0111232,0.0055382
0.004271,0.032333,0.008308,0.006244,0.017550,0.0113105,0.0054771
0.004133,0.032315,0.008163,0.006327,0.017642,0.0113201,0.0054255
0.003977,0.032496,0.008014,0.006487,0.017812,0.0112188,0.0053424
0.003816,0.032483,0.007897,0.006649,0.017957,0.0111013,0.0052817
0.003678,0.032330,0.007745,0.006784,0.018151,0.0109983,0.0052361
0.003419,0.032179,0.007600,0.006989,0.018366,0.0108804,0.0051767
0.003095,0.031906,0.007452,0.007183,0.018529,0.0107041,0.0051314
0.002881,0.031966,0.007320,0.007360,0.018748,0.0105009,0.0050646
0.002700,0.032084,0.007308,0.007499,0.018828,0.0104808,0.0050213
0.002545,0.031367,0.007338,0.007563,0.018974,0.0105079,0.0050068
0.002395,0.031046,0.007254,0.007617,0.019075,0.0105686,0.0049870
0.002245,0.030304,0.007264,0.007645,0.019098,0.0106745,0.0049928
0.002250,0.029446,0.007323,0.007575,0.019103,0.0108210,0.0050371
0.002326,0.028404,0.007465,0.007463,0.019162,0.0110573,0.0050910
0.002393,0.026914,0.007608,0.007354,0.019281,0.0112132,0.0051654
0.002353,0.025407,0.007706,0.007226,0.019370,0.0113353,0.0052436
0.002293,0.024556,0.007845,0.007065,0.019390,0.0114132,0.0053294
0.002232,0.023735,0.008052,0.006911,0.019431,0.0114987,0.0054184
0.002218,0.023148,0.008322,0.006774,0.019555,0.0116332,0.0054882
0.002205,0.022699,0.008656,0.006631,0.019587,0.0117510,0.0055536
0.002184,0.022328,0.009026,0.006474,0.019567,0.0118478,0.0056261
0.002149,0.021821,0.009475,0.006313,0.019842,0.0120575,0.0057075
0.002230,0.021258,0.010000,0.006110,0.020158,0.0123022,0.0057967
0.002315,0.020364,0.010491,0.005869,0.020469,0.0125920,0.0058896
0.002404,0.019397,0.010981,0.005598,0.020806,0.0128151,0.0059773
0.002466,0.018468,0.011523,0.005260,0.021085,0.0129836,0.0060858
0.002521,0.017565,0.012008,0.004913,0.021555,0.0131381,0.0062009
0.002581,0.016715,0.012505,0.004532,0.022059,0.0133437,0.0063096
0.002685,0.015609,0.013083,0.004152,0.022310,0.0135927,0.0064186
0.002783,0.014518,0.013670,0.003773,0.022587,0.0138420,0.0065561
0.002864,0.013642,0.014142,0.003454,0.022829,0.0140038,0.0066783
0.002951,0.012535,0.014713,0.003128,0.023064,0.0142752,0.0067989
0.003045,0.011573,0.015264,0.002854,0.023260,0.0145768,0.0069028
0.003119,0.010473,0.015873,0.002592,0.023334,0.0149697,0.0069934
0.003163,0.009413,0.016372,0.002416,0.023570,0.0152480,0.0070965
0.003157,0.008847,0.016653,0.002306,0.023689,0.0154069,0.0071800
0.003127,0.008345,0.016949,0.002274,0.023857,0.0154869,0.0072219
0.003055,0.008001,0.017117,0.002554,0.024105,0.0155969,0.0072493
0.002961,0.007679,0.017202,0.002917,0.024404,0.0156385,0.0072549
0.002812,0.007443,0.017096,0.003306,0.024636,0.0155118,0.0072395
0.002675,0.007366,0.016944,0.003711,0.024888,0.0153445,0.0072217
0.002551,0.007162,0.016839,0.004094,0.024967,0.0152619,0.0071725
0.002461,0.007010,0.016697,0.004472,0.024850,0.0150912,0.0071075
0.002357,0.006797,0.016443,0.004933,0.025027,0.0149351,0.0070382
0.002313,0.006604,0.016208,0.005131,0.025234,0.0147619,0.0069725
0.002295,0.006595,0.015894,0.005316,0.025568,0.0144882,0.0069037
0.002313,0.006604,0.015532,0.005568,0.025940,0.0142325,0.0068210
0.002314,0.006639,0.015036,0.005968,0.026233,0.0138306,0.0067229
0.002408,0.006846,0.014591,0.007169,0.026574,0.0132895,0.0066166
0.002628,0.007103,0.014273,0.009555,0.027016,0.0127359,0.0064897
0.002991,0.007569,0.014296,0.012128,0.027099,0.0121778,0.0062781
0.004016,0.007989,0.015047,0.015501,0.027141,0.0116280,0.0060096
0.005006,0.008543,0.016144,0.020358,0.027041,0.0110474,0.0057605
0.005838,0.009247,0.017655,0.026795,0.027052,0.0104111,0.0055028
0.007409,0.010108,0.019209,0.033162,0.027148,0.0097306,0.0051912
0.009087,0.011143,0.020842,0.038683,0.026976,0.0091498,0.0049033
0.010982,0.012046,0.022753,0.044064,0.026978,0.0086757,0.0046187
0.012871,0.012893,0.024569,0.048670,0.026930,0.0082688,0.0043912
0.014827,0.013688,0.026257,0.052579,0.026874,0.0078091,0.0041697
0.016787,0.014499,0.027788,0.056495,0.026788,0.0073597,0.0039576
0.018844,0.015231,0.029464,0.060581,0.026660,0.0070420,0.0037717
0.020760,0.015960,0.030958,0.064706,0.026520,0.0068017,0.0035989
0.022454,0.016753,0.032277,0.068515,0.026594,0.0064636,0.0034802
0.024064,0.017594,0.033326,0.071926,0.026529,0.0061438,0.0034017
0.025939,0.018558,0.034239,0.075784,0.026099,0.0058185,0.0032965
0.027889,0.019497,0.035222,0.079048,0.025673,0.0054915,0.0031895
0.029923,0.020374,0.036332,0.080835,0.025119,0.0052831,0.0030806
0.032000,0.021099,0.037197,0.082000,0.024498,0.0051305,0.0029982
0.034606,0.021867,0.037975,0.083019,0.023839,0.0050154,0.0028950
0.037175,0.022587,0.038693,0.083237,0.023095,0.0049899,0.0028321
0.039197,0.023378,0.039487,0.082335,0.022390,0.0049611,0.0028263
0.041100,0.024089,0.039844,0.081310,0.022081,0.0049515,0.0028546
0.042369,0.024725,0.039635,0.079438,0.021773,0.0050090,0.0029418
0.043587,0.025059,0.039045,0.076083,0.021618,0.0050436,0.0030144
0.044733,0.025138,0.037923,0.071114,0.021419,0.0051021,0.0031292
0.045075,0.025127,0.036714,0.066333,0.021239,0.0051581,0.0033037
0.045324,0.024864,0.035487,0.062268,0.021121,0.0052015,0.0034316
0.045555,0.024615,0.034285,0.058177,0.020997,0.0052191,0.0035804
0.045863,0.024355,0.033152,0.054519,0.020878,0.0051914,0.0037566
0.046069,0.024168,0.032140,0.051245,0.020715,0.0051955,0.0039927
0.046389,0.024065,0.031245,0.048144,0.020536,0.0052162,0.0042235
0.047002,0.024120,0.030211,0.044994,0.020371,0.0052324,0.0044135
0.047664,0.024145,0.029354,0.041618,0.020268,0.0051883,0.0045946
0.048540,0.024112,0.028609,0.038724,0.020185,0.0051340,0.0047366
0.049537,0.024087,0.028123,0.036270,0.020077,0.0050588,0.0048870
0.050581,0.024008,0.027833,0.033339,0.020019,0.0049446,0.0050432
0.051043,0.023806,0.027556,0.031192,0.019917,0.0048675,0.0052440
0.051217,0.023508,0.027153,0.030533,0.019808,0.0048570,0.0054369
0.051704,0.023292,0.026652,0.030646,0.019728,0.0048055,0.0056417
0.051639,0.022910,0.026305,0.031011,0.019606,0.0047785,0.0059461
0.051490,0.022530,0.025859,0.031564,0.019434,0.0047730,0.0062727
0.051785,0.022099,0.025068,0.032124,0.019300,0.0047722,0.0065407
0.052275,0.021677,0.024313,0.032689,0.019218,0.0046944,0.0067823
0.052864,0.021361,0.023483,0.033099,0.019125,0.0046119,0.0070509
0.053554,0.021188,0.022640,0.033488,0.019004,0.0045390,0.0073385
0.054319,0.021043,0.021768,0.034299,0.018931,0.0044548,0.0075771
0.055093,0.020934,0.020885,0.035062,0.018894,0.0043782,0.0077839
0.055788,0.020748,0.020055,0.036264,0.018913,0.0042952,0.0079337
0.056124,0.020410,0.019127,0.037681,0.018908,0.0042546,0.0081031
0.056518,0.019975,0.018206,0.039227,0.018921,0.0042566,0.0082309
0.057036,0.019412,0.017183,0.040829,0.018935,0.0042676,0.0083340
0.057448,0.018815,0.016161,0.042081,0.018894,0.0043062,0.0084603
0.057470,0.018205,0.015218,0.043118,0.018839,0.0043913,0.0086196
0.057336,0.017676,0.014247,0.044298,0.018708,0.0045085,0.0088162
0.057356,0.017236,0.013255,0.045336,0.018579,0.0045995,0.0090202
0.057250,0.016813,0.012244,0.046623,0.018544,0.0046518,0.0092266
0.056298,0.016310,0.011295,0.048603,0.018405,0.0047826,0.0094995
0.055682,0.015987,0.010343,0.050565,0.018257,0.0048625,0.0097589
0.055170,0.015752,0.009481,0.052545,0.018148,0.0048540,0.0100155
0.054211,0.015522,0.008997,0.054304,0.018018,0.0048724,0.0102495
0.053037,0.015292,0.008582,0.055782,0.017882,0.0049622,0.0104328
0.051829,0.015097,0.008281,0.057030,0.017773,0.0050627,0.0105964
0.050600,0.015000,0.007974,0.058189,0.017650,0.0051656,0.0107648
0.049044,0.014833,0.007689,0.059033,0.017465,0.0053170,0.0109728
0.047353,0.014596,0.007429,0.060084,0.017272,0.0054779,0.0111595
0.045897,0.014348,0.007135,0.060723,0.017111,0.0056363,0.0113336
0.044532,0.014246,0.006962,0.060766,0.016955,0.0057834,0.0115029
0.042597,0.014117,0.006838,0.060654,0.016760,0.0059503,0.0117468
0.040621,0.014054,0.006721,0.060159,0.016496,0.0061235,0.0120850
0.039064,0.014118,0.006613,0.059841,0.016277,0.0062432,0.0123712
0.037705,0.014187,0.006522,0.059755,0.016091,0.0063056,0.0126061
0.036264,0.014247,0.006512,0.059742,0.015944,0.0063699,0.0127712
0.034633,0.014289,0.006575,0.059883,0.015819,0.0064163,0.0129255
0.033152,0.014242,0.006679,0.060003,0.015691,0.0064147,0.0130539
0.032259,0.014201,0.006790,0.059371,0.015725,0.0063532,0.0130156
0.031267,0.014120,0.006877,0.058515,0.015812,0.0063340,0.0129058
0.030346,0.014036,0.006962,0.057381,0.015824,0.0063758,0.0127647
0.029962,0.014039,0.006986,0.055631,0.015897,0.0063235,0.0126108
0.029707,0.014043,0.006952,0.053939,0.015996,0.0062630,0.0124650
0.029554,0.013996,0.006866,0.052306,0.016109,0.0062110,0.0122947
0.029547,0.013898,0.006773,0.050726,0.016274,0.0061190,0.0120969
0.030012,0.013883,0.006656,0.049159,0.016495,0.0059462,0.0118811
0.030563,0.013830,0.006487,0.047665,0.016745,0.0057586,0.0116361
0.030796,0.013693,0.006361,0.047077,0.016972,0.0055652,0.0113928
0.031174,0.013492,0.006241,0.046951,0.017229,0.0053393,0.0111656
0.031569,0.013296,0.006131,0.046812,0.017455,0.0050957,0.0109513
0.031679,0.013118,0.006029,0.046921,0.017699,0.0048563,0.0106849
0.031668,0.012858,0.005924,0.046970,0.017945,0.0046304,0.0104476
0.032236,0.012584,0.005825,0.047132,0.018191,0.0043891,0.0101843
0.032933,0.012345,0.005743,0.047479,0.018471,0.0041435,0.0098799
0.033441,0.012026,0.005654,0.047535,0.018787,0.0039328,0.0095928
0.033460,0.011799,0.005563,0.047301,0.019019,0.0037788,0.0093777
0.033587,0.011617,0.005465,0.047354,0.019255,0.0036179,0.0091826
0.034049,0.011467,0.005361,0.047424,0.019519,0.0034352,0.0089693
0.034474,0.011305,0.005269,0.047471,0.019810,0.0032559,0.0087462
0.034675,0.011112,0.005179,0.048290,0.020014,0.0031287,0.0085959
0.034836,0.010911,0.005134,0.049396,0.020177,0.0029981,0.0084661
0.035127,0.010700,0.005104,0.050697,0.020376,0.0028475,0.0083287
0.035375,0.010463,0.005077,0.052291,0.020544,0.0027510,0.0081885
0.035344,0.010223,0.005070,0.054415,0.020657,0.0026969,0.0080279
0.035288,0.010026,0.005121,0.056460,0.020711,0.0027037,0.0079179
0.035204,0.009878,0.005157,0.057675,0.020735,0.0027505,0.0078345
0.034877,0.009687,0.005193,0.058599,0.020742,0.0028795,0.0077092
0.034590,0.009514,0.005225,0.059439,0.020746,0.0030242,0.0075856
0.034678,0.009322,0.005269,0.059766,0.020797,0.0031570,0.0074564
0.034745,0.009148,0.005311,0.059991,0.020823,0.0032986,0.0072793
0.034591,0.009000,0.005348,0.060029,0.020937,0.0034539,0.0070775
0.034174,0.008848,0.005382,0.060317,0.020983,0.0036350,0.0069621
0.033603,0.008680,0.005428,0.060994,0.021011,0.0038366,0.0068680
0.033079,0.008476,0.005476,0.061536,0.021032,0.0040447,0.0067576
0.032296,0.008264,0.005525,0.061048,0.021063,0.0042648,0.0066310
0.031433,0.008075,0.005590,0.060384,0.021111,0.0044128,0.0064884
0.030687,0.007923,0.005640,0.059659,0.021176,0.0045285,0.0063221
0.029535,0.007867,0.005678,0.058346,0.021214,0.0046769,0.0061770
0.028192,0.007815,0.005712,0.056973,0.021182,0.0048769,0.0060298
0.026789,0.007751,0.005765,0.055088,0.021167,0.0051019,0.0059038
0.025210,0.007666,0.005822,0.053066,0.021105,0.0053587,0.0058297
0.023543,0.007567,0.005930,0.050991,0.021006,0.0056740,0.0058046
0.021753,0.007559,0.006020,0.048541,0.020874,0.0060192,0.0057897
0.019978,0.008059,0.006067,0.045660,0.020772,0.0063668,0.0057489
0.018476,0.008627,0.006131,0.042251,0.020693,0.0067670,0.0057048
0.016963,0.009260,0.006209,0.038826,0.020676,0.0071203,0.0056449
0.015408,0.009973,0.006264,0.036226,0.020668,0.0074064,0.0055700
0.013887,0.011108,0.006282,0.033940,0.020583,0.0076637,0.0055341
0.012293,0.012378,0.006250,0.031704,0.020483,0.0078974,0.0055058
0.010585,0.013667,0.006229,0.029119,0.020358,0.0081399,0.0054789
0.008861,0.014796,0.006313,0.026427,0.020251,0.0084423,0.0054653
0.007343,0.015702,0.006433,0.023902,0.020130,0.0086801,0.0054574
0.006137,0.016492,0.006569,0.021273,0.020014,0.0088743,0.0054208
0.005262,0.017209,0.006736,0.018495,0.019884,0.0090116,0.0053552
0.004404,0.017927,0.006924,0.015807,0.019770,0.0091501,0.0052885
0.003795,0.018272,0.007167,0.013897,0.019675,0.0092339,0.0052596
0.003238,0.018550,0.007478,0.012153,0.019508,0.0093866,0.0052636
0.002752,0.018813,0.007766,0.010671,0.019358,0.0095572,0.0052747
0.002624,0.018863,0.008063,0.009435,0.019334,0.0096653,0.0052760
0.002562,0.018806,0.008394,0.008201,0.019362,0.0097454,0.0052932
0.002473,0.018773,0.008724,0.007563,0.019406,0.0097907,0.0053315
0.002463,0.018746,0.009113,0.007090,0.019423,0.0098299,0.0053727
0.002516,0.018690,0.009422,0.006641,0.019444,0.0098173,0.0054067
0.002562,0.018544,0.009680,0.006365,0.019481,0.0097777,0.0054358
0.002666,0.017817,0.010069,0.006113,0.019575,0.0097725,0.0054507
0.002773,0.017034,0.010488,0.005847,0.019843,0.0097710,0.0054450
0.002854,0.016265,0.010826,0.005634,0.020275,0.0097989,0.0054272
0.002930,0.015485,0.011155,0.005418,0.020996,0.0099421,0.0054166
0.002973,0.014305,0.011425,0.005251,0.021874,0.0100687,0.0054064
0.003056,0.013020,0.011834,0.005044,0.022806,0.0102460,0.0053985
0.003158,0.011755,0.012434,0.004782,0.023691,0.0105181,0.0054033
0.003236,0.010783,0.012936,0.004552,0.024915,0.0107370,0.0054224
0.003345,0.010118,0.013409,0.004318,0.026189,0.0110155,0.0054440
0.003434,0.009553,0.013870,0.004100,0.027113,0.0112396,0.0054928
0.003546,0.009031,0.014414,0.003887,0.028216,0.0115040,0.0055420
0.003697,0.008526,0.015194,0.003624,0.029078,0.0117081,0.0055829
0.003849,0.008405,0.016026,0.003403,0.029832,0.0120250,0.0056109
0.003975,0.008251,0.016653,0.003278,0.030841,0.0123429,0.0056132
0.004085,0.008135,0.017150,0.003181,0.031843,0.0126127,0.0056226
0.004177,0.008022,0.017661,0.003072,0.032500,0.0129119,0.0056221
0.004211,0.008022,0.018072,0.002993,0.033241,0.0131728,0.0056098
0.004239,0.008086,0.018412,0.002944,0.034105,0.0134006,0.0055966
0.004227,0.008291,0.018476,0.002997,0.034683,0.0136472,0.0055705
0.004219,0.008675,0.018324,0.003058,0.035335,0.0137417,0.0055662
0.004204,0.009189,0.018167,0.003161,0.036066,0.0138499,0.0055851
0.004166,0.009873,0.017886,0.003271,0.036661,0.0138643,0.0055975
0.004161,0.010685,0.017485,0.003382,0.037197,0.0137640,0.0056444
0.004196,0.011444,0.017077,0.003460,0.037762,0.0135923,0.0057308
0.004273,0.012282,0.016603,0.003521,0.037881,0.0133250,0.0058467
0.004367,0.013142,0.016185,0.003510,0.037888,0.0130222,0.0059760
0.004430,0.014110,0.015619,0.003680,0.037831,0.0126165,0.0061492
0.004476,0.014873,0.014872,0.003844,0.037648,0.0121128,0.0063714
0.004555,0.015378,0.014121,0.003936,0.037170,0.0115826,0.0066136
0.004596,0.015763,0.013334,0.003974,0.036656,0.0110524,0.0069154
0.004623,0.016053,0.012552,0.003995,0.036555,0.0106125,0.0072426
0.004612,0.016366,0.011683,0.004027,0.036147,0.0101492,0.0075650
0.004554,0.016559,0.010579,0.004041,0.035906,0.0097320,0.0079253
0.004404,0.016483,0.009241,0.004011,0.037189,0.0092339,0.0083616
0.004247,0.016424,0.008004,0.003897,0.038474,0.0087278,0.0087610
0.004079,0.016291,0.006918,0.003756,0.039882,0.0082905,0.0091663
0.003908,0.016287,0.005824,0.003657,0.041355,0.0078551,0.0096195
0.003714,0.016245,0.004793,0.003548,0.044304,0.0074497,0.0100124
0.003523,0.016115,0.003802,0.003417,0.046886,0.0070768,0.0104431
0.003334,0.015859,0.003021,0.003204,0.049950,0.0066559,0.0108864
0.003145,0.015489,0.002473,0.002967,0.053143,0.0063844,0.0113172
0.003016,0.015014,0.002097,0.002688,0.054684,0.0061283,0.0116955
0.002901,0.014544,0.001801,0.002400,0.056239,0.0059349,0.0120702
0.002745,0.013930,0.001606,0.002155,0.057573,0.0057735,0.0123591
0.002563,0.013321,0.001499,0.001890,0.058470,0.0056279,0.0126443
0.002456,0.012628,0.001819,0.001646,0.057879,0.0054599,0.0128647
0.002363,0.011940,0.002299,0.001426,0.057294,0.0053094,0.0130488
0.002165,0.011091,0.002908,0.001808,0.056422,0.0052116,0.0131830
0.001937,0.010448,0.003594,0.002752,0.055651,0.0050990,0.0131945
0.001691,0.009944,0.004230,0.004149,0.054758,0.0050005,0.0131621
0.001460,0.009381,0.004899,0.005956,0.053879,0.0048932,0.0130493
0.001391,0.008999,0.005698,0.008528,0.053139,0.0047300,0.0127664
0.001211,0.008653,0.006428,0.011825,0.052613,0.0045804,0.0124375
0.001012,0.008397,0.007118,0.015415,0.052108,0.0044947,0.0120547
0.000900,0.008379,0.007781,0.019139,0.050101,0.0044476,0.0115885
0.000965,0.008434,0.008482,0.021848,0.047907,0.0044027,0.0111470
0.001014,0.008486,0.009210,0.024578,0.045609,0.0043512,0.0106989
0.001072,0.008528,0.010167,0.026986,0.043505,0.0042931,0.0102042
0.001096,0.008594,0.011252,0.028741,0.039833,0.0042272,0.0097791
0.001116,0.008666,0.012313,0.031080,0.036315,0.0041731,0.0093119
0.001227,0.008748,0.013365,0.033821,0.032668,0.0040915,0.0088450
0.001433,0.008796,0.014761,0.037045,0.028896,0.0040127,0.0083354
0.001598,0.008748,0.016091,0.040867,0.026724,0.0039584,0.0078404
0.001769,0.008603,0.017385,0.044664,0.024592,0.0039067,0.0073665
0.001963,0.008468,0.018499,0.048379,0.022615,0.0038785,0.0069412
0.002335,0.008325,0.019477,0.052476,0.020871,0.0038511,0.0064752
0.002666,0.008149,0.020110,0.056687,0.020783,0.0038468,0.0060285
0.002915,0.007929,0.020532,0.061398,0.020714,0.0038735,0.0056188
0.003223,0.007753,0.020902,0.065504,0.020954,0.0039156,0.0052158
0.003576,0.007590,0.021287,0.068697,0.021254,0.0039624,0.0048819
0.003812,0.007532,0.021805,0.071184,0.021612,0.0040116,0.0045708
0.004102,0.007623,0.022359,0.072648,0.021901,0.0040640,0.0042792
0.004286,0.007656,0.022845,0.073186,0.021990,0.0041599,0.0041036
0.004547,0.007690,0.023347,0.073344,0.021988,0.0042887,0.0039772
0.004790,0.007775,0.023682,0.073577,0.022041,0.0043559,0.0038782
0.004917,0.007870,0.024172,0.073302,0.022098,0.0044026,0.0038190
0.004891,0.007961,0.024599,0.073566,0.022040,0.0044631,0.0038007
0.004990,0.008113,0.025015,0.073708,0.021968,0.0044940,0.0037842
0.005344,0.008348,0.025177,0.074197,0.021918,0.0045288,0.0037460
0.005897,0.008601,0.025187,0.075512,0.021905,0.0045685,0.0036911
0.006515,0.008866,0.025198,0.076200,0.021918,0.0046126,0.0036437
0.007039,0.009110,0.025205,0.076499,0.021916,0.0046979,0.0036112
0.007435,0.009362,0.024897,0.076516,0.021859,0.0047766,0.0036235
0.007782,0.009663,0.024552,0.076082,0.021737,0.0048254,0.0036571
0.008107,0.009942,0.024229,0.075694,0.021614,0.0048625,0.0036860
0.008333,0.010208,0.024123,0.075190,0.021485,0.0048799,0.0037348
0.008275,0.010462,0.024143,0.074134,0.021347,0.0049038,0.0038215
0.008122,0.010731,0.024145,0.073222,0.021207,0.0049335,0.0039335
0.008368,0.011022,0.024186,0.071383,0.021065,0.0049398,0.0040301
0.009073,0.011295,0.024104,0.069325,0.020906,0.0049365,0.0041112
0.009772,0.011488,0.023759,0.067903,0.020754,0.0049627,0.0042236
0.010500,0.011575,0.023289,0.067287,0.020623,0.0050001,0.0043454
0.011124,0.011614,0.022726,0.067545,0.020516,0.0050413,0.0044975
0.011760,0.011640,0.022143,0.067986,0.020428,0.0050688,0.0046765
0.012569,0.011675,0.021622,0.067685,0.020370,0.0050330,0.0048486
0.013447,0.011723,0.021248,0.066949,0.020325,0.0049840,0.0050121
0.014447,0.011808,0.020955,0.066607,0.020342,0.0048927,0.0051359
0.015459,0.011897,0.020772,0.066768,0.020402,0.0048116,0.0052359
0.016124,0.011847,0.020620,0.067140,0.020459,0.0047666,0.0053472
0.016371,0.011699,0.020572,0.067420,0.020467,0.0047241,0.0054925
0.016421,0.011495,0.020596,0.067377,0.020426,0.0046937,0.0056622
0.016408,0.011268,0.020650,0.067222,0.020375,0.0046760,0.0058292
0.016420,0.011061,0.020739,0.067019,0.020272,0.0046371,0.0059904
0.016675,0.010946,0.020777,0.066685,0.020176,0.0045950,0.0061399
0.017040,0.010907,0.020861,0.066354,0.020133,0.0045484,0.0062662
0.017416,0.010864,0.020906,0.066009,0.020110,0.0045235,0.0064293
0.017873,0.010834,0.020863,0.065820,0.020058,0.0045058,0.0065986
0.018403,0.010814,0.020806,0.065976,0.019978,0.0044848,0.0067567
0.018923,0.010806,0.020799,0.065939,0.019894,0.0044711,0.0069008
0.018660,0.010791,0.020854,0.066370,0.019782,0.0044770,0.0070785
0.017782,0.010765,0.020988,0.066889,0.019658,0.0045029,0.0072900
0.016951,0.010741,0.021256,0.066666,0.019533,0.0045109,0.0074956
0.016253,0.010743,0.021548,0.065623,0.019399,0.0045190,0.0076720
0.015640,0.010724,0.021777,0.064155,0.019252,0.0045326,0.0078207
0.014970,0.010738,0.021786,0.062819,0.019159,0.0045374,0.0079256
0.014164,0.010756,0.021736,0.062047,0.019004,0.0045588,0.0081062
0.013326,0.010751,0.021649,0.061562,0.018828,0.0045976,0.0082929
0.012536,0.010720,0.021389,0.061147,0.018640,0.0046392,0.0085214
0.011808,0.010706,0.020984,0.060536,0.018444,0.0046485,0.0087744
0.011357,0.010789,0.020471,0.059727,0.018226,0.0046519,0.0090306
0.010971,0.010880,0.019781,0.059487,0.018002,0.0046685,0.0093122
0.010648,0.011005,0.019038,0.059663,0.017836,0.0046594,0.0095965
0.010522,0.011147,0.018263,0.060056,0.017702,0.0046326,0.0098490
0.010370,0.011226,0.017455,0.060495,0.017641,0.0046262,0.0100833
0.009788,0.011122,0.016650,0.060858,0.017566,0.0046440,0.0103288
0.009136,0.010922,0.015787,0.060881,0.017447,0.0046643,0.0106179
0.008482,0.010726,0.014902,0.060903,0.017301,0.0046840,0.0108652
0.007823,0.010527,0.014036,0.060984,0.017143,0.0047039,0.0110878
0.007238,0.010311,0.013179,0.060498,0.017039,0.0047200,0.0112790
0.006824,0.010066,0.012298,0.059596,0.016915,0.0047254,0.0114714
0.006898,0.009808,0.011410,0.058672,0.016807,0.0047360,0.0116504
0.007188,0.009570,0.010551,0.057740,0.016741,0.0047453,0.0117922
0.007547,0.009379,0.009693,0.057493,0.016720,0.0047539,0.0118960
0.007898,0.009199,0.008882,0.057815,0.016714,0.0047513,0.0120100
0.008211,0.009042,0.008229,0.058264,0.016728,0.0047552,0.0121330
0.008461,0.008919,0.007762,0.058242,0.016705,0.0047924,0.0122605
0.008690,0.008777,0.007321,0.058014,0.016781,0.0048547,0.0122750
0.008892,0.008632,0.006949,0.057634,0.016853,0.0049217,0.0122872
0.009003,0.008492,0.006651,0.057323,0.016893,0.0050167,0.0123000
0.009062,0.008375,0.006440,0.057384,0.016940,0.0051340,0.0122927
0.009087,0.008266,0.006291,0.057967,0.017031,0.0052532,0.0122585
0.009223,0.008264,0.006228,0.057934,0.017158,0.0053631,0.0121688
0.009457,0.008338,0.006158,0.057902,0.017246,0.0054831,0.0120665
0.009492,0.008413,0.006104,0.057865,0.017322,0.0055977,0.0120025
0.009696,0.008567,0.006060,0.057602,0.017414,0.0056852,0.0119218
0.010161,0.008823,0.006026,0.057205,0.017533,0.0057542,0.0118309
0.010599,0.009146,0.006028,0.057131,0.017709,0.0058121,0.0116945
0.011019,0.009487,0.006080,0.057159,0.017924,0.0058611,0.0115812
0.011485,0.009835,0.006136,0.057148,0.018179,0.0058985,0.0114809
0.012097,0.010193,0.006162,0.057582,0.018439,0.0059348,0.0113872
0.012636,0.010596,0.006183,0.058278,0.018738,0.0059713,0.0112873
0.013033,0.011026,0.006178,0.059631,0.019041,0.0059791,0.0111696
0.013404,0.011422,0.006162,0.061341,0.019311,0.0059721,0.0110456
0.013622,0.011787,0.006142,0.063293,0.019514,0.0059780,0.0109321
0.013819,0.012152,0.006045,0.064922,0.019708,0.0059833,0.0108117
0.014007,0.012438,0.005909,0.066710,0.019838,0.0059698,0.0106893
0.014321,0.012650,0.005781,0.068927,0.019942,0.0059196,0.0105810
0.014723,0.012847,0.005651,0.071165,0.019989,0.0058592,0.0105015
0.015159,0.013054,0.005533,0.073311,0.020073,0.0058161,0.0103892
0.015624,0.013217,0.005439,0.075178,0.020214,0.0057815,0.0102132
0.016045,0.013301,0.005339,0.076619,0.020350,0.0057479,0.0100471
0.016566,0.013331,0.005260,0.077019,0.020447,0.0057212,0.0098999
0.017068,0.013141,0.005239,0.077086,0.020513,0.0057043,0.0098075
0.017318,0.012846,0.005264,0.076876,0.020541,0.0056990,0.0097443
0.017315,0.012530,0.005306,0.076997,0.020492,0.0057414,0.0096876
0.017067,0.012156,0.005356,0.077426,0.020405,0.0058123,0.0096591
0.016816,0.011771,0.005430,0.078232,0.020289,0.0059337,0.0096148
0.016690,0.011348,0.005521,0.078928,0.020192,0.0060624,0.0095410
0.016818,0.010926,0.005626,0.079556,0.020111,0.0061625,0.0094530
0.016743,0.010487,0.005751,0.080222,0.019995,0.0062843,0.0093833
0.016231,0.010031,0.005919,0.081787,0.019835,0.0064171,0.0093488
0.015704,0.009531,0.006103,0.083460,0.019665,0.0065659,0.0093149
0.015289,0.008998,0.006303,0.084122,0.019475,0.0067464,0.0093150
0.014816,0.008492,0.006533,0.083768,0.019293,0.0069456,0.0093421
0.014326,0.008008,0.006781,0.083058,0.019153,0.0071365,0.0093764
0.013831,0.007497,0.007070,0.082340,0.019037,0.0073457,0.0094104
0.013272,0.007060,0.007361,0.081438,0.018952,0.0075601,0.0094355
0.012617,0.006667,0.007646,0.080456,0.018897,0.0077708,0.0094439
0.011911,0.006358,0.007904,0.079499,0.018867,0.0079526,0.0094621
0.011249,0.006088,0.008146,0.078626,0.018787,0.0081006,0.0094994
0.010594,0.005874,0.008376,0.077976,0.018728,0.0082053,0.0095320
0.010010,0.005723,0.008582,0.077567,0.018688,0.0082911,0.0095301
0.009365,0.005629,0.008742,0.077992,0.018692,0.0083415,0.0094693
0.008795,0.005741,0.008853,0.078349,0.018736,0.0083572,0.0093621
0.008415,0.005879,0.008932,0.078625,0.018792,0.0083595,0.0092331
0.008231,0.006042,0.008984,0.078359,0.018906,0.0082813,0.0090913
0.007975,0.006224,0.009021,0.078280,0.018973,0.0081837,0.0089565
0.007485,0.006419,0.009067,0.077830,0.018973,0.0080456,0.0088458
0.007041,0.006636,0.009069,0.077420,0.019000,0.0078878,0.0087395
0.006585,0.006856,0.009076,0.076154,0.019046,0.0077425,0.0085926
0.006312,0.007119,0.009063,0.074433,0.019152,0.0075727,0.0084188
0.006347,0.007500,0.009058,0.071652,0.019287,0.0073689,0.0081926
0.006250,0.007929,0.009097,0.069938,0.019456,0.0071289,0.0079613
0.006183,0.008409,0.009115,0.069026,0.019677,0.0068763,0.0076960
0.006395,0.008991,0.009086,0.068809,0.019911,0.0065941,0.0074129
0.006777,0.009617,0.009042,0.068692,0.020146,0.0062966,0.0071264
0.007159,0.010269,0.009011,0.068782,0.020367,0.0059883,0.0068448
0.007596,0.010901,0.009009,0.069163,0.020604,0.0056777,0.0065674
0.008026,0.011521,0.008995,0.069626,0.020843,0.0053968,0.0063076
0.008448,0.012081,0.009000,0.070216,0.021066,0.0051309,0.0060516
0.008812,0.012599,0.009032,0.070834,0.021303,0.0048702,0.0058021
0.009153,0.013093,0.009060,0.071864,0.021494,0.0046489,0.0055850
0.009648,0.013499,0.009111,0.073145,0.021715,0.0044321,0.0053848
0.010347,0.013894,0.009208,0.074363,0.021954,0.0042163,0.0052095
0.011035,0.014182,0.009362,0.076071,0.022165,0.0040355,0.0050328
0.011833,0.014465,0.009551,0.077394,0.022428,0.0038672,0.0048421
0.012769,0.014728,0.009787,0.078801,0.022702,0.0037371,0.0046529
0.013717,0.014979,0.010048,0.079905,0.023004,0.0036257,0.0044652
0.014695,0.015218,0.010292,0.081106,0.023361,0.0035109,0.0042837
0.015527,0.015477,0.010585,0.082090,0.023591,0.0034163,0.0041383
0.016100,0.015665,0.010838,0.083890,0.023777,0.0033324,0.0040302
0.016741,0.015805,0.011045,0.085142,0.023912,0.0032584,0.0039296
0.017329,0.015838,0.011212,0.086274,0.023995,0.0031937,0.0038596
0.018006,0.015774,0.011325,0.086617,0.024058,0.0031407,0.0037939
0.018572,0.015635,0.011457,0.086571,0.024102,0.0030802,0.0037223
0.018938,0.015374,0.011584,0.086386,0.024133,0.0030399,0.0036616
0.019202,0.015038,0.011696,0.085892,0.024122,0.0030147,0.0036006
0.019528,0.014657,0.011809,0.085203,0.024109,0.0029839,0.0035364
0.019886,0.014299,0.011882,0.084228,0.024098,0.0029613,0.0034779
0.020288,0.013948,0.011963,0.083142,0.024070,0.0029416,0.0034216
0.020666,0.013701,0.012033,0.081346,0.024045,0.0029306,0.0033726
0.020867,0.013503,0.012090,0.079096,0.023990,0.0029320,0.0033321
0.020852,0.013298,0.012146,0.076099,0.023909,0.0029429,0.0033188
0.020515,0.013151,0.012209,0.073153,0.023795,0.0029576,0.0033263
0.019903,0.013023,0.012211,0.070130,0.023614,0.0029838,0.0033576
0.019142,0.012927,0.012129,0.067137,0.023433,0.0030069,0.0034005
0.018223,0.012873,0.012059,0.064611,0.023229,0.0030229,0.0034406
0.017237,0.012890,0.011968,0.062175,0.023018,0.0030491,0.0034782
0.016530,0.012880,0.011862,0.059614,0.022843,0.0030527,0.0034962
0.016259,0.012907,0.011776,0.057110,0.022704,0.0030382,0.0034777
0.016052,0.012963,0.011686,0.054773,0.022621,0.0030236,0.0034586
0.016108,0.013171,0.011634,0.052551,0.022566,0.0030049,0.0034205
0.016045,0.013494,0.011738,0.051142,0.022526,0.0029787,0.0033772
0.016118,0.013855,0.011896,0.050141,0.022520,0.0029632,0.0033259
0.016210,0.014290,0.012133,0.048965,0.022475,0.0029781,0.0032795
0.016376,0.014771,0.012459,0.047766,0.022436,0.0029853,0.0032534
0.016575,0.015281,0.012818,0.046861,0.022423,0.0029853,0.0032265
0.016904,0.015844,0.013194,0.046448,0.022441,0.0029762,0.0031927
0.017248,0.016436,0.013549,0.046740,0.022487,0.0029619,0.0031525
0.017924,0.016914,0.013956,0.047316,0.022528,0.0029279,0.0030797
0.018944,0.017319,0.014426,0.047998,0.022603,0.0028743,0.0029803
0.020111,0.017631,0.014923,0.050138,0.022709,0.0028018,0.0028571
0.022180,0.017900,0.015354,0.052735,0.022888,0.0026937,0.0026963
0.024758,0.018172,0.015772,0.055520,0.023118,0.0025619,0.0025147
0.027588,0.018470,0.016170,0.057971,0.023316,0.0024361,0.0023223
0.030599,0.018719,0.016556,0.060329,0.023552,0.0023123,0.0021296
0.033752,0.018911,0.017022,0.062677,0.023798,0.0021730,0.0019346
0.036742,0.019100,0.017467,0.067007,0.024084,0.0020381,0.0017498
0.039405,0.019343,0.017954,0.071754,0.024372,0.0019084,0.0015665
0.041824,0.019595,0.018513,0.076717,0.024632,0.0017837,0.0014072
0.043840,0.019725,0.019120,0.081391,0.024847,0.0016775,0.0012954
0.045580,0.019656,0.019690,0.086745,0.025054,0.0015965,0.0012122
0.047008,0.019504,0.020299,0.092086,0.025241,0.0015264,0.0011816
0.048809,0.019381,0.020822,0.097465,0.025440,0.0014156,0.0011215
0.050768,0.019239,0.021287,0.102643,0.025649,0.0013040,0.0010460
0.052744,0.019093,0.021679,0.107529,0.025849,0.0011734,0.0009884
0.054589,0.018906,0.022040,0.112189,0.026021,0.0010527,0.0009537
0.056150,0.018691,0.022435,0.117641,0.026141,0.0009484,0.0009674
0.057327,0.018458,0.022840,0.123381,0.026287,0.0008560,0.0010503
0.058296,0.018253,0.023202,0.128701,0.026380,0.0007804,0.0011670
0.058795,0.018165,0.023465,0.133466,0.026439,0.0007371,0.0013261
0.058401,0.018132,0.023699,0.138333,0.026422,0.0007198,0.0015561
0.057613,0.018072,0.023927,0.142320,0.026371,0.0007218,0.0018177
0.056098,0.018030,0.024241,0.146307,0.026298,0.0007484,0.0021057
0.054225,0.018054,0.024583,0.150461,0.026214,0.0007886,0.0023863
0.052287,0.018191,0.024885,0.154620,0.026114,0.0008259,0.0026777
0.050485,0.018396,0.025202,0.157142,0.025921,0.0008673,0.0030424
0.048612,0.018590,0.025350,0.159717,0.025697,0.0009314,0.0034120
0.046992,0.018651,0.025412,0.160353,0.025434,0.0009886,0.0037907
0.045754,0.018610,0.025302,0.161193,0.025189,0.0010357,0.0041599
0.044755,0.018690,0.025068,0.162067,0.024970,0.0010853,0.0045128
0.044182,0.018948,0.024685,0.162393,0.024780,0.0011118,0.0048176
0.043893,0.019387,0.024228,0.161637,0.024567,0.0011362,0.0050930
0.043534,0.019687,0.023683,0.160753,0.024371,0.0011659,0.0053374
0.042574,0.019817,0.023045,0.160111,0.024155,0.0012639,0.0056557
0.040959,0.019936,0.022358,0.161420,0.023883,0.0013770,0.0060524
0.039150,0.020055,0.021650,0.163506,0.023613,0.0014900,0.0064690
0.037555,0.020211,0.020846,0.165787,0.023299,0.0016080,0.0068916
0.036717,0.020403,0.019897,0.166457,0.023031,0.0016959,0.0072288
0.036364,0.020630,0.018885,0.165157,0.022693,0.0017760,0.0075099
0.036078,0.020885,0.017872,0.162969,0.022256,0.0018556,0.0078698
0.035762,0.021201,0.016897,0.161703,0.021830,0.0019302,0.0082585
0.035998,0.021514,0.015896,0.160629,0.021420,0.0019889,0.0086237
0.036237,0.021812,0.014862,0.160795,0.020967,0.0020577,0.0090563
0.036485,0.022077,0.013785,0.161526,0.020468,0.0021296,0.0095215
0.036918,0.022285,0.012673,0.162268,0.019901,0.0021876,0.0100392
0.037481,0.022313,0.011605,0.162970,0.019333,0.0022442,0.0106007
0.037873,0.022262,0.010552,0.165433,0.018829,0.0022982,0.0110869
0.038252,0.022157,0.009619,0.167955,0.018395,0.0023362,0.0115632
0.038427,0.022055,0.008753,0.170275,0.018026,0.0023825,0.0119650
0.038560,0.021928,0.008002,0.171419,0.017658,0.0024260,0.0123631
0.038687,0.021724,0.007297,0.172335,0.017266,0.0024763,0.0127352
0.038571,0.021436,0.006669,0.173422,0.016857,0.0025456,0.0131277
0.038171,0.021011,0.006129,0.174845,0.016462,0.0026000,0.0135292
0.037733,0.020634,0.005633,0.176185,0.016045,0.0026588,0.0139403
0.037475,0.020227,0.005198,0.177732,0.015667,0.0026884,0.0143075
0.037805,0.019825,0.004825,0.177633,0.015352,0.0026929,0.0146008
0.038570,0.019426,0.004470,0.176866,0.015056,0.0026891,0.0148488
0.039536,0.019024,0.004142,0.174503,0.014859,0.0026778,0.0150341
0.039897,0.018614,0.003917,0.173751,0.014691,0.0026819,0.0152129
0.039821,0.018197,0.003738,0.175018,0.014611,0.0026921,0.0153525
0.039457,0.017751,0.003627,0.177795,0.014655,0.0027030,0.0154143
0.039154,0.017223,0.003524,0.180439,0.014733,0.0027034,0.0154148
0.038719,0.016688,0.003433,0.184378,0.014924,0.0027000,0.0153035
0.038593,0.016083,0.003393,0.187168,0.015188,0.0026692,0.0150748
0.038483,0.015467,0.003374,0.188787,0.015548,0.0026362,0.0147939
0.038512,0.014860,0.003380,0.188507,0.015991,0.0026063,0.0144071
0.038405,0.014306,0.003389,0.187720,0.016492,0.0025794,0.0139359
0.038378,0.013798,0.003407,0.186898,0.017028,0.0025541,0.0134341
0.038373,0.013411,0.003415,0.186195,0.017576,0.0025226,0.0128798
0.038652,0.013139,0.003402,0.185992,0.018096,0.0024867,0.0123722
0.038892,0.012934,0.003374,0.186688,0.018592,0.0024573,0.0118729
0.038939,0.012731,0.003352,0.188772,0.019081,0.0024263,0.0113999
0.038918,0.012530,0.003345,0.192063,0.019590,0.0023903,0.0109338
0.039405,0.012447,0.003336,0.196158,0.020143,0.0023305,0.0104475
0.040057,0.012512,0.003315,0.200783,0.020689,0.0022536,0.0099428
0.041050,0.012682,0.003293,0.205077,0.021243,0.0021775,0.0094207
0.042027,0.012849,0.003260,0.209095,0.021832,0.0021085,0.0089021
0.042703,0.013029,0.003234,0.213027,0.022430,0.0020505,0.0083894
0.043023,0.013236,0.003217,0.218577,0.023004,0.0019999,0.0079019
0.043110,0.013436,0.003201,0.223175,0.023541,0.0019577,0.0074608
0.043325,0.013612,0.003180,0.226829,0.024018,0.0019200,0.0070581
0.044197,0.013818,0.003132,0.228302,0.024532,0.0018644,0.0066155
0.045115,0.014033,0.003094,0.230161,0.025038,0.0018058,0.0061808
0.046095,0.014237,0.003032,0.229980,0.025479,0.0017557,0.0058117
0.047083,0.014516,0.002951,0.229377,0.025923,0.0017212,0.0054524
0.048098,0.014788,0.002887,0.227890,0.026331,0.0016861,0.0051020
0.048915,0.015058,0.002830,0.227378,0.026693,0.0016519,0.0048216
0.049706,0.015338,0.002775,0.227258,0.026996,0.0016181,0.0045974
0.050321,0.015662,0.002727,0.227117,0.027296,0.0015894,0.0044024
0.050868,0.015981,0.002692,0.227307,0.027609,0.0015674,0.0042509
0.051014,0.016263,0.002680,0.227288,0.027913,0.0015531,0.0041167
0.051132,0.016495,0.002703,0.226790,0.028241,0.0015340,0.0039655
0.051170,0.016682,0.002729,0.224858,0.028555,0.0015197,0.0038280
0.051184,0.016813,0.002732,0.222171,0.028830,0.0015082,0.0037261
0.051032,0.016913,0.002732,0.217424,0.029065,0.0015141,0.0036376
0.051007,0.016905,0.002742,0.211686,0.029297,0.0015187,0.0035635
0.050361,0.016821,0.002763,0.205334,0.029527,0.0015453,0.0035349
0.049452,0.016668,0.002804,0.198617,0.029715,0.0015867,0.0035343
0.048323,0.016458,0.002860,0.191930,0.029853,0.0016320,0.0035517
0.047023,0.016213,0.002933,0.185230,0.029914,0.0016837,0.0035973
0.046024,0.015955,0.003000,0.178295,0.029937,0.0017239,0.0036546
0.045174,0.015678,0.003070,0.171299,0.029944,0.0017526,0.0037212
0.044038,0.015346,0.003143,0.165606,0.029926,0.0017937,0.0038228
0.043070,0.015016,0.003218,0.159186,0.029924,0.0018265,0.0039236
0.042371,0.014650,0.003307,0.153335,0.029935,0.0018439,0.0040128
0.041859,0.014281,0.003390,0.146204,0.029893,0.0018572,0.0041552
0.041320,0.013928,0.003455,0.140210,0.029800,0.0018730,0.0043216
0.040579,0.013575,0.003512,0.135036,0.029708,0.0018988,0.0044907
0.039794,0.013227,0.003563,0.130003,0.029656,0.0019296,0.0046332
0.039002,0.012831,0.003611,0.124896,0.029597,0.0019672,0.0047725
0.038253,0.012420,0.003647,0.119261,0.029467,0.0020105,0.0049063
0.037721,0.011964,0.003678,0.113445,0.029313,0.0020533,0.0050414
0.037343,0.011520,0.003699,0.107002,0.029093,0.0020995,0.0051941
0.037106,0.011101,0.003721,0.100452,0.028883,0.0021420,0.0053295
0.036754,0.010744,0.003739,0.094045,0.028684,0.0022045,0.0054539
0.036106,0.010384,0.003770,0.088645,0.028466,0.0022808,0.0055961
0.035358,0.010060,0.003812,0.083590,0.028256,0.0023628,0.0057102
0.034898,0.009770,0.003859,0.079091,0.028014,0.0024376,0.0058126
0.034450,0.009544,0.003887,0.074977,0.027768,0.0025178,0.0059075
0.034200,0.009358,0.003908,0.070880,0.027493,0.0026045,0.0059915
0.034225,0.009166,0.003930,0.066630,0.027255,0.0026820,0.0060501
0.034320,0.008989,0.003950,0.062512,0.027079,0.0027751,0.0060926
0.034333,0.008826,0.003970,0.058629,0.026923,0.0028974,0.0061190
0.034298,0.008680,0.004012,0.054758,0.026752,0.0030153,0.0061282
0.033915,0.008531,0.004063,0.050763,0.026540,0.0031551,0.0061594
0.032938,0.008610,0.004101,0.046227,0.026248,0.0033371,0.0062171
0.031431,0.008905,0.004157,0.042850,0.025978,0.0035505,0.0062278
0.029913,0.009653,0.004188,0.039788,0.025650,0.0037647,0.0062266
0.028538,0.010845,0.004179,0.036828,0.025297,0.0040519,0.0061895
0.027067,0.012273,0.004136,0.033877,0.024876,0.0043837,0.0061620
0.025541,0.014013,0.004085,0.030954,0.024491,0.0046996,0.0061299
0.023998,0.016089,0.004018,0.028010,0.024082,0.0050371,0.0060887
0.022369,0.018419,0.003921,0.025134,0.023697,0.0053936,0.0060341
0.020621,0.020737,0.003848,0.023010,0.023366,0.0057427,0.0059848
0.018887,0.023001,0.003787,0.021151,0.022976,0.0061218,0.0059471
0.017334,0.025064,0.003748,0.019352,0.022630,0.0064808,0.0058778
0.015939,0.026977,0.003699,0.017850,0.022306,0.0068462,0.0058079
0.014552,0.028825,0.003644,0.016560,0.021971,0.0071999,0.0057661
0.013232,0.030596,0.003598,0.015290,0.021637,0.0074910,0.0057158
0.011956,0.032203,0.003574,0.014001,0.021328,0.0078065,0.0056673
0.010726,0.033652,0.003611,0.012818,0.021089,0.0081028,0.0055948
0.009473,0.034914,0.003644,0.011763,0.020842,0.0083949,0.0055353
0.008201,0.036266,0.003650,0.010802,0.020497,0.0086624,0.0054890
0.006921,0.037952,0.003600,0.009951,0.020192,0.0088673,0.0054459
0.005679,0.039575,0.003546,0.009099,0.019897,0.0090810,0.0054261
0.004659,0.041232,0.003481,0.008267,0.019616,0.0092711,0.0054208
0.004066,0.042470,0.003482,0.007772,0.019369,0.0094966,0.0054060
0.003779,0.043416,0.003460,0.007734,0.019127,0.0097127,0.0054154
0.003508,0.043624,0.003496,0.007712,0.019004,0.0098972,0.0054201
0.003268,0.043274,0.003555,0.007634,0.018958,0.0099892,0.0054756
0.003197,0.042809,0.003686,0.007550,0.019013,0.0100659,0.0055236
0.003178,0.041850,0.003874,0.007417,0.019066,0.0101454,0.0055692
0.003213,0.040347,0.004091,0.007290,0.019227,0.0102074,0.0056296
0.003384,0.038596,0.004384,0.007143,0.019393,0.0102389,0.0057015
0.003537,0.036842,0.004730,0.007003,0.019530,0.0103089,0.0057437
0.003646,0.034932,0.005087,0.006851,0.019755,0.0103324,0.0057950
0.003713,0.033172,0.005436,0.006698,0.020041,0.0102614,0.0058383
0.003783,0.031515,0.005868,0.006521,0.020292,0.0102214,0.0058859
0.003794,0.029951,0.006255,0.006386,0.021029,0.0102120,0.0059031
0.003794,0.028531,0.006692,0.006251,0.021790,0.0102428,0.0059196
0.003799,0.027159,0.007129,0.006176,0.022529,0.0101990,0.0059220
0.003808,0.025983,0.007508,0.006096,0.023274,0.0101930,0.0059413
0.003792,0.025208,0.007817,0.006017,0.023916,0.0101794,0.0059567
0.003745,0.024476,0.008064,0.005988,0.024653,0.0101499,0.0059507
0.003712,0.023532,0.008431,0.005943,0.025337,0.0102284,0.0059364
0.003660,0.022652,0.008791,0.005963,0.026019,0.0102884,0.0059014
0.003612,0.021732,0.009132,0.005998,0.026683,0.0103548,0.0058409
0.003559,0.021096,0.009469,0.006024,0.027089,0.0103350,0.0058012
0.003501,0.020665,0.009842,0.006025,0.027231,0.0102805,0.0057504
0.003401,0.020515,0.010104,0.006006,0.027349,0.0102557,0.0057065
0.003292,0.020575,0.010391,0.005923,0.027345,0.0102360,0.0056705
0.003140,0.020332,0.010749,0.005844,0.027508,0.0102469,0.0056366
0.003003,0.020173,0.011110,0.005757,0.027849,0.0102580,0.0056230
0.002853,0.020008,0.011493,0.005619,0.028131,0.0101743,0.0056292
0.002692,0.020037,0.011769,0.005460,0.028392,0.0101010,0.0056535
0.002564,0.020199,0.012044,0.005266,0.028655,0.0100265,0.0057091
0.002467,0.020617,0.012277,0.005112,0.028904,0.0099969,0.0057513
0.002389,0.021006,0.012453,0.004977,0.029033,0.0100380,0.0057956
0.002315,0.021340,0.012571,0.004870,0.029211,0.0100529,0.0058388
0.002290,0.021596,0.012713,0.004731,0.028916,0.0100456,0.0059058
0.002272,0.021744,0.012765,0.004665,0.028833,0.0100943,0.0059680
0.002226,0.022047,0.012745,0.004590,0.028469,0.0101193,0.0060374
0.002192,0.022330,0.012697,0.004542,0.028055,0.0101564,0.0061023
0.002170,0.022414,0.012693,0.004530,0.027759,0.0102348,0.0061517
0.002166,0.022117,0.012775,0.004454,0.027485,0.0103213,0.0062213
0.002132,0.021663,0.012699,0.004360,0.027434,0.0102904,0.0063159
0.002081,0.021191,0.012648,0.004243,0.027527,0.0102816,0.0064042
0.002022,0.020731,0.012603,0.004174,0.027679,0.0102779,0.0064791
0.001947,0.020249,0.012549,0.004097,0.028100,0.0102909,0.0065513
0.001869,0.019650,0.012499,0.004008,0.028673,0.0102826,0.0066445
0.001817,0.019145,0.012524,0.003932,0.029131,0.0102268,0.0067334
0.001754,0.018479,0.012561,0.003933,0.029626,0.0102086,0.0067835
0.001688,0.018101,0.012416,0.003918,0.030141,0.0101034,0.0068420
0.001613,0.017810,0.012199,0.003938,0.030487,0.0099968,0.0068943
0.001532,0.017748,0.011975,0.004037,0.030793,0.0099828,0.0069211
0.001484,0.017631,0.011906,0.004198,0.030815,0.0099867,0.0069081
0.001423,0.017319,0.011757,0.004404,0.030825,0.0099533,0.0068923
0.001368,0.016866,0.011572,0.004616,0.030899,0.0099099,0.0068647
0.001305,0.016502,0.011448,0.004799,0.031039,0.0098876,0.0068495
0.001240,0.016328,0.011232,0.005006,0.031142,0.0098547,0.0068086
0.001174,0.016179,0.011026,0.005224,0.031261,0.0098185,0.0067668
0.001135,0.015972,0.010893,0.005402,0.031025,0.0097046,0.0067322
0.001069,0.015680,0.010846,0.005774,0.030962,0.0096335,0.0066881
0.000988,0.015422,0.010851,0.006169,0.030954,0.0095018,0.0066380
0.000911,0.015137,0.010786,0.006489,0.030942,0.0092794,0.0065951
0.000838,0.015039,0.010652,0.006813,0.030870,0.0090760,0.0065492
0.000782,0.014983,0.010612,0.007148,0.030565,0.0089390,0.0064860
0.000761,0.014914,0.010577,0.007464,0.030107,0.0088227,0.0064164
0.000759,0.014804,0.010508,0.007741,0.029579,0.0086702,0.0063478
0.000749,0.014581,0.010386,0.008101,0.029112,0.0085256,0.0062749
0.000734,0.014364,0.010231,0.008505,0.028737,0.0084165,0.0061772
0.000747,0.014070,0.010030,0.008824,0.028743,0.0083448,0.0060866
0.000804,0.013829,0.009770,0.008944,0.028829,0.0082506,0.0060042
0.000866,0.013473,0.009579,0.009113,0.028692,0.0081826,0.0059138
0.000930,0.013105,0.009417,0.009307,0.028511,0.0081171,0.0058237
0.001127,0.012722,0.009293,0.010110,0.028366,0.0080178,0.0057531
0.001274,0.012375,0.009124,0.011706,0.028479,0.0078622,0.0057012
0.001553,0.012106,0.009829,0.013684,0.028592,0.0077062,0.0056321
0.002386,0.012005,0.010964,0.016582,0.028640,0.0075343,0.0055151
0.003442,0.011924,0.012155,0.019598,0.028634,0.0073993,0.0053632
0.004499,0.011954,0.013785,0.022874,0.028407,0.0072853,0.0052203
0.005530,0.012019,0.015591,0.026261,0.028009,0.0072458,0.0050702
0.007188,0.012225,0.018103,0.029547,0.027750,0.0072242,0.0048617
0.008976,0.012817,0.020975,0.032530,0.027585,0.0071916,0.0046576
0.010935,0.013692,0.024012,0.035596,0.027419,0.0071264,0.0044513
0.012799,0.014806,0.027471,0.039214,0.027216,0.0071189,0.0042442
0.014817,0.016032,0.031119,0.042398,0.027037,0.0070774,0.0040502
0.016942,0.017338,0.034496,0.045150,0.026860,0.0069714,0.0038924
0.018716,0.018611,0.037477,0.047383,0.026650,0.0068489,0.0037904
0.020031,0.019828,0.040618,0.049335,0.026458,0.0067416,0.0037556
0.021487,0.021246,0.043657,0.051586,0.026191,0.0066003,0.0037650
0.023152,0.023075,0.046355,0.053718,0.025933,0.0064583,0.0037829
0.025143,0.025010,0.049085,0.055567,0.025247,0.0063148,0.0039376
0.027024,0.027028,0.051479,0.057590,0.024471,0.0061015,0.0041818
0.028525,0.028906,0.053592,0.059573,0.023575,0.0059515,0.0045117
0.030180,0.030615,0.055434,0.061707,0.022637,0.0058930,0.0048835
0.031922,0.032251,0.057297,0.062906,0.021700,0.0058946,0.0052311
0.033538,0.033556,0.058787,0.063037,0.020768,0.0059934,0.0056103
0.035149,0.035056,0.059145,0.061897,0.019875,0.0061361,0.0060041
0.036111,0.036624,0.058914,0.059735,0.018891,0.0063198,0.0065165
0.036844,0.038229,0.058605,0.057233,0.017916,0.0064424,0.0070788
0.037552,0.039677,0.058032,0.054734,0.017150,0.0065753,0.0076372
0.038172,0.041027,0.057283,0.052214,0.016524,0.0066683,0.0081926
0.038131,0.041714,0.055856,0.049607,0.015900,0.0067520,0.0087794
0.038032,0.041903,0.054039,0.047117,0.015335,0.0068534,0.0093463
0.037896,0.041717,0.052002,0.044807,0.014929,0.0069495,0.0097682
0.038181,0.041569,0.049557,0.042265,0.014530,0.0070080,0.0102183
0.038433,0.041284,0.047070,0.040105,0.014169,0.0070161,0.0106415
0.038570,0.040803,0.044774,0.038360,0.013813,0.0070281,0.0110566
0.039062,0.040391,0.042821,0.037081,0.013459,0.0070282,0.0114534
0.039792,0.039906,0.040771,0.035825,0.013072,0.0070323,0.0118511
0.040725,0.039041,0.038841,0.034253,0.012754,0.0070960,0.0121602
0.041891,0.037692,0.036978,0.032993,0.012506,0.0071610,0.0124362
0.042700,0.036227,0.034954,0.032065,0.012426,0.0072443,0.0126167
0.043728,0.034806,0.033224,0.030501,0.012329,0.0074151,0.0127756
0.045149,0.033720,0.031787,0.028919,0.012360,0.0074570,0.0128877
0.046592,0.032833,0.030715,0.027707,0.012355,0.0073898,0.0130511
0.047623,0.032243,0.029519,0.027020,0.012288,0.0073286,0.0132514
0.048698,0.031659,0.028739,0.026745,0.012290,0.0072157,0.0133601
0.049348,0.030929,0.028018,0.027231,0.012278,0.0071068,0.0134728
0.050039,0.030130,0.027447,0.028153,0.012340,0.0069715,0.0135046
0.050812,0.029163,0.026796,0.029459,0.012472,0.0069032,0.0134876
0.051602,0.027951,0.025976,0.030607,0.012614,0.0068249,0.0134637
0.052624,0.026786,0.025129,0.031704,0.012741,0.0066454,0.0135537
0.053049,0.026227,0.024179,0.033788,0.012797,0.0065203,0.0136659
0.053417,0.025861,0.023249,0.035783,0.012813,0.0063944,0.0138009
0.053948,0.025445,0.022276,0.037565,0.012726,0.0062519,0.0140503
0.054409,0.024720,0.021324,0.039041,0.012700,0.0061260,0.0142224
0.054619,0.023986,0.020252,0.040726,0.012751,0.0060948,0.0142705
0.054791,0.023265,0.019197,0.042179,0.012887,0.0060729,0.0142678
0.054726,0.022308,0.018067,0.043674,0.012936,0.0060531,0.0144377
0.054798,0.021655,0.016910,0.045771,0.012987,0.0060353,0.0145994
0.054958,0.021265,0.015687,0.047933,0.013033,0.0059756,0.0147735
0.054512,0.020973,0.014711,0.050035,0.012967,0.0058845,0.0150689
0.054336,0.020713,0.013899,0.052502,0.012909,0.0057515,0.0152991
0.054006,0.020379,0.013177,0.055693,0.012997,0.0055274,0.0153704
0.053646,0.019854,0.012458,0.058303,0.013135,0.0053565,0.0153398
0.053805,0.019383,0.011616,0.061014,0.013408,0.0051758,0.0151655
0.054374,0.018688,0.010818,0.063788,0.013746,0.0049433,0.0149593
0.054576,0.018164,0.009913,0.066387,0.014009,0.0047232,0.0148459
0.054834,0.017563,0.009185,0.068710,0.014261,0.0044775,0.0147681
0.055163,0.016927,0.008478,0.070610,0.014450,0.0042413,0.0147244
0.055594,0.016462,0.007814,0.072023,0.014486,0.0039666,0.0148120
0.056139,0.016130,0.007194,0.073924,0.014710,0.0036516,0.0147122
0.056700,0.015743,0.006631,0.075296,0.014934,0.0033955,0.0145482
0.057763,0.015363,0.006121,0.076252,0.015248,0.0031165,0.0143121
0.058716,0.015001,0.005601,0.077049,0.015559,0.0028658,0.0140833
0.059664,0.014891,0.005102,0.078013,0.015820,0.0026766,0.0138755
0.060488,0.014892,0.004644,0.079236,0.016066,0.0025058,0.0136995
0.061094,0.014949,0.004236,0.080641,0.016129,0.0023386,0.0136823
0.060806,0.015231,0.003910,0.082340,0.016088,0.0022361,0.0136785
0.060713,0.015736,0.003696,0.084056,0.016180,0.0021221,0.0134539
0.060845,0.016159,0.003483,0.085627,0.016341,0.0020142,0.0131860
0.060915,0.016579,0.003341,0.087109,0.016541,0.0018884,0.0129075
0.061380,0.016919,0.003247,0.088560,0.017000,0.0017715,0.0123763
0.061570,0.017321,0.003165,0.090101,0.017530,0.0016878,0.0118126
0.061384,0.017706,0.003076,0.091600,0.017987,0.0016909,0.0113382
0.060690,0.018099,0.002985,0.093224,0.018450,0.0017300,0.0108817
0.059245,0.018517,0.002903,0.093922,0.018877,0.0018061,0.0104646
0.057145,0.018750,0.002858,0.094064,0.019262,0.0019168,0.0100829
0.055201,0.018931,0.002840,0.093691,0.019663,0.0020172,0.0097064
0.053608,0.019073,0.002855,0.092931,0.020103,0.0021044,0.0092678
0.052256,0.019039,0.002941,0.091347,0.020645,0.0021612,0.0087881
0.050679,0.018868,0.003064,0.090077,0.021309,0.0022257,0.0082105
0.048969,0.018746,0.003178,0.088025,0.021853,0.0023062,0.0078086
0.046768,0.018744,0.003273,0.086294,0.022409,0.0024109,0.0073760
0.044036,0.018744,0.003348,0.084068,0.022818,0.0025429,0.0070815
0.041256,0.018622,0.003437,0.081576,0.023164,0.0026765,0.0067936
0.038303,0.018318,0.003576,0.078033,0.023514,0.0028182,0.0065309
0.035255,0.017915,0.003723,0.074065,0.023811,0.0029515,0.0063270
0.032591,0.017422,0.003885,0.069665,0.024164,0.0030802,0.0061083
0.030902,0.016865,0.004020,0.065167,0.024608,0.0031740,0.0058979
0.029215,0.016331,0.004132,0.060676,0.025087,0.0032820,0.0057062
0.027366,0.015748,0.004227,0.055984,0.025545,0.0034035,0.0055346
0.025064,0.015157,0.004280,0.051209,0.025907,0.0035670,0.0054635
0.022474,0.014631,0.004340,0.046309,0.026128,0.0037564,0.0055548
0.019879,0.014043,0.004404,0.041005,0.026181,0.0039602,0.0057158
0.017658,0.013384,0.004472,0.035632,0.026183,0.0041492,0.0058920
0.015932,0.012687,0.004523,0.030750,0.026150,0.0043253,0.0061149
0.014264,0.011876,0.004622,0.026170,0.026096,0.0044939,0.0063316
0.013055,0.011227,0.004692,0.021763,0.026036,0.0046427,0.0065843
0.012142,0.010733,0.004718,0.017898,0.026007,0.0047874,0.0067780
0.011100,0.010311,0.004736,0.014788,0.025895,0.0049431,0.0069903
0.009744,0.010011,0.004759,0.012553,0.025757,0.0051039,0.0072384
0.008446,0.009697,0.004814,0.010317,0.025527,0.0052584,0.0074922
0.007181,0.009431,0.004934,0.008285,0.025248,0.0054007,0.0077486
0.006285,0.009150,0.005029,0.006418,0.024955,0.0055195,0.0079873
0.006032,0.008918,0.005119,0.004657,0.024816,0.0055975,0.0081490
0.005964,0.009211,0.005130,0.003414,0.024714,0.0056698,0.0082743
0.005760,0.009577,0.005113,0.003040,0.024604,0.0057601,0.0083359
0.005503,0.009919,0.005125,0.002820,0.024550,0.0058494,0.0083675
0.005204,0.010408,0.005087,0.002740,0.024470,0.0059361,0.0083721
0.004864,0.010844,0.005086,0.002739,0.024355,0.0060349,0.0083780
0.004541,0.011324,0.005118,0.002722,0.024302,0.0061658,0.0083958
0.004350,0.011913,0.005134,0.002738,0.024312,0.0062953,0.0083886
0.004267,0.012203,0.005205,0.002792,0.024429,0.0063938,0.0083311
0.004254,0.012339,0.005261,0.002852,0.024913,0.0064711,0.0082790
0.004263,0.012468,0.005275,0.002924,0.025636,0.0065313,0.0082041
0.004301,0.012628,0.005291,0.003046,0.026417,0.0065832,0.0081038
0.004441,0.012823,0.005320,0.003136,0.027214,0.0066420,0.0080076
0.004569,0.013129,0.005295,0.003242,0.027968,0.0067155,0.0079019
0.004638,0.013430,0.005280,0.003446,0.028601,0.0068189,0.0077127
0.004657,0.013567,0.005301,0.003633,0.029126,0.0069225,0.0075472
0.004656,0.013631,0.005344,0.003796,0.029543,0.0070244,0.0074188
0.004716,0.013683,0.005430,0.003984,0.029454,0.0071180,0.0072667
0.004762,0.013831,0.005511,0.004194,0.029412,0.0072270,0.0071036
0.004704,0.014044,0.005518,0.004355,0.029371,0.0073134,0.0069690
0.004631,0.014467,0.005538,0.004519,0.029330,0.0073605,0.0068680
0.004559,0.014904,0.005568,0.004672,0.029182,0.0074287,0.0068076
0.004511,0.014944,0.005709,0.004799,0.029059,0.0075023,0.0067829
0.004452,0.015072,0.005841,0.004910,0.029000,0.0075511,0.0067945
0.004411,0.015475,0.005930,0.005008,0.028862,0.0076387,0.0068131
0.004380,0.015992,0.006085,0.005070,0.028755,0.0077719,0.0068373
0.004363,0.016514,0.006277,0.005091,0.028564,0.0079751,0.0068602
0.004338,0.016884,0.006487,0.005176,0.028247,0.0081352,0.0068322
0.004186,0.017095,0.006705,0.005208,0.027845,0.0082967,0.0068169
0.003999,0.017848,0.006860,0.005281,0.027347,0.0084966,0.0067710
0.003788,0.018850,0.007011,0.005362,0.026400,0.0087505,0.0067066
0.003578,0.020082,0.007157,0.005422,0.025228,0.0090659,0.0066398
0.003357,0.021326,0.007306,0.005462,0.024044,0.0093715,0.0065679
0.003026,0.023646,0.007208,0.005586,0.022852,0.0096139,0.0064778
0.002686,0.025955,0.007105,0.005728,0.021690,0.0098771,0.0064126
0.002385,0.028271,0.006994,0.005900,0.020747,0.0100728,0.0063535
0.002168,0.030499,0.006902,0.006056,0.019864,0.0102208,0.0063016
0.001988,0.032761,0.006703,0.006246,0.019176,0.0103227,0.0062477
0.001802,0.034918,0.006491,0.006412,0.018957,0.0105006,0.0062209
0.001622,0.036860,0.006339,0.006596,0.018753,0.0106346,0.0061890
0.001544,0.037707,0.006379,0.006726,0.018607,0.0107801,0.0061637
0.001482,0.038200,0.006499,0.006836,0.018450,0.0110164,0.0061171
0.001425,0.039026,0.006563,0.006933,0.018313,0.0112151,0.0060478
0.001358,0.040363,0.006524,0.007017,0.018068,0.0115199,0.0059563
0.001341,0.041515,0.006544,0.007052,0.017747,0.0118766,0.0058737
0.001334,0.042187,0.006661,0.007082,0.017524,0.0122062,0.0057572
0.001320,0.043185,0.006877,0.007099,0.017433,0.0123505,0.0056362
0.001292,0.044438,0.007068,0.007136,0.017393,0.0124259,0.0055210
0.001273,0.045938,0.007340,0.007091,0.017320,0.0125143,0.0054502
0.001370,0.047376,0.007714,0.007069,0.017242,0.0126319,0.0053840
0.001549,0.048552,0.008382,0.007004,0.017239,0.0126058,0.0053178
0.001749,0.049749,0.009213,0.006913,0.017277,0.0124644,0.0052499
0.001931,0.051165,0.010156,0.006797,0.017350,0.0122120,0.0051877
0.002070,0.052475,0.011082,0.006890,0.017370,0.0119470,0.0051379
0.002245,0.052814,0.012480,0.006930,0.017336,0.0117217,0.0050975
0.002437,0.052882,0.014132,0.006884,0.017306,0.0114527,0.0050581
0.002632,0.052894,0.015832,0.006786,0.017244,0.0112171,0.0050487
0.002733,0.052823,0.017533,0.006669,0.017231,0.0110006,0.0050364
0.002810,0.053202,0.019370,0.006525,0.017165,0.0108246,0.0050046
0.002873,0.053307,0.021169,0.006414,0.017224,0.0105628,0.0049716
0.002945,0.053930,0.022860,0.006289,0.017274,0.0103955,0.0049417
0.003043,0.055335,0.024237,0.006035,0.017300,0.0102694,0.0048977
0.003115,0.056891,0.025072,0.005870,0.017403,0.0100930,0.0048604
0.003201,0.058019,0.026061,0.005697,0.017512,0.0099238,0.0047949
0.003260,0.058823,0.027212,0.005490,0.017665,0.0096796,0.0047419
0.003266,0.059853,0.028030,0.005358,0.017807,0.0093896,0.0046946
0.003249,0.061015,0.028471,0.005308,0.017889,0.0092017,0.0046794
0.003238,0.061412,0.028840,0.005252,0.017768,0.0091560,0.0046968
0.003238,0.061195,0.029343,0.005153,0.017660,0.0090238,0.0047123
0.003244,0.060563,0.029850,0.005041,0.017592,0.0088750,0.0047266
0.003139,0.060080,0.030150,0.004985,0.017543,0.0087152,0.0047321
0.002948,0.059566,0.030084,0.004996,0.017471,0.0086788,0.0047677
0.002750,0.058185,0.029840,0.005007,0.017369,0.0087788,0.0048329
0.002564,0.055821,0.029617,0.005061,0.017304,0.0089557,0.0049049
0.002416,0.053545,0.029289,0.004916,0.017315,0.0091571,0.0049586
0.002269,0.050943,0.028448,0.004785,0.017354,0.0093855,0.0050370
0.002118,0.048513,0.027430,0.004706,0.017431,0.0096087,0.0051111
0.001980,0.045941,0.026301,0.004637,0.017489,0.0098424,0.0051817
0.001926,0.043785,0.025087,0.004561,0.017496,0.0101233,0.0052662
0.001902,0.041590,0.023758,0.004541,0.017565,0.0103373,0.0053316
0.001899,0.039787,0.022358,0.004482,0.017605,0.0104954,0.0053992
0.001890,0.037659,0.021039,0.004378,0.017707,0.0105642,0.0054574
0.001851,0.035938,0.019865,0.004490,0.017753,0.0105351,0.0055102
0.001815,0.034221,0.019050,0.004587,0.017872,0.0105427,0.0055314
0.001784,0.032617,0.018117,0.004697,0.018102,0.0105485,0.0055697
0.001775,0.030648,0.017050,0.004858,0.018443,0.0104486,0.0056066
0.001794,0.028179,0.016300,0.004952,0.018840,0.0103197,0.0056400
0.001833,0.025703,0.015880,0.004982,0.019254,0.0101235,0.0056647
0.001858,0.023501,0.015420,0.005055,0.019723,0.0099100,0.0056645
0.001866,0.021624,0.014730,0.005225,0.020219,0.0097794,0.0056633
0.002067,0.019954,0.013861,0.005464,0.020772,0.0096309,0.0056517
0.002284,0.018206,0.013103,0.005966,0.021253,0.0094188,0.0056291
0.002474,0.016554,0.012433,0.006733,0.021655,0.0092112,0.0055986
0.003052,0.015620,0.011803,0.007636,0.022146,0.0089234,0.0055244
0.003867,0.015235,0.011176,0.009944,0.022655,0.0085940,0.0054312
0.004888,0.014884,0.010789,0.014018,0.023199,0.0082374,0.0053164
0.005998,0.014986,0.011324,0.019581,0.023682,0.0078330,0.0051582
0.007500,0.015145,0.012673,0.024987,0.024115,0.0073957,0.0049754
0.008997,0.015563,0.014565,0.030393,0.024532,0.0069291,0.0047810
0.010370,0.016094,0.016833,0.036303,0.024893,0.0064405,0.0045988
0.011864,0.016322,0.019268,0.042474,0.025189,0.0060423,0.0044122
0.013636,0.016755,0.021734,0.048724,0.025443,0.0057088,0.0041900
0.015527,0.017392,0.024274,0.054703,0.025622,0.0053935,0.0039820
0.017583,0.017917,0.027041,0.060557,0.025772,0.0052005,0.0037693
0.019657,0.018565,0.029981,0.066318,0.025754,0.0050163,0.0035792
0.021676,0.019229,0.033042,0.071917,0.025621,0.0048382,0.0034150
0.023580,0.020018,0.036134,0.076666,0.025359,0.0047253,0.0033283
0.025453,0.021144,0.039220,0.081020,0.025033,0.0046595,0.0032619
0.027046,0.022518,0.042280,0.085231,0.024664,0.0045559,0.0032253
0.028771,0.024083,0.045269,0.087515,0.024297,0.0044250,0.0032270
0.030665,0.025510,0.048411,0.090760,0.023931,0.0042610,0.0032082
0.032080,0.026853,0.051451,0.096028,0.023551,0.0041220,0.0032175
0.033446,0.028299,0.054074,0.101156,0.023204,0.0040419,0.0032920
0.034830,0.029766,0.056570,0.105957,0.022858,0.0039619,0.0034032
0.035779,0.031558,0.058556,0.110557,0.022405,0.0039686,0.0035557
0.036593,0.033161,0.060161,0.113095,0.021953,0.0039761,0.0036963
0.037042,0.034715,0.061604,0.113477,0.021430,0.0039846,0.0038993
0.037410,0.035953,0.062530,0.112401,0.020942,0.0040079,0.0041253
0.037324,0.037048,0.062466,0.111493,0.020489,0.0040627,0.0044123
0.037040,0.038070,0.061722,0.110614,0.020024,0.0041132,0.0047394
0.036931,0.038683,0.060586,0.109429,0.019648,0.0041250,0.0050526
0.037029,0.039135,0.059219,0.108652,0.019287,0.0041191,0.0053725
0.037067,0.039398,0.057822,0.107929,0.018967,0.0041087,0.0056326
0.037047,0.039389,0.056306,0.107233,0.018678,0.0040857,0.0059158
0.036926,0.039189,0.054733,0.106266,0.018407,0.0039942,0.0062487
0.036962,0.038735,0.052843,0.105523,0.018169,0.0038758,0.0066091
0.037029,0.038208,0.050540,0.102891,0.017930,0.0037611,0.0069822
0.037180,0.037664,0.048033,0.099860,0.017729,0.0036722,0.0072895
0.037340,0.036978,0.045491,0.097153,0.017615,0.0035760,0.0075526
0.037551,0.036175,0.042883,0.094655,0.017605,0.0034916,0.0077788
0.038050,0.034871,0.040336,0.094038,0.017623,0.0033756,0.0079887
0.038729,0.033702,0.037688,0.092249,0.017546,0.0033056,0.0083603
0.039717,0.032678,0.035124,0.088557,0.017431,0.0032597,0.0087480
0.040465,0.031367,0.032934,0.085266,0.017334,0.0032089,0.0091519
0.041258,0.029929,0.030853,0.082183,0.017258,0.0031647,0.0095141
0.042212,0.028218,0.029235,0.079213,0.017254,0.0030217,0.0098520
0.042785,0.026645,0.027856,0.076650,0.017220,0.0029168,0.0102214
0.043277,0.025109,0.026526,0.073853,0.017205,0.0028300,0.0105684
0.043760,0.023619,0.025051,0.070908,0.017202,0.0027594,0.0109144
0.044275,0.022213,0.023597,0.068082,0.017188,0.0027301,0.0112221
0.044983,0.020858,0.022172,0.065133,0.017175,0.0027337,0.0115181
0.045448,0.019629,0.020713,0.062503,0.017195,0.0027934,0.0117360
0.045491,0.018486,0.019388,0.059269,0.017249,0.0028425,0.0119647
0.045684,0.017322,0.018097,0.056129,0.017270,0.0028869,0.0122557
0.045942,0.016271,0.016781,0.053671,0.017301,0.0029241,0.0124826
0.046263,0.015351,0.015318,0.051575,0.017354,0.0029751,0.0126578
0.045956,0.014515,0.014111,0.049399,0.017428,0.0030458,0.0127944
0.045703,0.013600,0.013197,0.049512,0.017611,0.0030730,0.0127835
0.045537,0.012672,0.012460,0.050942,0.017851,0.0030563,0.0127159
0.045796,0.011915,0.011733,0.052270,0.018089,0.0030145,0.0126047
0.046493,0.011239,0.011064,0.054388,0.018275,0.0029471,0.0124815
0.046812,0.010908,0.010377,0.056766,0.018436,0.0029429,0.0123283
0.046741,0.010626,0.009691,0.059372,0.018635,0.0029175,0.0120763
0.046569,0.010361,0.009054,0.061841,0.018847,0.0028840,0.0117972
0.046569,0.010324,0.008481,0.063682,0.019098,0.0028392,0.0114592
0.046573,0.010394,0.007938,0.065223,0.019373,0.0027640,0.0111245
0.046429,0.010421,0.007402,0.066964,0.019654,0.0027256,0.0107684
0.047263,0.010503,0.006882,0.068745,0.019926,0.0026351,0.0104388
0.048501,0.010590,0.006365,0.071722,0.020191,0.0025444,0.0100910
0.049451,0.010705,0.005872,0.074559,0.020446,0.0024626,0.0097503
0.050333,0.010898,0.005497,0.076990,0.020691,0.0023686,0.0094394
0.051051,0.011138,0.005269,0.079631,0.020929,0.0022742,0.0091255
0.051902,0.011514,0.005162,0.081822,0.021140,0.0021497,0.0088811
0.052363,0.011897,0.005055,0.084528,0.021330,0.0020474,0.0086285
0.052490,0.012333,0.004945,0.087358,0.021537,0.0019564,0.0083766
0.052620,0.012718,0.004860,0.089587,0.021881,0.0018752,0.0081330
0.052635,0.013104,0.004762,0.091089,0.022281,0.0018004,0.0078762
0.052975,0.013497,0.004683,0.092346,0.022697,0.0017076,0.0076317
0.053232,0.014002,0.004615,0.093366,0.023042,0.0016687,0.0074615
0.053376,0.014526,0.004587,0.094263,0.023358,0.0016439,0.0073337
0.053025,0.015001,0.004580,0.095336,0.023631,0.0016464,0.0072810
0.052451,0.015422,0.004580,0.095641,0.023944,0.0016677,0.0072211
0.051753,0.015837,0.004604,0.095484,0.024255,0.0016942,0.0071637
0.050501,0.016205,0.004656,0.094662,0.024609,0.0017535,0.0070269
0.049154,0.016521,0.004743,0.093097,0.024955,0.0018020,0.0068889
0.047836,0.016811,0.004831,0.091318,0.025303,0.0018540,0.0067411
0.046461,0.016993,0.004930,0.089641,0.025619,0.0019250,0.0065908
0.045023,0.017108,0.005036,0.087692,0.025875,0.0019998,0.0065017
0.042853,0.017080,0.005160,0.085838,0.026115,0.0021192,0.0063782
0.040639,0.017004,0.005301,0.082637,0.026329,0.0022518,0.0062687
0.038453,0.016917,0.005461,0.079028,0.026486,0.0023905,0.0061771
0.035996,0.016724,0.005651,0.075351,0.026534,0.0025486,0.0060906
0.033485,0.016445,0.005858,0.071441,0.026543,0.0027085,0.0060417
0.031010,0.016030,0.006039,0.067361,0.026514,0.0028788,0.0060099
0.029010,0.015545,0.006232,0.062780,0.026496,0.0030207,0.0059855
0.026899,0.014996,0.006415,0.058285,0.026412,0.0031889,0.0059873
0.024639,0.014426,0.006613,0.054130,0.026256,0.0033796,0.0060221
0.022358,0.013844,0.006802,0.050685,0.026134,0.0035902,0.0060843
0.020222,0.013256,0.006977,0.047323,0.026019,0.0038234,0.0061776
0.018118,0.012651,0.007134,0.043977,0.025875,0.0040618,0.0063639
0.016068,0.012067,0.007260,0.040659,0.025729,0.0043009,0.0065602
0.014122,0.011485,0.007408,0.037309,0.025564,0.0045276,0.0067796
0.012185,0.010952,0.007528,0.033858,0.025377,0.0047546,0.0070284
0.010349,0.010580,0.007586,0.030515,0.025189,0.0049879,0.0072617
0.009128,0.010362,0.007601,0.027764,0.024977,0.0051961,0.0075339
0.008061,0.010209,0.007583,0.025745,0.024763,0.0054021,0.0077999
0.007050,0.010102,0.007534,0.024000,0.024535,0.0056077,0.0080539
0.006023,0.010085,0.007474,0.022243,0.024297,0.0058107,0.0083336
0.005049,0.010154,0.007425,0.020604,0.024131,0.0060301,0.0085540
0.004224,0.010525,0.007381,0.018392,0.023973,0.0062194,0.0087821
0.003315,0.011015,0.007306,0.016935,0.023673,0.0063463,0.0090010
0.002708,0.011636,0.007194,0.016133,0.023451,0.0064589,0.0091702
0.002494,0.012236,0.007024,0.015642,0.023318,0.0065797,0.0093099
0.002530,0.012607,0.006877,0.015146,0.023394,0.0066801,0.0094761
0.002587,0.012906,0.006750,0.014779,0.023504,0.0067849,0.0096493
0.002670,0.013267,0.006542,0.014239,0.023543,0.0069018,0.0099098
0.002824,0.013596,0.006329,0.013284,0.023603,0.0070850,0.0101922
0.002984,0.013918,0.006064,0.012191,0.023519,0.0072932,0.0105090
0.003128,0.014248,0.005825,0.011119,0.023403,0.0074747,0.0108011
0.003233,0.014792,0.005572,0.010102,0.023173,0.0076124,0.0111341
0.003340,0.015867,0.005295,0.009087,0.022742,0.0078345,0.0113509
0.003453,0.017293,0.005010,0.008073,0.022304,0.0080606,0.0115323
0.003632,0.018811,0.004726,0.007068,0.021853,0.0083014,0.0116456
0.003773,0.020358,0.004460,0.006098,0.021398,0.0085087,0.0117175
0.003977,0.021774,0.004275,0.005347,0.021004,0.0086809,0.0117253
0.004182,0.023176,0.004101,0.004666,0.020627,0.0088582,0.0117276
0.004383,0.024795,0.003925,0.004048,0.020267,0.0090537,0.0116764
0.004596,0.025971,0.003848,0.003386,0.019941,0.0091756,0.0116387
0.004878,0.026811,0.003812,0.002701,0.019659,0.0092428,0.0116002
0.005134,0.027776,0.003786,0.001954,0.019309,0.0093225,0.0115672
0.005272,0.028334,0.003842,0.001897,0.018986,0.0094300,0.0115265
0.005268,0.029087,0.003877,0.001843,0.018755,0.0096410,0.0115036
0.005198,0.029712,0.004021,0.001747,0.018530,0.0098219,0.0114891
0.005099,0.030144,0.004230,0.001698,0.018389,0.0099333,0.0114212
0.005044,0.030949,0.004398,0.001837,0.018088,0.0101336,0.0112235
0.004982,0.031981,0.004591,0.002035,0.017792,0.0103578,0.0109754
0.004971,0.033037,0.004802,0.002292,0.017523,0.0105731,0.0106293
0.004954,0.034274,0.004980,0.002553,0.017256,0.0106205,0.0102446
0.005073,0.035315,0.005337,0.002789,0.017073,0.0105990,0.0098068
0.005243,0.036598,0.005652,0.003073,0.016750,0.0106591,0.0093848
0.005442,0.037610,0.005942,0.003360,0.016491,0.0107977,0.0088863
0.005531,0.038164,0.006264,0.003662,0.016434,0.0108477,0.0084560
0.005608,0.038327,0.006557,0.003985,0.016389,0.0108941,0.0080310
0.005548,0.038455,0.006841,0.004286,0.016363,0.0110156,0.0076980
0.005500,0.038557,0.007089,0.004624,0.016324,0.0112088,0.0074064
0.005269,0.039123,0.007170,0.004871,0.016223,0.0114489,0.0071968
0.005005,0.039435,0.007286,0.005056,0.016159,0.0116924,0.0069824
0.004754,0.039644,0.007457,0.005173,0.016070,0.0119583,0.0068340
0.004522,0.040092,0.007618,0.005317,0.015960,0.0123338,0.0066691
0.004276,0.040664,0.007781,0.005505,0.015813,0.0127711,0.0064896
0.004087,0.041222,0.007892,0.005730,0.015745,0.0130295,0.0062966
0.003921,0.042012,0.007998,0.005900,0.015680,0.0132923,0.0060784
0.003884,0.042098,0.008124,0.006049,0.015664,0.0135551,0.0058725
0.003862,0.042292,0.008097,0.006280,0.015688,0.0137853,0.0056750
0.003845,0.042768,0.007980,0.006478,0.015644,0.0139633,0.0055239
0.003727,0.043109,0.007870,0.006659,0.015671,0.0139264,0.0054153
0.003626,0.043364,0.007745,0.006752,0.015655,0.0139078,0.0053555
0.003373,0.044048,0.007492,0.006837,0.017337,0.0139730,0.0053232
0.003120,0.044597,0.007242,0.006890,0.019081,0.0141366,0.0053195
0.002748,0.045077,0.006882,0.006928,0.020953,0.0143248,0.0053293
0.002348,0.045072,0.006581,0.006990,0.022950,0.0144705,0.0053492
0.001949,0.045005,0.006332,0.007024,0.025046,0.0145040,0.0053847
0.001682,0.044941,0.006085,0.007010,0.027181,0.0145780,0.0054366
0.001431,0.044885,0.005844,0.006950,0.029276,0.0146654,0.0055271
0.001354,0.044105,0.005800,0.006863,0.029756,0.0146167,0.0055588
0.001296,0.043475,0.005764,0.006745,0.030142,0.0145123,0.0055706
0.001358,0.042424,0.005932,0.006589,0.030447,0.0143864,0.0056096
0.001419,0.041607,0.006068,0.006451,0.030699,0.0142921,0.0056491
0.001473,0.040478,0.006224,0.006322,0.030979,0.0141510,0.0056767
0.001484,0.039320,0.006316,0.006228,0.031318,0.0139808,0.0056877
0.001472,0.038570,0.006447,0.006180,0.031756,0.0137865,0.0056735
0.001492,0.037741,0.006673,0.006075,0.032115,0.0137491,0.0057078
0.001507,0.036629,0.006887,0.006022,0.032378,0.0136766,0.0057788
0.001486,0.035869,0.007108,0.006030,0.032626,0.0135954,0.0058198
0.001477,0.035030,0.007454,0.005951,0.032820,0.0135275,0.0058617
0.001480,0.034361,0.007777,0.005841,0.033005,0.0135873,0.0059454
0.001425,0.033686,0.007982,0.005609,0.034643,0.0138381,0.0060988
0.001354,0.032822,0.008112,0.005452,0.036477,0.0140027,0.0062272
0.001354,0.031223,0.008265,0.005137,0.037922,0.0140915,0.0064011
0.001354,0.029649,0.008466,0.004915,0.039569,0.0142557,0.0065798
0.001354,0.028367,0.008611,0.004674,0.041405,0.0144499,0.0067986
0.001354,0.027019,0.008808,0.004382,0.043207,0.0148502,0.0070410
0.001354,0.025518,0.009128,0.004068,0.044846,0.0154291,0.0073018
0.001350,0.023962,0.009667,0.004097,0.044978,0.0159233,0.0074478
0.001365,0.022303,0.010341,0.004143,0.044963,0.0164790,0.0075813
0.001363,0.021321,0.010973,0.004316,0.045159,0.0170832,0.0077077
0.001424,0.020183,0.011666,0.004285,0.045093,0.0176325,0.0078568
0.001474,0.018842,0.012227,0.004306,0.044879,0.0180979,0.0079611
0.001503,0.017503,0.012662,0.004382,0.044803,0.0181985,0.0080543
0.001496,0.016524,0.012834,0.004830,0.044927,0.0181303,0.0080919
0.001493,0.015742,0.012944,0.005356,0.044989,0.0180544,0.0081610
0.001480,0.014953,0.012851,0.005823,0.044933,0.0179235,0.0082486
0.001457,0.014143,0.012658,0.006159,0.045151,0.0177632,0.0083209
0.001411,0.013547,0.012424,0.006476,0.045567,0.0176034,0.0083800
0.001377,0.013009,0.012215,0.006742,0.046019,0.0174081,0.0084462
0.001353,0.012370,0.011994,0.007044,0.046384,0.0173230,0.0085272
0.001334,0.011513,0.011884,0.007123,0.046664,0.0172252,0.0085457
0.001415,0.010677,0.011883,0.007153,0.045443,0.0170653,0.0084919
0.001541,0.009829,0.012013,0.007094,0.044013,0.0170349,0.0084363
0.001765,0.009489,0.012274,0.007895,0.041181,0.0169319,0.0082854
0.002369,0.009160,0.012690,0.009825,0.037895,0.0166791,0.0080413
0.002949,0.008815,0.013249,0.014566,0.034393,0.0164119,0.0077209
0.003843,0.008871,0.014247,0.021942,0.031013,0.0158228,0.0073130
0.004653,0.009270,0.015639,0.029987,0.027791,0.0149964,0.0069000
0.005438,0.009776,0.017440,0.038182,0.026031,0.0141341,0.0065649
0.006427,0.010452,0.019158,0.046459,0.024549,0.0130185,0.0062049
0.008108,0.011003,0.020662,0.054167,0.024602,0.0118528,0.0058071
0.009823,0.011773,0.022134,0.061504,0.024958,0.0107278,0.0054008
0.011507,0.012683,0.023732,0.068021,0.025483,0.0096576,0.0050289
0.013441,0.013531,0.025431,0.074920,0.025912,0.0088844,0.0046780
0.015168,0.014322,0.026833,0.081209,0.025969,0.0082839,0.0045356
0.017099,0.015169,0.028125,0.085904,0.025972,0.0076830,0.0043870
0.019092,0.015823,0.029388,0.090408,0.025999,0.0071543,0.0042286
0.021060,0.016495,0.030499,0.094949,0.025788,0.0066420,0.0041060
0.023350,0.017049,0.031175,0.099118,0.025444,0.0061501,0.0039982
0.025659,0.017742,0.031780,0.103252,0.025114,0.0056568,0.0039334
0.027817,0.018583,0.032483,0.107264,0.024782,0.0051009,0.0039396
0.030396,0.019482,0.033138,0.112324,0.024489,0.0045040,0.0039692
0.031996,0.020382,0.033839,0.119921,0.024153,0.0039415,0.0040671
0.033442,0.021217,0.034415,0.127581,0.023874,0.0032930,0.0041754
0.034750,0.021764,0.034771,0.134742,0.023730,0.0027408,0.0043374
0.036286,0.022283,0.034982,0.139141,0.023805,0.0022207,0.0045208
0.037661,0.022735,0.035113,0.139437,0.023781,0.0017033,0.0047098
0.038849,0.022954,0.034832,0.136307,0.023685,0.0012522,0.0049264
0.040435,0.023120,0.033920,0.132407,0.023561,0.0009029,0.0051219
0.042145,0.023132,0.032250,0.128396,0.023436,0.0006370,0.0053492
0.043405,0.023130,0.030444,0.124563,0.023172,0.0005717,0.0056076
0.043935,0.023147,0.028609,0.121200,0.022725,0.0005513,0.0059588
0.044401,0.022882,0.026619,0.120711,0.022377,0.0005421,0.0062625
0.044789,0.022565,0.024520,0.121006,0.022163,0.0005704,0.0065141
0.044706,0.022140,0.022457,0.119143,0.021865,0.0006323,0.0068417
0.044906,0.021529,0.020895,0.117108,0.021688,0.0006953,0.0070421
0.044901,0.020898,0.019497,0.116432,0.021564,0.0007577,0.0072220
0.044995,0.020255,0.018175,0.115687,0.021455,0.0008305,0.0074274
0.044956,0.019564,0.016972,0.115001,0.021302,0.0009247,0.0076405
0.044486,0.019037,0.016099,0.115147,0.021152,0.0010278,0.0078546
0.044161,0.018362,0.015242,0.115538,0.021038,0.0011306,0.0080096
0.043754,0.017661,0.014230,0.116052,0.021047,0.0012538,0.0080291
0.042874,0.016895,0.013213,0.115515,0.021158,0.0013927,0.0080357
0.043238,0.016098,0.012193,0.112779,0.021380,0.0014908,0.0079134
0.043481,0.015519,0.011207,0.109447,0.021578,0.0016000,0.0077615
0.043654,0.014919,0.010473,0.104712,0.021757,0.0016832,0.0076222
0.043344,0.014275,0.009752,0.101497,0.021905,0.0017783,0.0075442
0.043905,0.013778,0.008978,0.099021,0.022098,0.0018360,0.0074066
0.044483,0.013405,0.008094,0.097319,0.022257,0.0019092,0.0073019
0.044558,0.013064,0.007316,0.095778,0.022351,0.0019857,0.0072068
0.044080,0.012729,0.006695,0.094232,0.022370,0.0020769,0.0071422
0.043780,0.012364,0.006205,0.092567,0.022474,0.0021399,0.0070385
0.043048,0.012096,0.005820,0.090740,0.022618,0.0022235,0.0069222
0.042492,0.011814,0.005569,0.086524,0.022702,0.0022938,0.0068747
0.042166,0.011520,0.005383,0.082294,0.022684,0.0023398,0.0069129
0.042054,0.011280,0.005185,0.079698,0.022644,0.0023830,0.0069399
0.041974,0.011080,0.004997,0.077271,0.022591,0.0024252,0.0069599
0.042249,0.010848,0.004830,0.074869,0.022584,0.0024441,0.0069853
0.042720,0.010657,0.004755,0.072551,0.022591,0.0024479,0.0069652
0.042621,0.010465,0.004763,0.070272,0.022557,0.0024633,0.0069809
0.042486,0.010269,0.004865,0.067440,0.022458,0.0024752,0.0070377
0.042149,0.010105,0.004992,0.064358,0.022328,0.0024836,0.0071044
0.041938,0.009842,0.005125,0.061690,0.022152,0.0024688,0.0072199
0.041832,0.009599,0.005280,0.058890,0.021915,0.0024452,0.0073752
0.041524,0.009408,0.005378,0.056267,0.021581,0.0024325,0.0076158
0.041974,0.009238,0.005486,0.054535,0.021245,0.0023704,0.0078407
0.042091,0.009130,0.005597,0.056864,0.020948,0.0023197,0.0079888
0.041919,0.009062,0.005667,0.060060,0.020730,0.0022917,0.0081187
0.041001,0.008951,0.005756,0.064029,0.020463,0.0022942,0.0083312
0.039864,0.008842,0.005854,0.067923,0.020186,0.0023028,0.0085288
0.038913,0.008738,0.005914,0.071310,0.019902,0.0023167,0.0087207
0.038620,0.008614,0.005927,0.074201,0.019692,0.0023228,0.0088711
0.038457,0.008512,0.005911,0.077499,0.019500,0.0023256,0.0089954
0.038685,0.008403,0.005852,0.083300,0.019340,0.0023056,0.0090753
0.038751,0.008319,0.005807,0.089330,0.019161,0.0023200,0.0091786
0.038777,0.008270,0.005738,0.095792,0.019059,0.0023605,0.0092155
0.038860,0.008248,0.005684,0.102249,0.019042,0.0023966,0.0091653
0.038365,0.008198,0.005636,0.108467,0.019096,0.0024693,0.0091212
0.037462,0.008168,0.005585,0.113875,0.019072,0.0025637,0.0091086
0.036634,0.008115,0.005523,0.117391,0.019003,0.0026441,0.0091317
0.036657,0.008090,0.005437,0.121238,0.018980,0.0026909,0.0090449
0.036912,0.008085,0.005355,0.125356,0.019067,0.0027208,0.0088889
0.036941,0.008057,0.005285,0.129543,0.019071,0.0027670,0.0088197
0.037371,0.008022,0.005221,0.133653,0.019181,0.0027972,0.0086618
0.037419,0.007959,0.005156,0.138600,0.019324,0.0028724,0.0084896
0.036900,0.007864,0.005147,0.143629,0.019418,0.0029723,0.0083445
0.035689,0.007785,0.005128,0.148021,0.019528,0.0031106,0.0082201
0.035141,0.007761,0.005092,0.149177,0.019691,0.0032033,0.0080642
0.034804,0.007751,0.005083,0.149983,0.019749,0.0032721,0.0079275
0.034240,0.007688,0.005052,0.152721,0.019737,0.0033462,0.0078866
0.033890,0.007632,0.004997,0.156117,0.019748,0.0033967,0.0078542
0.033351,0.007548,0.004965,0.159757,0.019824,0.0034551,0.0078014
0.032682,0.007500,0.004956,0.162900,0.019930,0.0034975,0.0077322
0.031773,0.007402,0.004946,0.165360,0.019963,0.0035568,0.0077620
0.031063,0.007325,0.004938,0.165610,0.020004,0.0036112,0.0077698
0.030309,0.007289,0.004927,0.165902,0.020112,0.0036313,0.0077098
0.029120,0.007262,0.004936,0.166627,0.020116,0.0036377,0.0077620
0.028090,0.007361,0.004916,0.166142,0.020121,0.0036256,0.0078344
0.027790,0.007506,0.004878,0.164640,0.020141,0.0035660,0.0078615
0.027302,0.007598,0.004834,0.164008,0.020170,0.0035203,0.0078937
0.026288,0.007655,0.004810,0.165219,0.020229,0.0034995,0.0079199
0.025303,0.007723,0.004794,0.164206,0.020300,0.0034828,0.0079310
0.024349,0.007807,0.004797,0.161528,0.020333,0.0034761,0.0078807
0.023407,0.007893,0.004801,0.159076,0.020405,0.0034672,0.0077738
0.022039,0.008005,0.004810,0.156245,0.020344,0.0034843,0.0077784
0.020790,0.008163,0.004818,0.152997,0.020243,0.0034611,0.0077841
0.019861,0.008311,0.004829,0.149294,0.020187,0.0034658,0.0077600
0.018791,0.008379,0.004912,0.145613,0.019894,0.0035129,0.0078392
0.017515,0.008393,0.005067,0.140870,0.019420,0.0036185,0.0079514
0.016195,0.008363,0.005207,0.135063,0.019046,0.0037458,0.0080165
0.015162,0.008283,0.005368,0.127091,0.018788,0.0038624,0.0079934
0.013989,0.008307,0.005533,0.118626,0.018446,0.0040014,0.0079839
0.013007,0.008506,0.005671,0.110323,0.018183,0.0041222,0.0079846
0.011935,0.009056,0.005736,0.102517,0.017951,0.0042544,0.0080021
0.011015,0.009682,0.005851,0.094781,0.017799,0.0043285,0.0079880
0.009883,0.010729,0.005895,0.086973,0.017639,0.0044003,0.0080016
0.008757,0.012035,0.005930,0.078811,0.017444,0.0045547,0.0080276
0.007985,0.013333,0.005969,0.069801,0.017281,0.0047575,0.0079944
0.007178,0.014173,0.006071,0.061779,0.017273,0.0049990,0.0079009
0.006166,0.014969,0.006204,0.055284,0.017190,0.0052633,0.0077946
0.005535,0.015650,0.006302,0.048835,0.017085,0.0054789,0.0076642
0.005101,0.016080,0.006374,0.042625,0.017044,0.0056719,0.0075620
0.004474,0.016607,0.006471,0.038382,0.017034,0.0059225,0.0074727
0.003689,0.017088,0.006553,0.035389,0.016999,0.0062118,0.0074486
0.003194,0.017521,0.006653,0.032057,0.017025,0.0065373,0.0074187
0.002701,0.017618,0.006817,0.028763,0.017139,0.0068651,0.0073658
0.002406,0.017593,0.007028,0.025466,0.017236,0.0071958,0.0072631
0.002264,0.017495,0.007201,0.022182,0.017358,0.0074251,0.0071467
0.002497,0.017473,0.007404,0.018980,0.017745,0.0075348,0.0069588
0.002743,0.017456,0.007608,0.017197,0.018190,0.0076565,0.0068108
0.003005,0.017389,0.007945,0.015975,0.018530,0.0077493,0.0066853
0.003276,0.017383,0.008234,0.014799,0.018810,0.0078427,0.0065735
0.003602,0.017429,0.008378,0.013518,0.019077,0.0078727,0.0064848
0.003931,0.017412,0.008509,0.012357,0.019241,0.0079282,0.0063833
0.004235,0.017009,0.008638,0.011403,0.019335,0.0079815,0.0062798
0.004650,0.016594,0.008738,0.010521,0.019371,0.0080855,0.0061519
0.005093,0.015702,0.009180,0.009594,0.019397,0.0082881,0.0060355
0.005432,0.014332,0.009720,0.008916,0.019454,0.0084383,0.0058818
