"1 Chan 1","2 Chan 2","3 Chan 3","4 Chan 4","5 Chan 5","6 Chan 6","7 Chan 7"
0.014128,0.025455,0.001025,0.015758,0.008772,0.0179183,0.0099332
0.013512,0.019982,0.001050,0.013894,0.008170,0.0178696,0.0109348
0.012925,0.015015,0.001074,0.011976,0.007633,0.0177621,0.0118260
0.012298,0.010782,0.001102,0.010395,0.007075,0.0175227,0.0127897
0.011612,0.006958,0.001173,0.008900,0.006692,0.0174478,0.0134509
0.010907,0.003782,0.001264,0.007660,0.006311,0.0174191,0.0137672
0.010435,0.001982,0.001355,0.006683,0.005775,0.0172208,0.0140290
0.009836,0.000644,0.001452,0.005624,0.005410,0.0168902,0.0145963
0.009340,0.000000,0.001550,0.004642,0.005239,0.0165519,0.0150337
0.008835,0.000000,0.001612,0.003741,0.004976,0.0161315,0.0154822
0.008529,0.000000,0.001650,0.002954,0.004641,0.0156151,0.0159367
0.008389,0.000000,0.001667,0.002076,0.004285,0.0152390,0.0163814
0.008145,0.000000,0.001677,0.002043,0.004207,0.0150109,0.0165054
0.007908,0.000000,0.001679,0.002043,0.003970,0.0148004,0.0166372
0.007781,0.000000,0.001677,0.002030,0.003989,0.0145999,0.0168395
0.007709,0.000000,0.001666,0.001936,0.004125,0.0145273,0.0168876
0.007474,0.000231,0.001674,0.001750,0.004344,0.0145172,0.0169191
0.007354,0.000231,0.001676,0.001638,0.004543,0.0145791,0.0168014
0.006913,0.000773,0.001689,0.001622,0.004771,0.0144946,0.0169969
0.006750,0.000786,0.001700,0.001569,0.004890,0.0145945,0.0169689
0.006629,0.000786,0.001710,0.001533,0.004999,0.0148408,0.0166312
0.006544,0.000786,0.001713,0.001539,0.004989,0.0150505,0.0162984
0.006475,0.000786,0.001725,0.001574,0.004908,0.0152367,0.0159307
0.006436,0.000786,0.001749,0.001560,0.004761,0.0154808,0.0154994
0.006413,0.000786,0.001769,0.001559,0.004649,0.0157070,0.0150555
0.006339,0.000786,0.001750,0.001501,0.004308,0.0156933,0.0152186
0.006220,0.000786,0.001737,0.001390,0.003937,0.0155014,0.0155655
0.006140,0.000786,0.001705,0.001172,0.003574,0.0153666,0.0160923
0.006043,0.000786,0.001663,0.001130,0.003423,0.0152529,0.0162501
0.005862,0.000930,0.001626,0.001133,0.003103,0.0150695,0.0165521
0.005601,0.001252,0.001686,0.001189,0.002968,0.0149380,0.0166843
0.005393,0.001530,0.001752,0.001330,0.002918,0.0148254,0.0167829
0.005328,0.001530,0.001818,0.001507,0.002852,0.0147253,0.0167625
0.005168,0.001718,0.001879,0.001627,0.002731,0.0146926,0.0168857
0.004999,0.001771,0.001950,0.001943,0.002889,0.0147070,0.0167508
0.004868,0.001771,0.001952,0.002269,0.003100,0.0149584,0.0162188
0.004745,0.001771,0.001961,0.002543,0.003195,0.0151803,0.0158229
0.004795,0.001539,0.002033,0.002768,0.003207,0.0154019,0.0154234
0.004699,0.001539,0.002117,0.003010,0.003280,0.0154630,0.0151143
0.004927,0.000997,0.002195,0.003205,0.003291,0.0156664,0.0145913
0.004873,0.000985,0.002278,0.003392,0.003349,0.0156912,0.0142822
0.004807,0.000985,0.002428,0.003693,0.003481,0.0159067,0.0138667
0.004660,0.001071,0.002524,0.003997,0.003662,0.0161366,0.0135621
0.004567,0.001071,0.002653,0.004351,0.003781,0.0162697,0.0133253
0.004267,0.001428,0.002769,0.004576,0.003892,0.0163702,0.0134189
0.003979,0.001801,0.002946,0.004806,0.003987,0.0165267,0.0134908
0.003669,0.002192,0.003098,0.004982,0.004243,0.0165915,0.0132772
0.003471,0.002422,0.003249,0.005319,0.004500,0.0165273,0.0130478
0.003177,0.002879,0.003477,0.005531,0.004631,0.0163820,0.0129950
0.003093,0.002974,0.003694,0.005788,0.004748,0.0162750,0.0127993
0.003105,0.002916,0.003841,0.005993,0.004905,0.0161579,0.0125421
0.003101,0.002931,0.003913,0.006130,0.004998,0.0160331,0.0124343
0.003123,0.002913,0.003996,0.006109,0.005016,0.0159684,0.0123415
0.003134,0.002913,0.004047,0.006144,0.005157,0.0159362,0.0120938
0.003238,0.002725,0.004093,0.006210,0.005272,0.0156857,0.0118359
0.003227,0.002838,0.004198,0.006084,0.005262,0.0153640,0.0118237
0.003257,0.002838,0.004421,0.006045,0.005139,0.0149605,0.0119970
0.003276,0.002872,0.004663,0.006123,0.005132,0.0144829,0.0119912
0.003289,0.002896,0.004843,0.006188,0.005171,0.0140091,0.0119820
0.003324,0.002896,0.005020,0.006170,0.005269,0.0136703,0.0119513
0.003315,0.002896,0.005263,0.006301,0.005388,0.0132756,0.0119146
0.003296,0.002896,0.005547,0.006517,0.005462,0.0128634,0.0119963
0.003263,0.002896,0.005758,0.006629,0.005508,0.0122655,0.0121537
0.003274,0.002810,0.005884,0.006762,0.005567,0.0118264,0.0121666
0.003251,0.002810,0.005961,0.006914,0.005579,0.0114218,0.0122113
0.003408,0.002453,0.005960,0.007186,0.005660,0.0110405,0.0119875
0.003622,0.002081,0.005796,0.007254,0.005832,0.0107220,0.0115731
0.003846,0.001690,0.005715,0.007373,0.005898,0.0105336,0.0111562
0.003964,0.001459,0.005617,0.007284,0.005896,0.0104028,0.0109245
0.004188,0.001002,0.005500,0.007283,0.005993,0.0103439,0.0104857
0.004216,0.000907,0.005398,0.007176,0.005952,0.0103384,0.0102841
0.004170,0.000821,0.005361,0.007285,0.005864,0.0103306,0.0100767
0.004288,0.000485,0.005250,0.007412,0.005794,0.0103954,0.0098354
0.004354,0.000224,0.005137,0.007699,0.005772,0.0105175,0.0095206
0.004263,0.000224,0.005017,0.007998,0.005731,0.0106410,0.0092944
0.004167,0.000224,0.004953,0.008300,0.005823,0.0107928,0.0089808
0.004224,0.000059,0.004855,0.008408,0.005885,0.0109917,0.0086744
0.004189,0.000059,0.004709,0.008376,0.005963,0.0111395,0.0084654
0.004149,0.000025,0.004556,0.008313,0.006002,0.0112278,0.0083208
0.004112,0.000000,0.004388,0.008253,0.005997,0.0113117,0.0082233
0.004078,0.000000,0.004211,0.008168,0.005893,0.0114690,0.0081723
0.003991,0.000000,0.003909,0.008379,0.005854,0.0117091,0.0080349
0.003916,0.000000,0.003568,0.008560,0.005895,0.0119765,0.0078443
0.003855,0.000015,0.003236,0.008727,0.005969,0.0122247,0.0076934
0.003849,0.000015,0.003112,0.008902,0.006051,0.0123857,0.0074574
0.003854,0.000015,0.003109,0.009038,0.006149,0.0125011,0.0072434
0.004014,0.000015,0.003421,0.009093,0.006086,0.0125128,0.0072355
0.004455,0.000015,0.004194,0.009386,0.006251,0.0125693,0.0072946
0.004912,0.000315,0.005296,0.010080,0.006828,0.0126099,0.0076315
0.004943,0.001315,0.006911,0.011444,0.008348,0.0128644,0.0080131
0.004718,0.003309,0.008784,0.013106,0.010618,0.0129683,0.0087202
0.004491,0.005384,0.010775,0.014533,0.013332,0.0129502,0.0097062
0.004326,0.007506,0.012735,0.015749,0.016385,0.0128703,0.0107986
0.004144,0.009679,0.015381,0.016643,0.019526,0.0127314,0.0119781
0.003983,0.011893,0.018243,0.017332,0.022929,0.0125018,0.0132450
0.003820,0.013789,0.021152,0.017993,0.026400,0.0122365,0.0146421
0.003664,0.015525,0.023823,0.018576,0.030171,0.0119559,0.0160370
0.003457,0.017239,0.026392,0.019278,0.033648,0.0116304,0.0175201
0.003265,0.018885,0.028867,0.019999,0.037294,0.0113092,0.0189735
0.003068,0.020265,0.031119,0.020723,0.041591,0.0110409,0.0203199
0.002866,0.021802,0.033374,0.020954,0.046714,0.0106993,0.0215489
0.002650,0.023572,0.035510,0.021123,0.051963,0.0101794,0.0228556
0.002535,0.025395,0.037614,0.020797,0.057183,0.0095608,0.0242174
0.002571,0.026832,0.039515,0.020538,0.061822,0.0089389,0.0254756
0.002777,0.027924,0.041306,0.020156,0.065872,0.0083417,0.0265544
0.003019,0.029060,0.042995,0.019591,0.069884,0.0077516,0.0277035
0.003216,0.030131,0.044443,0.018983,0.074478,0.0071756,0.0288917
0.003699,0.030553,0.045491,0.018546,0.079850,0.0067063,0.0296843
0.003972,0.030862,0.046165,0.018093,0.084921,0.0061873,0.0304010
0.004145,0.031000,0.045922,0.017410,0.089806,0.0057206,0.0308348
0.004920,0.030078,0.044929,0.016252,0.093993,0.0051712,0.0310265
0.005940,0.028255,0.043535,0.014900,0.097423,0.0047646,0.0307449
0.006953,0.026462,0.042005,0.013763,0.100819,0.0044300,0.0301248
0.008163,0.024521,0.040476,0.012674,0.104143,0.0041816,0.0292519
0.009503,0.022743,0.038335,0.012047,0.107635,0.0039521,0.0281940
0.010789,0.021082,0.035978,0.011665,0.110534,0.0037564,0.0271142
0.011900,0.019982,0.033618,0.011386,0.112528,0.0035792,0.0260379
0.012865,0.019158,0.031398,0.011185,0.114114,0.0035021,0.0249954
0.013892,0.018446,0.029375,0.011027,0.116216,0.0034452,0.0238866
0.015103,0.017974,0.027450,0.010675,0.118509,0.0033463,0.0228416
0.016335,0.017801,0.025729,0.010222,0.120256,0.0032356,0.0218790
0.017544,0.017389,0.024051,0.010307,0.121213,0.0032117,0.0209925
0.018829,0.016824,0.022449,0.010649,0.122034,0.0033363,0.0200511
0.019937,0.016439,0.020853,0.011526,0.121803,0.0035691,0.0190452
0.020930,0.016446,0.019424,0.012424,0.121942,0.0038107,0.0180258
0.021716,0.017223,0.018141,0.013481,0.122880,0.0039322,0.0172614
0.022201,0.018863,0.016882,0.014755,0.123809,0.0040935,0.0165372
0.022763,0.020557,0.015718,0.016418,0.124327,0.0043354,0.0157748
0.022871,0.022742,0.014729,0.018157,0.124293,0.0045365,0.0152970
0.022788,0.024982,0.013767,0.019840,0.123860,0.0047326,0.0149613
0.022689,0.026808,0.013339,0.021360,0.122943,0.0049686,0.0145981
0.022637,0.029760,0.013125,0.022715,0.121436,0.0050445,0.0144443
0.022732,0.032912,0.012993,0.023987,0.120077,0.0051120,0.0143011
0.022909,0.036138,0.012856,0.025279,0.118489,0.0051838,0.0141701
0.022943,0.039616,0.012627,0.026513,0.116904,0.0051994,0.0141427
0.022741,0.042968,0.012370,0.027930,0.114909,0.0052492,0.0141236
0.022672,0.046341,0.012112,0.029639,0.113163,0.0052593,0.0140806
0.022946,0.050223,0.011824,0.031610,0.112240,0.0052110,0.0139823
0.023412,0.053675,0.011585,0.033638,0.111322,0.0051631,0.0137539
0.024138,0.057501,0.011217,0.035578,0.110084,0.0050263,0.0134171
0.024683,0.061486,0.010859,0.037999,0.108556,0.0049536,0.0130578
0.025054,0.065211,0.010495,0.040838,0.106492,0.0049821,0.0126596
0.025750,0.067982,0.009961,0.043934,0.103925,0.0049885,0.0121496
0.026523,0.071023,0.009560,0.046514,0.100820,0.0048505,0.0116248
0.027559,0.074460,0.009238,0.048517,0.098345,0.0045728,0.0111445
0.028826,0.078507,0.008929,0.050543,0.095809,0.0042887,0.0107079
0.030211,0.082243,0.008573,0.052629,0.093137,0.0041001,0.0101823
0.031776,0.085190,0.008224,0.054777,0.090518,0.0038662,0.0096030
0.033152,0.087885,0.007918,0.056626,0.087595,0.0035701,0.0089716
0.034725,0.090825,0.007591,0.058467,0.084241,0.0032508,0.0083197
0.036268,0.093765,0.007250,0.060834,0.080923,0.0029172,0.0076655
0.037961,0.097300,0.006872,0.063067,0.077586,0.0025413,0.0070119
0.039401,0.100137,0.006498,0.065330,0.074517,0.0022625,0.0063253
0.040833,0.102494,0.006127,0.067320,0.071312,0.0019736,0.0056651
0.042123,0.104562,0.005781,0.069726,0.067927,0.0017031,0.0049986
0.043235,0.106315,0.005566,0.072331,0.064240,0.0014921,0.0043605
0.044609,0.108060,0.005368,0.074403,0.060475,0.0012368,0.0037834
0.046268,0.110558,0.005143,0.075842,0.056588,0.0010253,0.0032099
0.047891,0.112785,0.004939,0.076691,0.052626,0.0008500,0.0026570
0.049204,0.114942,0.004641,0.077652,0.048892,0.0006485,0.0022145
0.049875,0.116543,0.004321,0.078813,0.045406,0.0005730,0.0018211
0.050345,0.117461,0.003992,0.079707,0.041886,0.0005305,0.0014526
0.050961,0.119034,0.003675,0.080290,0.038689,0.0003723,0.0011401
0.051152,0.121535,0.003495,0.080527,0.035973,0.0002762,0.0009553
0.051628,0.124496,0.003222,0.081314,0.033703,0.0002118,0.0008089
0.052036,0.127035,0.002956,0.082624,0.031795,0.0002118,0.0006892
0.052056,0.129028,0.002723,0.083722,0.030063,0.0002118,0.0005795
0.052200,0.131425,0.002502,0.084624,0.028053,0.0002118,0.0004603
0.052271,0.134064,0.002281,0.086217,0.026058,0.0002118,0.0003862
0.052462,0.137481,0.002056,0.088456,0.024149,0.0002118,0.0003616
0.052420,0.140840,0.001835,0.090167,0.022555,0.0002294,0.0003648
0.052475,0.144415,0.001614,0.091001,0.021293,0.0002419,0.0003665
0.052351,0.147769,0.001424,0.091930,0.020358,0.0003125,0.0003665
0.051994,0.150559,0.001250,0.092649,0.019539,0.0005236,0.0003665
0.051256,0.153141,0.001082,0.093642,0.018794,0.0008719,0.0003665
0.050632,0.155737,0.000908,0.094156,0.018056,0.0012409,0.0003665
0.050149,0.158580,0.000729,0.094460,0.017222,0.0016362,0.0003665
0.049648,0.161157,0.000563,0.094845,0.016548,0.0019826,0.0003688
0.048703,0.161901,0.000422,0.095388,0.016039,0.0024772,0.0003874
0.047657,0.161495,0.000298,0.096029,0.015591,0.0030038,0.0004333
0.046731,0.160792,0.000278,0.096223,0.014966,0.0036064,0.0004706
0.045940,0.158611,0.000276,0.096004,0.014219,0.0044132,0.0005281
0.045598,0.156214,0.000261,0.095158,0.013540,0.0052049,0.0005934
0.045304,0.152989,0.000249,0.094182,0.013015,0.0060433,0.0006605
0.045009,0.148259,0.000237,0.092526,0.012366,0.0068863,0.0007638
0.044328,0.142018,0.000232,0.089325,0.011749,0.0078118,0.0009083
0.043484,0.134884,0.000234,0.085546,0.011145,0.0087896,0.0010807
0.042608,0.127401,0.000236,0.081799,0.010607,0.0098428,0.0012790
0.041432,0.119383,0.000250,0.078142,0.010297,0.0108806,0.0015002
0.039789,0.111022,0.000277,0.073566,0.010076,0.0119627,0.0017243
0.038022,0.102144,0.000313,0.068229,0.009989,0.0129563,0.0019729
0.036227,0.093238,0.000361,0.062929,0.009916,0.0137554,0.0024582
0.034246,0.084175,0.000427,0.057995,0.009601,0.0144024,0.0031798
0.032346,0.075021,0.000493,0.053038,0.009246,0.0148960,0.0039845
0.030695,0.066365,0.000557,0.048168,0.008696,0.0152455,0.0050035
0.029273,0.058102,0.000642,0.043339,0.008088,0.0155346,0.0059177
0.027846,0.049931,0.000739,0.038566,0.007528,0.0158370,0.0068214
0.026357,0.041675,0.000839,0.033848,0.007571,0.0159603,0.0078238
0.024676,0.033607,0.000904,0.029403,0.007872,0.0161312,0.0086464
0.023044,0.026439,0.000971,0.025027,0.008069,0.0161389,0.0095261
0.021343,0.019939,0.001050,0.020824,0.008313,0.0160934,0.0103306
0.019729,0.014121,0.001161,0.017183,0.008346,0.0161640,0.0111496
0.018332,0.009875,0.001277,0.013921,0.008326,0.0161781,0.0119701
0.016692,0.006193,0.001392,0.011324,0.008091,0.0161627,0.0126955
0.015060,0.002913,0.001483,0.008682,0.007582,0.0159930,0.0136114
0.013259,0.001806,0.001544,0.006557,0.007310,0.0159763,0.0143660
0.011406,0.001324,0.001609,0.005751,0.007128,0.0159685,0.0151111
0.009804,0.001291,0.001662,0.005157,0.006936,0.0160821,0.0156613
0.008480,0.001291,0.001701,0.004559,0.006751,0.0160939,0.0160648
0.007310,0.001291,0.001732,0.003941,0.006527,0.0163035,0.0163813
0.006742,0.001291,0.001759,0.003387,0.006171,0.0163932,0.0167818
0.006262,0.001397,0.001778,0.002904,0.005778,0.0166382,0.0172262
0.005879,0.001475,0.001781,0.002763,0.005399,0.0171736,0.0171891
0.005415,0.001990,0.001827,0.002594,0.005298,0.0178109,0.0170749
0.004992,0.002500,0.001876,0.002513,0.005231,0.0184051,0.0169018
0.004601,0.002999,0.001930,0.002513,0.005325,0.0187397,0.0167554
0.004564,0.002999,0.001936,0.002513,0.005356,0.0193032,0.0164497
0.004478,0.002999,0.001948,0.002518,0.005399,0.0196646,0.0161256
0.004437,0.002999,0.001965,0.002518,0.005003,0.0202957,0.0154597
0.004131,0.003471,0.001967,0.002449,0.004578,0.0208996,0.0149456
0.003832,0.003974,0.002072,0.002359,0.004228,0.0212915,0.0148756
0.003570,0.004427,0.002165,0.002260,0.003922,0.0215802,0.0147740
0.003366,0.004945,0.002215,0.001849,0.003757,0.0219016,0.0147128
0.003309,0.005132,0.002356,0.001386,0.003601,0.0219965,0.0144995
0.003065,0.005636,0.002584,0.000845,0.003642,0.0220229,0.0144684
0.002977,0.005835,0.002910,0.000501,0.003836,0.0219504,0.0142566
0.003243,0.005383,0.003250,0.000553,0.004002,0.0215900,0.0138679
0.003366,0.005307,0.003430,0.000694,0.004294,0.0211679,0.0135273
0.003459,0.005447,0.003508,0.000800,0.005258,0.0206040,0.0134073
0.003476,0.005647,0.003662,0.001275,0.007953,0.0201279,0.0134827
0.003189,0.006290,0.004061,0.001526,0.013055,0.0194934,0.0138418
0.003041,0.006290,0.004566,0.002523,0.018176,0.0190249,0.0139811
0.002796,0.006595,0.005097,0.003212,0.021734,0.0184597,0.0142159
0.002534,0.007007,0.005355,0.004292,0.023428,0.0180183,0.0144692
0.002534,0.007207,0.005621,0.005013,0.024838,0.0173683,0.0149889
0.002534,0.007309,0.005733,0.005610,0.026898,0.0168184,0.0152876
0.002616,0.007312,0.005987,0.006102,0.028795,0.0164586,0.0151943
0.002572,0.007413,0.006100,0.006500,0.030217,0.0159606,0.0152760
0.002540,0.007413,0.006205,0.007008,0.031538,0.0156734,0.0152539
0.002509,0.007413,0.006164,0.007389,0.032792,0.0150912,0.0156174
0.002754,0.006941,0.006239,0.007636,0.033675,0.0144786,0.0159791
0.003091,0.006438,0.006209,0.007780,0.034266,0.0142204,0.0156090
0.003395,0.005985,0.006177,0.007917,0.034904,0.0141199,0.0153056
0.003673,0.005467,0.006086,0.008162,0.035821,0.0138869,0.0148403
0.003827,0.005281,0.005892,0.008478,0.037110,0.0137574,0.0144257
0.003896,0.005832,0.005664,0.008707,0.038705,0.0136115,0.0141882
0.003690,0.007406,0.005526,0.009029,0.042246,0.0133587,0.0143459
0.003425,0.009019,0.005463,0.009022,0.049635,0.0128181,0.0150902
0.003568,0.009788,0.005502,0.008854,0.057746,0.0123727,0.0155583
0.003337,0.009909,0.005560,0.008877,0.063212,0.0123289,0.0158384
0.003063,0.010350,0.005613,0.008591,0.064694,0.0122057,0.0163160
0.003039,0.010350,0.005457,0.008340,0.062790,0.0119644,0.0170186
0.002879,0.010946,0.005198,0.007343,0.061088,0.0114722,0.0176642
0.002879,0.010871,0.004728,0.006723,0.060572,0.0112074,0.0175365
0.003007,0.010561,0.004639,0.005744,0.061551,0.0107261,0.0174583
0.003044,0.010207,0.004434,0.005217,0.062654,0.0104509,0.0170779
0.003228,0.009678,0.004373,0.004952,0.062771,0.0103350,0.0168338
0.003281,0.009525,0.004090,0.004841,0.062904,0.0102142,0.0168517
0.003311,0.009527,0.003934,0.004778,0.063725,0.0100173,0.0168139
0.003287,0.009643,0.003784,0.004614,0.064375,0.0097881,0.0168774
0.003324,0.009643,0.003770,0.004394,0.064822,0.0098715,0.0166038
0.003373,0.009643,0.003673,0.004264,0.065354,0.0100694,0.0163170
0.003362,0.009643,0.003573,0.004245,0.067053,0.0100766,0.0162187
0.003252,0.009643,0.003489,0.004309,0.068686,0.0100089,0.0161120
0.003154,0.009643,0.003553,0.004439,0.069850,0.0097735,0.0161408
0.003019,0.009643,0.003703,0.004462,0.070790,0.0094364,0.0162551
0.003004,0.008955,0.003894,0.004348,0.071500,0.0092127,0.0162538
0.003278,0.007218,0.003842,0.004077,0.070271,0.0093560,0.0157234
0.003490,0.005652,0.003657,0.004036,0.064410,0.0099785,0.0149140
0.003318,0.004690,0.003444,0.004159,0.056934,0.0106391,0.0142922
0.003407,0.004510,0.003323,0.004054,0.051803,0.0107099,0.0140474
0.003469,0.004232,0.003199,0.003899,0.048989,0.0107212,0.0136429
0.003499,0.004017,0.003041,0.004038,0.046954,0.0108674,0.0127790
0.003518,0.003781,0.002920,0.004208,0.044528,0.0110882,0.0122029
0.003586,0.003720,0.003009,0.004329,0.042608,0.0110417,0.0121975
0.003458,0.003899,0.003136,0.004386,0.041068,0.0110076,0.0122511
0.003498,0.003614,0.003264,0.004763,0.039551,0.0110471,0.0121081
0.003332,0.003740,0.003347,0.005009,0.037859,0.0110475,0.0120245
0.003317,0.003391,0.003458,0.005240,0.036369,0.0112872,0.0116781
0.003018,0.003532,0.003637,0.005230,0.034800,0.0114670,0.0115871
0.002820,0.003631,0.003935,0.005146,0.033427,0.0116297,0.0114956
0.002471,0.004007,0.004322,0.005136,0.032112,0.0115883,0.0117592
0.002153,0.004338,0.004672,0.005432,0.030911,0.0115792,0.0119843
0.001829,0.004442,0.004885,0.006737,0.028847,0.0118425,0.0120941
0.001634,0.004442,0.005075,0.008286,0.026590,0.0122191,0.0120428
0.001454,0.004442,0.005390,0.009672,0.024553,0.0125109,0.0119756
0.001257,0.004442,0.005652,0.010623,0.022401,0.0126055,0.0118620
0.001443,0.004074,0.005866,0.011462,0.020049,0.0127023,0.0115594
0.001556,0.004038,0.006264,0.012451,0.017918,0.0128755,0.0113953
0.001992,0.003884,0.007233,0.013383,0.016770,0.0129474,0.0112807
0.002762,0.003711,0.008734,0.013544,0.016803,0.0126937,0.0117027
0.003447,0.003460,0.010144,0.013827,0.016576,0.0125791,0.0120126
0.004041,0.003233,0.011448,0.014131,0.016321,0.0125075,0.0122425
0.004636,0.003135,0.012749,0.014356,0.016352,0.0123531,0.0125000
0.005279,0.003124,0.014068,0.014462,0.016993,0.0122632,0.0126460
0.005849,0.003363,0.015387,0.014474,0.018212,0.0122305,0.0128596
0.006438,0.003631,0.016482,0.014541,0.019628,0.0121577,0.0132180
0.006863,0.004224,0.017579,0.014247,0.021355,0.0120372,0.0136347
0.007296,0.004641,0.018720,0.013993,0.024041,0.0117853,0.0139850
0.007686,0.005156,0.019590,0.013740,0.026775,0.0113750,0.0144867
0.008257,0.005281,0.020261,0.013659,0.029515,0.0109641,0.0148039
0.008712,0.005482,0.020782,0.013654,0.032352,0.0105384,0.0151310
0.009133,0.005756,0.021209,0.013784,0.035438,0.0101292,0.0152928
0.009562,0.006164,0.021672,0.013610,0.038620,0.0096260,0.0155346
0.010054,0.006977,0.022262,0.012446,0.041931,0.0088831,0.0159183
0.010590,0.007979,0.022812,0.010975,0.045485,0.0080679,0.0164782
0.011203,0.008998,0.023012,0.009608,0.049151,0.0074118,0.0170090
0.011819,0.010113,0.023135,0.008760,0.052800,0.0070162,0.0175719
0.012282,0.011082,0.023181,0.008181,0.057079,0.0065707,0.0181558
0.012750,0.011790,0.023011,0.007542,0.061314,0.0060674,0.0185982
0.013097,0.012459,0.022306,0.006943,0.065237,0.0055761,0.0188691
0.013256,0.013397,0.021206,0.007093,0.068636,0.0052792,0.0186513
0.013511,0.014557,0.020230,0.007337,0.072229,0.0050252,0.0182509
0.013948,0.015610,0.019347,0.007587,0.076416,0.0047936,0.0177605
0.014391,0.016524,0.018438,0.007896,0.080450,0.0046126,0.0172578
0.014913,0.017130,0.017383,0.008370,0.083841,0.0044466,0.0167334
0.015476,0.017448,0.016306,0.009000,0.086259,0.0043047,0.0161619
0.016150,0.017833,0.015297,0.009615,0.088327,0.0041530,0.0155698
0.016899,0.018298,0.014291,0.010278,0.089916,0.0040205,0.0150093
0.017705,0.018974,0.013288,0.010918,0.091068,0.0039083,0.0145018
0.018456,0.019678,0.012605,0.011520,0.092002,0.0038066,0.0139904
0.019197,0.020616,0.012091,0.012227,0.093049,0.0036685,0.0135488
0.020107,0.021798,0.011573,0.012978,0.094522,0.0035006,0.0131176
0.021168,0.022752,0.011050,0.013813,0.096057,0.0033493,0.0126940
0.022257,0.023584,0.010542,0.014696,0.097705,0.0032209,0.0122832
0.023329,0.024289,0.010041,0.015706,0.099229,0.0031460,0.0118273
0.024367,0.024804,0.009586,0.016633,0.100818,0.0031355,0.0112904
0.025344,0.025619,0.009274,0.017476,0.102282,0.0031162,0.0107387
0.026349,0.026718,0.009039,0.018287,0.103345,0.0031029,0.0101824
0.027373,0.028202,0.008854,0.019229,0.103678,0.0030743,0.0096050
0.028396,0.030106,0.008767,0.020133,0.104062,0.0029922,0.0090666
0.029362,0.031869,0.008641,0.021067,0.104630,0.0029262,0.0085374
0.030416,0.033277,0.008405,0.022010,0.105285,0.0028499,0.0080071
0.031513,0.034892,0.008082,0.022857,0.105224,0.0027247,0.0075520
0.032646,0.036737,0.007681,0.023838,0.104226,0.0025909,0.0071495
0.033909,0.039076,0.007242,0.025015,0.102976,0.0024197,0.0067725
0.035126,0.042120,0.006843,0.026327,0.101883,0.0022438,0.0064225
0.036387,0.045502,0.006429,0.027796,0.101173,0.0020562,0.0060856
0.037611,0.048981,0.006027,0.029213,0.100612,0.0018854,0.0057491
0.039020,0.052856,0.005658,0.030575,0.100125,0.0017187,0.0053936
0.040440,0.056697,0.005292,0.031921,0.099639,0.0015731,0.0050492
0.041798,0.060948,0.004923,0.033333,0.099132,0.0014120,0.0047072
0.042919,0.065065,0.004559,0.034795,0.097967,0.0012753,0.0043847
0.043995,0.069157,0.004215,0.036167,0.096169,0.0011899,0.0040686
0.045000,0.073183,0.003880,0.037516,0.094042,0.0011187,0.0037424
0.045997,0.077429,0.003548,0.038775,0.091648,0.0010529,0.0033933
0.047357,0.082071,0.003202,0.040118,0.089054,0.0009643,0.0030651
0.048716,0.086742,0.002856,0.041802,0.086335,0.0008118,0.0028227
0.049872,0.090859,0.002505,0.043947,0.083694,0.0006691,0.0026045
0.050952,0.094679,0.002130,0.046251,0.081283,0.0005341,0.0023900
0.051692,0.098044,0.001745,0.048465,0.078880,0.0004299,0.0022236
0.052331,0.101397,0.001377,0.050609,0.076028,0.0003418,0.0020989
0.052924,0.105152,0.001083,0.052663,0.072837,0.0002046,0.0020668
0.053447,0.109033,0.000851,0.054664,0.069281,0.0001208,0.0019976
0.053967,0.113058,0.000665,0.056723,0.066086,0.0000599,0.0019035
0.054450,0.117555,0.000508,0.058573,0.063138,0.0000201,0.0018132
0.054561,0.121695,0.000417,0.060020,0.060367,0.0000622,0.0017040
0.054654,0.125941,0.000363,0.061043,0.057516,0.0000876,0.0015963
0.054542,0.129778,0.000323,0.061751,0.054313,0.0001585,0.0014951
0.054284,0.132940,0.000288,0.062401,0.051066,0.0002872,0.0014051
0.053750,0.135227,0.000265,0.062952,0.047977,0.0004559,0.0013311
0.053381,0.137939,0.000247,0.063530,0.044763,0.0005380,0.0012651
0.053174,0.140977,0.000221,0.064020,0.041705,0.0006139,0.0011899
0.053113,0.144544,0.000185,0.064407,0.039181,0.0007123,0.0010815
0.053079,0.148796,0.000155,0.064774,0.036713,0.0007727,0.0009722
0.053157,0.153453,0.000123,0.065106,0.034442,0.0008153,0.0008702
0.052943,0.157256,0.000092,0.065355,0.032282,0.0009762,0.0007774
0.052199,0.160640,0.000081,0.065275,0.030228,0.0011694,0.0007083
0.051470,0.164220,0.000072,0.064444,0.028047,0.0013724,0.0006403
0.050939,0.168280,0.000067,0.062922,0.025849,0.0015780,0.0005635
0.050441,0.172407,0.000067,0.061298,0.023851,0.0017806,0.0004809
0.050086,0.176692,0.000067,0.059686,0.022043,0.0020243,0.0003779
0.049452,0.180325,0.000065,0.058145,0.020536,0.0023736,0.0003143
0.048678,0.183415,0.000062,0.056557,0.019214,0.0027909,0.0002635
0.047599,0.185468,0.000064,0.054895,0.018306,0.0033219,0.0002253
0.046293,0.186032,0.000077,0.052907,0.017507,0.0039209,0.0002047
0.044982,0.185067,0.000092,0.050909,0.016711,0.0045030,0.0002120
0.043930,0.183058,0.000106,0.049043,0.016127,0.0050509,0.0002411
0.042932,0.180397,0.000113,0.047345,0.015830,0.0056068,0.0002689
0.041915,0.178179,0.000111,0.045654,0.015819,0.0062810,0.0002687
0.040976,0.176397,0.000105,0.044034,0.015831,0.0069730,0.0002535
0.040124,0.174217,0.000094,0.042480,0.015878,0.0077174,0.0002438
0.038851,0.170397,0.000091,0.040798,0.016002,0.0086301,0.0002475
0.037468,0.165144,0.000105,0.039121,0.016069,0.0095475,0.0002876
0.035952,0.158072,0.000129,0.037429,0.016189,0.0105406,0.0003602
0.034365,0.149253,0.000149,0.035575,0.016626,0.0116449,0.0004537
0.032699,0.139641,0.000172,0.033516,0.017087,0.0127777,0.0005720
0.031394,0.130489,0.000192,0.031430,0.017501,0.0137674,0.0007037
0.030342,0.120986,0.000207,0.029407,0.017987,0.0147486,0.0008612
0.028974,0.111218,0.000232,0.027788,0.018604,0.0157533,0.0010251
0.027470,0.101208,0.000260,0.026386,0.019366,0.0167395,0.0012494
0.025930,0.091046,0.000302,0.024754,0.020122,0.0176428,0.0015482
0.024488,0.080944,0.000389,0.023006,0.020737,0.0184510,0.0019964
0.023230,0.071345,0.000477,0.021143,0.021298,0.0191636,0.0025188
0.021865,0.062068,0.000591,0.019818,0.021572,0.0197343,0.0030984
0.020742,0.053746,0.000711,0.018607,0.021737,0.0200755,0.0037679
0.019797,0.046306,0.000825,0.017594,0.021753,0.0202886,0.0046848
0.018777,0.039737,0.000947,0.016689,0.021331,0.0204245,0.0057302
0.017757,0.034024,0.001079,0.015850,0.020788,0.0205018,0.0067451
0.016591,0.028441,0.001229,0.015035,0.019972,0.0205866,0.0077338
0.015385,0.022933,0.001399,0.014317,0.019067,0.0203760,0.0089144
0.014206,0.017327,0.001528,0.013659,0.018212,0.0201212,0.0100243
0.012964,0.012616,0.001663,0.012962,0.017437,0.0198049,0.0110915
0.011928,0.009184,0.001789,0.011765,0.016635,0.0192716,0.0123503
0.010889,0.006534,0.001909,0.010585,0.015917,0.0187661,0.0134754
0.010062,0.005122,0.002008,0.009493,0.015168,0.0182632,0.0144668
0.009289,0.004381,0.002101,0.008672,0.014182,0.0177312,0.0153244
0.008516,0.004103,0.002185,0.008006,0.013197,0.0171863,0.0161385
0.007590,0.004173,0.002268,0.007455,0.012260,0.0167376,0.0168835
0.006854,0.004027,0.002327,0.006945,0.011403,0.0164014,0.0173714
0.006410,0.004027,0.002371,0.006470,0.010424,0.0161112,0.0177839
0.006101,0.004027,0.002412,0.006013,0.009272,0.0158933,0.0181714
0.005841,0.004027,0.002441,0.005712,0.008126,0.0157751,0.0184904
0.005567,0.004027,0.002418,0.005541,0.007107,0.0157577,0.0185833
0.005101,0.004492,0.002390,0.005475,0.006115,0.0158916,0.0185173
0.004915,0.004859,0.002324,0.004922,0.005382,0.0161499,0.0184260
0.004639,0.005391,0.002253,0.004314,0.004657,0.0165159,0.0183326
0.004243,0.006069,0.002188,0.003789,0.003976,0.0167993,0.0183421
0.003864,0.006760,0.002101,0.003235,0.003783,0.0173638,0.0182074
0.003495,0.007424,0.002011,0.002642,0.003613,0.0179199,0.0181308
0.003166,0.008098,0.001915,0.002072,0.003535,0.0184200,0.0181382
0.003038,0.008432,0.001792,0.001470,0.003558,0.0190723,0.0178849
0.002927,0.008767,0.001718,0.000841,0.003561,0.0196240,0.0177281
0.002895,0.008887,0.001656,0.000241,0.003467,0.0198564,0.0179061
0.002895,0.008818,0.001592,0.000230,0.003442,0.0202129,0.0178540
0.002895,0.008764,0.001534,0.000226,0.003470,0.0206117,0.0177070
0.002828,0.008799,0.001487,0.000209,0.003531,0.0209236,0.0174458
0.002691,0.008945,0.001461,0.000133,0.003564,0.0210026,0.0174633
0.002565,0.009096,0.001436,0.000061,0.003494,0.0209693,0.0177828
0.002497,0.009110,0.001409,0.000023,0.003430,0.0208860,0.0180783
0.002103,0.009702,0.001410,0.000015,0.003302,0.0206720,0.0185448
0.001712,0.010317,0.001403,0.000000,0.003223,0.0206422,0.0189269
0.001310,0.010900,0.001400,0.000000,0.003242,0.0206685,0.0190741
0.000908,0.011452,0.001399,0.000000,0.003268,0.0206807,0.0192104
0.000508,0.011988,0.001398,0.000000,0.003192,0.0207145,0.0194064
0.000350,0.012071,0.001394,0.000000,0.003085,0.0207445,0.0196691
0.000122,0.012270,0.001405,0.000000,0.003042,0.0207139,0.0197860
0.000069,0.012175,0.001414,0.000097,0.003166,0.0207949,0.0194691
0.000200,0.011856,0.001410,0.000103,0.003305,0.0210574,0.0188708
0.000200,0.011691,0.001415,0.000103,0.003419,0.0211126,0.0184559
0.000527,0.011026,0.001404,0.000103,0.003378,0.0212335,0.0180328
0.000850,0.010353,0.001369,0.000169,0.003362,0.0216359,0.0175607
0.001125,0.009692,0.001349,0.000454,0.003262,0.0220687,0.0171875
0.001412,0.009092,0.001299,0.000644,0.003114,0.0229037,0.0167519
0.001680,0.008568,0.001252,0.000953,0.003018,0.0238905,0.0160522
0.001955,0.008032,0.001198,0.001221,0.002940,0.0250776,0.0152630
0.002253,0.007483,0.001126,0.001365,0.002718,0.0264043,0.0146902
0.002514,0.006939,0.001058,0.001636,0.002417,0.0277952,0.0143626
0.002766,0.006412,0.000986,0.001968,0.002231,0.0293722,0.0137327
0.002766,0.006308,0.000951,0.002256,0.002201,0.0310312,0.0129648
0.002766,0.006320,0.000936,0.002256,0.002096,0.0325972,0.0123387
0.002766,0.006212,0.000935,0.002449,0.002075,0.0340546,0.0118133
0.002772,0.005936,0.001034,0.002887,0.002040,0.0349156,0.0115376
0.002772,0.005810,0.001125,0.003147,0.001902,0.0358620,0.0114431
0.002772,0.005632,0.001223,0.003498,0.001749,0.0365956,0.0113903
0.002772,0.005412,0.001350,0.003962,0.001737,0.0370375,0.0113062
0.002772,0.005288,0.001467,0.004210,0.001785,0.0375762,0.0110914
0.002772,0.005184,0.001575,0.004445,0.001825,0.0381664,0.0109779
0.002703,0.005141,0.001667,0.004760,0.001880,0.0384643,0.0110502
0.002572,0.005047,0.001761,0.005535,0.002015,0.0388363,0.0109835
0.002572,0.005043,0.001825,0.005826,0.002151,0.0394483,0.0107262
0.002244,0.005580,0.001833,0.006106,0.002495,0.0399881,0.0103871
0.001922,0.006077,0.001914,0.006398,0.002805,0.0402079,0.0100597
0.001647,0.006558,0.001997,0.006597,0.003090,0.0405974,0.0098000
0.001360,0.006958,0.002084,0.007188,0.003371,0.0407428,0.0095742
0.001092,0.007169,0.002191,0.008060,0.003684,0.0406178,0.0093453
0.000817,0.007454,0.002303,0.008871,0.003897,0.0404601,0.0092312
0.000518,0.007705,0.002420,0.009870,0.004166,0.0400438,0.0090992
0.000258,0.007991,0.002550,0.010640,0.004482,0.0394010,0.0089174
0.000006,0.008220,0.002682,0.011357,0.004767,0.0386254,0.0088560
0.000006,0.008055,0.002758,0.012008,0.004990,0.0380493,0.0086924
0.000006,0.007739,0.002788,0.012978,0.005301,0.0374175,0.0084176
0.000006,0.007574,0.002834,0.013500,0.005478,0.0366317,0.0082831
0.000000,0.007739,0.002859,0.013257,0.005594,0.0362419,0.0081364
0.000000,0.007813,0.002884,0.013134,0.005726,0.0356437,0.0080290
0.000000,0.007856,0.003127,0.013008,0.005833,0.0350232,0.0078614
0.000000,0.007960,0.003396,0.012656,0.005803,0.0345120,0.0078188
0.000000,0.008014,0.003699,0.012408,0.005697,0.0337470,0.0079672
0.000000,0.008039,0.004010,0.012173,0.005535,0.0328346,0.0081364
0.000000,0.008111,0.004328,0.011761,0.005246,0.0321281,0.0084186
0.000000,0.008328,0.004638,0.010980,0.004950,0.0314694,0.0087370
0.000000,0.008235,0.004920,0.010773,0.004829,0.0306141,0.0087793
0.000000,0.008057,0.005226,0.010687,0.004708,0.0296870,0.0088313
0.000000,0.007968,0.005678,0.010467,0.004571,0.0288857,0.0088075
0.000070,0.007859,0.006049,0.010164,0.004474,0.0278639,0.0087574
0.000212,0.007825,0.006688,0.009599,0.004270,0.0267665,0.0087150
0.000630,0.007778,0.007739,0.008529,0.004086,0.0260310,0.0087171
0.001209,0.007558,0.009231,0.007518,0.003908,0.0251300,0.0088365
0.001871,0.007307,0.010789,0.006410,0.003681,0.0240685,0.0090745
0.002608,0.007021,0.012380,0.005520,0.003661,0.0230138,0.0093736
0.003374,0.006792,0.014037,0.004578,0.003963,0.0219946,0.0099299
0.004189,0.006513,0.015784,0.003715,0.004418,0.0207843,0.0104539
0.005056,0.006267,0.017612,0.002799,0.004842,0.0196852,0.0110407
0.005940,0.005947,0.019526,0.002125,0.005309,0.0188276,0.0115076
0.006660,0.005751,0.021420,0.001930,0.005855,0.0178652,0.0120617
0.007249,0.005692,0.023392,0.001794,0.006469,0.0168944,0.0126426
0.007760,0.005863,0.025072,0.001568,0.007361,0.0161274,0.0133222
0.008214,0.006080,0.026694,0.001456,0.008716,0.0154368,0.0139629
0.008627,0.006073,0.028243,0.001513,0.010460,0.0147480,0.0145823
0.009092,0.005891,0.029437,0.001702,0.012160,0.0141802,0.0151057
0.009263,0.006040,0.030552,0.001818,0.013994,0.0135551,0.0156017
0.009439,0.006140,0.031489,0.002006,0.015985,0.0127667,0.0160478
0.009606,0.006385,0.032560,0.002062,0.018081,0.0119214,0.0167039
0.009737,0.006942,0.033695,0.002080,0.020585,0.0111737,0.0174163
0.009828,0.007394,0.034608,0.002307,0.023241,0.0104274,0.0182031
0.009758,0.007948,0.035637,0.002602,0.025993,0.0096816,0.0189661
0.009627,0.008496,0.036397,0.002840,0.028771,0.0089428,0.0196743
0.009359,0.009259,0.036687,0.003298,0.031831,0.0082466,0.0202538
0.008939,0.010375,0.036635,0.003823,0.035499,0.0075084,0.0207460
0.008395,0.011654,0.036581,0.004342,0.039386,0.0069696,0.0211869
0.007884,0.012724,0.036298,0.004816,0.043272,0.0065625,0.0215930
0.007709,0.013262,0.035819,0.005440,0.047167,0.0063130,0.0215771
0.007586,0.013664,0.035245,0.006094,0.050848,0.0061091,0.0214862
0.007540,0.013865,0.034538,0.006932,0.054354,0.0059610,0.0212840
0.007446,0.014287,0.033577,0.007817,0.057808,0.0058346,0.0209884
0.007503,0.014521,0.032533,0.008725,0.061389,0.0057288,0.0204857
0.007766,0.014860,0.031415,0.009701,0.065248,0.0055972,0.0199285
0.008153,0.015117,0.030243,0.010879,0.069132,0.0054657,0.0193077
0.008607,0.015249,0.029050,0.012266,0.072631,0.0053873,0.0186559
0.008982,0.015671,0.027870,0.013822,0.075683,0.0053186,0.0179982
0.009369,0.016531,0.027009,0.015139,0.078838,0.0052767,0.0173774
0.010050,0.017356,0.026227,0.016194,0.082160,0.0052134,0.0168997
0.010804,0.018263,0.025598,0.017022,0.085627,0.0051125,0.0164854
0.011714,0.018901,0.024876,0.017945,0.089103,0.0050588,0.0160311
0.012643,0.019031,0.024099,0.018929,0.091983,0.0050715,0.0155245
0.013664,0.018837,0.023189,0.019904,0.094377,0.0051115,0.0149753
0.014727,0.018543,0.022132,0.020894,0.096616,0.0051552,0.0144444
0.015786,0.018315,0.021088,0.022016,0.098833,0.0051849,0.0139545
0.016778,0.018100,0.019990,0.023093,0.101103,0.0051821,0.0134870
0.017817,0.017927,0.018736,0.024395,0.102967,0.0051880,0.0129810
0.018936,0.017746,0.017403,0.025756,0.104732,0.0052125,0.0123866
0.019926,0.017718,0.016248,0.027000,0.106428,0.0052310,0.0118563
0.020525,0.018624,0.015239,0.028073,0.107484,0.0051662,0.0115535
0.021102,0.020154,0.014285,0.029119,0.108471,0.0050264,0.0113078
0.021509,0.022057,0.013449,0.029906,0.109241,0.0048476,0.0111503
0.022020,0.023821,0.012735,0.030537,0.110189,0.0046254,0.0110282
0.022651,0.025345,0.011974,0.031077,0.111181,0.0044108,0.0109228
0.023317,0.026274,0.011207,0.031626,0.111444,0.0041985,0.0108051
0.024028,0.027271,0.010544,0.032088,0.111060,0.0040420,0.0105768
0.024764,0.028620,0.009917,0.032497,0.110537,0.0038602,0.0103099
0.025569,0.029964,0.009345,0.032695,0.109753,0.0036599,0.0100165
0.026287,0.031046,0.008802,0.032827,0.108716,0.0034349,0.0097645
0.026986,0.032052,0.008251,0.033249,0.107030,0.0032753,0.0094366
0.027706,0.033253,0.007732,0.033937,0.104846,0.0031410,0.0090492
0.028278,0.034678,0.007171,0.034491,0.102361,0.0030014,0.0088016
0.028721,0.036343,0.006627,0.034842,0.099387,0.0028679,0.0086159
0.029128,0.038307,0.006233,0.034864,0.096812,0.0026892,0.0084599
0.029612,0.040358,0.005946,0.034731,0.094275,0.0024724,0.0082695
0.030284,0.042417,0.005662,0.034511,0.091545,0.0022465,0.0080025
0.030976,0.044519,0.005418,0.034342,0.088319,0.0020545,0.0077170
0.031784,0.046540,0.005191,0.034136,0.084692,0.0018699,0.0074347
0.032666,0.048605,0.004944,0.034084,0.081067,0.0016570,0.0071778
0.033654,0.051006,0.004697,0.034013,0.077350,0.0014515,0.0068630
0.034614,0.053029,0.004430,0.033982,0.073751,0.0012807,0.0065147
0.035365,0.054496,0.004135,0.033924,0.070336,0.0012275,0.0061608
0.036141,0.055885,0.003806,0.034102,0.067139,0.0011815,0.0058229
0.037164,0.058558,0.003462,0.034385,0.063395,0.0010919,0.0054711
0.038240,0.062182,0.003188,0.034877,0.059361,0.0010158,0.0051189
0.039319,0.066706,0.002920,0.035472,0.055689,0.0009821,0.0047712
0.040279,0.071231,0.002663,0.035935,0.052459,0.0009240,0.0045059
0.041083,0.075344,0.002402,0.036110,0.049495,0.0008766,0.0042405
0.041917,0.079261,0.002130,0.036217,0.046890,0.0008552,0.0039424
0.042582,0.083496,0.001861,0.036448,0.044475,0.0009230,0.0036308
0.043178,0.087795,0.001607,0.036691,0.042237,0.0010281,0.0033267
0.043755,0.092175,0.001359,0.036782,0.040040,0.0011127,0.0030950
0.044357,0.096423,0.001168,0.036979,0.037832,0.0012283,0.0028312
0.044959,0.100495,0.000994,0.037100,0.036290,0.0013833,0.0025330
0.045290,0.104164,0.000825,0.037141,0.034864,0.0016416,0.0022342
0.045548,0.107872,0.000653,0.037101,0.033434,0.0019483,0.0019353
0.045488,0.111165,0.000487,0.037066,0.032129,0.0023051,0.0017275
0.045272,0.114478,0.000355,0.036885,0.030744,0.0027129,0.0015703
0.044896,0.117464,0.000266,0.036442,0.029571,0.0031871,0.0014203
0.044568,0.119509,0.000216,0.035670,0.028212,0.0037988,0.0012916
0.043859,0.119444,0.000171,0.034808,0.026736,0.0046978,0.0011993
0.043008,0.118604,0.000130,0.033806,0.025450,0.0057169,0.0011131
0.042201,0.117239,0.000089,0.032611,0.024090,0.0067364,0.0010478
0.041416,0.115632,0.000057,0.031210,0.022897,0.0077213,0.0009930
0.040433,0.112464,0.000046,0.029758,0.022287,0.0087639,0.0009896
0.039526,0.108073,0.000042,0.028147,0.021891,0.0098315,0.0010194
0.038670,0.102670,0.000057,0.026351,0.021534,0.0108098,0.0010871
0.037847,0.096729,0.000083,0.024539,0.021223,0.0117938,0.0011819
0.037049,0.090497,0.000148,0.022797,0.020772,0.0128724,0.0013148
0.036014,0.084344,0.000221,0.021093,0.020352,0.0139589,0.0015135
0.035103,0.077861,0.000299,0.019469,0.019901,0.0149303,0.0017592
0.033886,0.071117,0.000396,0.017903,0.019583,0.0158786,0.0020202
0.032388,0.064048,0.000501,0.016232,0.019283,0.0169276,0.0023140
0.030866,0.057064,0.000602,0.014478,0.018899,0.0179514,0.0026289
0.029440,0.050279,0.000705,0.012871,0.018530,0.0188750,0.0029639
0.028276,0.043981,0.000804,0.011510,0.017966,0.0196532,0.0034205
0.027177,0.037590,0.000905,0.010218,0.017395,0.0203365,0.0039296
0.026172,0.031552,0.001010,0.008920,0.017028,0.0208873,0.0044597
0.025242,0.025424,0.001110,0.007632,0.016760,0.0213950,0.0049925
0.024296,0.019409,0.001201,0.006511,0.016095,0.0218404,0.0055204
0.023112,0.014201,0.001264,0.005471,0.015418,0.0221092,0.0060481
0.022119,0.011416,0.001325,0.004536,0.015006,0.0219155,0.0068297
0.021054,0.009789,0.001405,0.003765,0.014709,0.0214402,0.0077136
0.020151,0.008535,0.001486,0.003305,0.014415,0.0208754,0.0085427
0.019407,0.007077,0.001550,0.002874,0.014043,0.0203468,0.0093749
0.018387,0.006069,0.001626,0.002496,0.013607,0.0198243,0.0101922
0.017238,0.005208,0.001695,0.002233,0.013029,0.0193993,0.0108736
0.015879,0.004348,0.001755,0.002114,0.012301,0.0192005,0.0112471
0.014567,0.003921,0.001795,0.002068,0.011565,0.0190464,0.0114339
0.013346,0.003921,0.001799,0.002108,0.010873,0.0187782,0.0116163
0.012150,0.004346,0.001796,0.002093,0.010121,0.0185343,0.0119479
0.011251,0.004346,0.001777,0.002113,0.009378,0.0182942,0.0122262
0.010513,0.004774,0.001742,0.002013,0.008695,0.0179322,0.0127000
0.009860,0.005306,0.001696,0.001940,0.008056,0.0175667,0.0132486
0.009338,0.005591,0.001650,0.001879,0.007422,0.0172411,0.0138625
0.008987,0.005707,0.001596,0.001818,0.006785,0.0169654,0.0143866
0.008301,0.006332,0.001545,0.001775,0.006346,0.0169091,0.0146753
0.007595,0.006936,0.001491,0.001775,0.005940,0.0169703,0.0148801
0.007151,0.007176,0.001422,0.001753,0.005505,0.0172013,0.0147845
0.006529,0.007711,0.001367,0.001756,0.005268,0.0173731,0.0146069
0.005845,0.008378,0.001319,0.001649,0.005563,0.0175569,0.0143960
0.005240,0.008955,0.001323,0.001650,0.005837,0.0175709,0.0143544
0.004738,0.009008,0.001344,0.001650,0.005823,0.0178311,0.0140590
0.004504,0.008609,0.001355,0.001650,0.005578,0.0181217,0.0138733
0.004193,0.008416,0.001367,0.001588,0.005315,0.0183730,0.0138020
0.003718,0.008517,0.001383,0.001623,0.005177,0.0186589,0.0135949
0.003397,0.008357,0.001387,0.001624,0.005002,0.0190606,0.0133188
0.003046,0.008205,0.001389,0.001704,0.004949,0.0192099,0.0131046
0.002664,0.008587,0.001382,0.001638,0.005081,0.0190905,0.0133578
0.002295,0.008863,0.001371,0.001563,0.005109,0.0189511,0.0136761
0.001976,0.009080,0.001365,0.001465,0.005479,0.0187459,0.0140169
0.001897,0.008852,0.001352,0.001453,0.005831,0.0184372,0.0141917
0.001475,0.009337,0.001349,0.001288,0.006114,0.0181660,0.0146390
0.001366,0.009304,0.001345,0.001206,0.006464,0.0180553,0.0147581
0.001289,0.009423,0.001345,0.001211,0.006891,0.0179085,0.0148325
0.001082,0.009808,0.001353,0.001211,0.007214,0.0176361,0.0150036
0.000754,0.010376,0.001370,0.001211,0.007401,0.0173373,0.0152468
0.000754,0.010413,0.001461,0.001211,0.007448,0.0167819,0.0156159
0.000754,0.010387,0.001567,0.001211,0.007532,0.0161766,0.0159648
0.000521,0.010740,0.001679,0.001211,0.007554,0.0154683,0.0166418
0.000589,0.010446,0.001779,0.001272,0.007416,0.0148775,0.0171553
0.000857,0.009780,0.001914,0.001303,0.007153,0.0143718,0.0175633
0.001151,0.009202,0.002100,0.001262,0.006923,0.0140513,0.0179061
0.001462,0.008556,0.002198,0.001335,0.006803,0.0138169,0.0179761
0.001768,0.007956,0.002309,0.001468,0.006805,0.0136828,0.0178148
0.002043,0.007368,0.002419,0.001728,0.006898,0.0138444,0.0175650
0.002304,0.006841,0.002667,0.001877,0.006904,0.0139330,0.0174128
0.002551,0.006317,0.002858,0.002116,0.006977,0.0140026,0.0172286
0.002584,0.006202,0.003037,0.002275,0.007036,0.0141130,0.0172051
0.002584,0.006187,0.003190,0.002365,0.007062,0.0144959,0.0170129
0.002620,0.006091,0.003341,0.002382,0.007018,0.0146806,0.0168844
0.002511,0.006279,0.003568,0.002284,0.006519,0.0148246,0.0168852
0.002391,0.006488,0.003661,0.002261,0.006105,0.0150118,0.0168610
0.002391,0.006419,0.003862,0.002345,0.005718,0.0151328,0.0166019
0.002308,0.006499,0.004165,0.002281,0.005194,0.0151196,0.0166438
0.002308,0.006413,0.004569,0.002227,0.004576,0.0147519,0.0169127
0.002308,0.006293,0.004973,0.002249,0.004214,0.0145093,0.0169661
0.002308,0.006151,0.005307,0.002258,0.004063,0.0143093,0.0168684
0.002428,0.005850,0.005529,0.002261,0.003909,0.0143153,0.0166802
0.002580,0.005545,0.005655,0.002370,0.003768,0.0143990,0.0164761
0.002830,0.004951,0.005646,0.002952,0.003808,0.0146482,0.0158955
0.002908,0.004710,0.005565,0.003514,0.003996,0.0149255,0.0154092
0.002855,0.004710,0.005468,0.004066,0.004157,0.0151055,0.0150921
0.002757,0.004710,0.005304,0.004660,0.004435,0.0152646,0.0146856
0.002628,0.004710,0.005216,0.005182,0.004662,0.0152667,0.0145271
0.002560,0.004710,0.005096,0.005426,0.004767,0.0152540,0.0144028
0.002529,0.004710,0.005169,0.005313,0.004708,0.0149162,0.0144528
0.002512,0.004710,0.005094,0.005251,0.004649,0.0145838,0.0145576
0.002493,0.004710,0.005077,0.005193,0.004541,0.0141944,0.0146588
0.002594,0.004539,0.005095,0.005128,0.004357,0.0138477,0.0146473
0.002792,0.004173,0.005150,0.005200,0.004182,0.0132767,0.0146776
0.002905,0.003992,0.005104,0.005300,0.004189,0.0128929,0.0146054
0.003123,0.003587,0.004932,0.005536,0.004268,0.0126625,0.0142894
0.003339,0.003182,0.004944,0.005653,0.004250,0.0124184,0.0141140
0.003589,0.002765,0.004875,0.005704,0.004275,0.0122079,0.0139825
0.003872,0.002291,0.004764,0.005823,0.004292,0.0120553,0.0137569
0.004144,0.001726,0.004553,0.005952,0.004389,0.0122484,0.0132197
0.004378,0.001184,0.004316,0.006139,0.004515,0.0124102,0.0126961
0.004502,0.000873,0.004150,0.006315,0.004603,0.0125075,0.0122822
0.004636,0.000521,0.003951,0.006537,0.004691,0.0124730,0.0118628
0.004715,0.000250,0.003917,0.006661,0.004708,0.0123816,0.0114938
0.004696,0.000250,0.003959,0.006373,0.004691,0.0122092,0.0113097
0.004738,0.000250,0.004073,0.006013,0.004541,0.0119551,0.0112623
0.004768,0.000250,0.004174,0.005684,0.004455,0.0117357,0.0111654
0.004807,0.000250,0.004323,0.005407,0.004326,0.0115613,0.0110246
0.004838,0.000250,0.004457,0.005123,0.004213,0.0114048,0.0108469
0.004867,0.000250,0.004532,0.005049,0.004203,0.0112814,0.0106465
0.004866,0.000250,0.004420,0.005218,0.004288,0.0112082,0.0102727
0.004839,0.000250,0.004323,0.005374,0.004395,0.0112096,0.0098403
0.004876,0.000250,0.004173,0.005560,0.004512,0.0111980,0.0094549
0.004903,0.000250,0.004067,0.005866,0.004671,0.0112391,0.0090635
0.004991,0.000250,0.004143,0.006100,0.004780,0.0113447,0.0086975
0.005167,0.000250,0.004603,0.006359,0.004859,0.0114443,0.0084549
0.005535,0.000250,0.005708,0.006560,0.004738,0.0115665,0.0082777
0.006008,0.000250,0.007082,0.006664,0.004750,0.0116561,0.0081329
0.006166,0.000780,0.008593,0.007446,0.005428,0.0117821,0.0082559
0.006123,0.001629,0.010150,0.008456,0.006389,0.0118928,0.0084089
0.005975,0.002847,0.011781,0.009557,0.008012,0.0119347,0.0086227
0.005741,0.004521,0.013577,0.010587,0.009783,0.0118565,0.0091806
0.005617,0.005854,0.015505,0.011668,0.011600,0.0118328,0.0099673
0.005363,0.007255,0.017233,0.012841,0.013768,0.0118180,0.0108403
0.005132,0.008597,0.018847,0.014030,0.016305,0.0117709,0.0117453
0.004900,0.009803,0.020337,0.015181,0.019013,0.0116122,0.0128519
0.004647,0.010951,0.021742,0.016415,0.021755,0.0114695,0.0139755
0.004400,0.012032,0.022984,0.017790,0.024556,0.0113553,0.0149953
0.004167,0.013271,0.024116,0.019226,0.027594,0.0112252,0.0159651
0.003953,0.014706,0.025252,0.020800,0.030249,0.0110706,0.0170119
0.003685,0.016070,0.026370,0.022355,0.032992,0.0108652,0.0178923
0.003530,0.017623,0.027423,0.023357,0.036158,0.0106631,0.0186422
0.003437,0.019238,0.028500,0.024301,0.039418,0.0103949,0.0194063
0.003284,0.020857,0.029618,0.025257,0.042658,0.0101083,0.0202381
0.003171,0.022346,0.030677,0.026086,0.045974,0.0098220,0.0210778
0.002955,0.023879,0.031569,0.027041,0.049244,0.0095400,0.0219026
0.002698,0.025238,0.032017,0.028235,0.052741,0.0092476,0.0227073
0.002372,0.026322,0.031712,0.029422,0.056431,0.0089329,0.0233976
0.002170,0.026793,0.030932,0.030747,0.060066,0.0087508,0.0236373
0.002499,0.026333,0.029812,0.031504,0.063015,0.0085339,0.0234424
0.003037,0.025833,0.028567,0.032019,0.065608,0.0083212,0.0230810
0.003852,0.025333,0.027313,0.032336,0.067678,0.0080964,0.0226646
0.004901,0.024295,0.025914,0.032604,0.070033,0.0079455,0.0219115
0.006031,0.023381,0.024390,0.032757,0.072425,0.0077247,0.0209548
0.007208,0.022582,0.023137,0.032651,0.074699,0.0074774,0.0199966
0.008273,0.021527,0.021910,0.032701,0.076502,0.0073122,0.0190098
0.009338,0.020512,0.020856,0.032640,0.077926,0.0072054,0.0179323
0.010187,0.020057,0.019891,0.032455,0.079328,0.0070836,0.0169219
0.011015,0.019838,0.019078,0.032133,0.080527,0.0068959,0.0160806
0.011911,0.019415,0.018297,0.031704,0.081598,0.0067629,0.0152318
0.013013,0.019121,0.017493,0.031085,0.082984,0.0066074,0.0143293
0.014127,0.019158,0.016692,0.030555,0.083851,0.0065452,0.0135892
0.015166,0.018972,0.015900,0.030488,0.084090,0.0065388,0.0129725
0.016150,0.018704,0.015074,0.030299,0.084061,0.0065661,0.0123457
0.017221,0.018328,0.014201,0.029973,0.084147,0.0065875,0.0116864
0.018415,0.017912,0.013337,0.029445,0.084271,0.0065850,0.0110105
0.019708,0.017778,0.012463,0.028844,0.084622,0.0065524,0.0102504
0.020882,0.018058,0.011710,0.028162,0.084600,0.0064947,0.0095933
0.021800,0.018812,0.011171,0.027597,0.083936,0.0064244,0.0091277
0.022342,0.020363,0.010858,0.027177,0.082922,0.0062930,0.0089886
0.022492,0.022401,0.010735,0.026968,0.081805,0.0062240,0.0089547
0.022631,0.024200,0.010630,0.027005,0.080611,0.0061729,0.0089739
0.022701,0.025770,0.010457,0.027081,0.079459,0.0061579,0.0090012
0.022804,0.027586,0.010303,0.027184,0.078053,0.0061470,0.0089827
0.023179,0.028877,0.010180,0.027297,0.076632,0.0061281,0.0088835
0.023780,0.030107,0.010065,0.027611,0.075308,0.0061243,0.0087360
0.024560,0.031701,0.009899,0.028304,0.074114,0.0060400,0.0086059
0.025264,0.033120,0.009738,0.029127,0.073054,0.0059991,0.0084633
0.026424,0.034049,0.009569,0.030225,0.072049,0.0059062,0.0081500
0.027968,0.035628,0.009403,0.031465,0.071326,0.0057050,0.0077717
0.029517,0.037521,0.009257,0.032858,0.070568,0.0054559,0.0074582
0.030830,0.039212,0.009118,0.034381,0.069757,0.0052601,0.0071508
0.032054,0.040869,0.009024,0.036097,0.069348,0.0050418,0.0068413
0.033331,0.042999,0.008982,0.038208,0.069321,0.0048096,0.0065290
0.034594,0.044946,0.008910,0.041359,0.069485,0.0045904,0.0061863
0.035916,0.047030,0.008798,0.044912,0.069454,0.0043720,0.0057952
0.037312,0.049556,0.008609,0.048497,0.069211,0.0041049,0.0054309
0.038984,0.052453,0.008395,0.052081,0.068677,0.0038419,0.0050841
0.040671,0.055200,0.008235,0.055856,0.068009,0.0036009,0.0046809
0.042516,0.058102,0.008012,0.059803,0.067749,0.0033442,0.0042256
0.044607,0.061088,0.007681,0.063547,0.067624,0.0030620,0.0037416
0.046704,0.064267,0.007305,0.067143,0.067380,0.0027247,0.0032723
0.048671,0.067644,0.006897,0.070479,0.066957,0.0024005,0.0027924
0.050647,0.071049,0.006488,0.073379,0.066323,0.0021038,0.0023193
0.052602,0.074749,0.006058,0.076345,0.065462,0.0018277,0.0018997
0.054141,0.079034,0.005586,0.079374,0.064817,0.0015897,0.0015782
0.055321,0.083585,0.005104,0.083244,0.063793,0.0013573,0.0013041
0.056399,0.088267,0.004678,0.087109,0.062682,0.0011474,0.0010263
0.057543,0.093296,0.004260,0.091064,0.061313,0.0008810,0.0007909
0.058115,0.098112,0.003862,0.094695,0.059642,0.0006543,0.0006657
0.058298,0.102266,0.003451,0.097687,0.057557,0.0005693,0.0005554
0.058255,0.106157,0.003024,0.100132,0.055459,0.0005544,0.0004538
0.058056,0.109689,0.002622,0.102465,0.053444,0.0006255,0.0003431
0.057859,0.113193,0.002248,0.104712,0.051494,0.0006972,0.0002227
0.057476,0.116086,0.001872,0.106395,0.049410,0.0008230,0.0001297
0.057253,0.119592,0.001530,0.106892,0.047310,0.0008590,0.0000839
0.056901,0.123133,0.001294,0.106846,0.045274,0.0009129,0.0000839
0.056519,0.127015,0.001129,0.106957,0.043278,0.0009632,0.0000839
0.055844,0.130355,0.000981,0.106971,0.041372,0.0010534,0.0000839
0.055062,0.133577,0.000829,0.106473,0.039621,0.0012108,0.0000839
0.054065,0.136903,0.000674,0.105638,0.038134,0.0014725,0.0000839
0.052848,0.139457,0.000562,0.104826,0.036810,0.0018437,0.0000839
0.051839,0.141877,0.000483,0.103771,0.035376,0.0021660,0.0000850
0.050861,0.143602,0.000434,0.101885,0.034203,0.0025036,0.0001118
0.049686,0.145023,0.000392,0.100177,0.032977,0.0029046,0.0001308
0.048411,0.146435,0.000352,0.098247,0.031722,0.0033453,0.0001329
0.047317,0.147386,0.000311,0.096266,0.030069,0.0037680,0.0001463
0.046303,0.147683,0.000270,0.093347,0.028429,0.0041985,0.0001782
0.045512,0.147315,0.000229,0.089344,0.026757,0.0045872,0.0002268
0.044769,0.146532,0.000192,0.085069,0.025305,0.0049784,0.0003049
0.044430,0.145165,0.000141,0.080571,0.024064,0.0054471,0.0003871
0.044175,0.142874,0.000106,0.076412,0.023103,0.0059842,0.0004845
0.044091,0.140226,0.000094,0.072528,0.022139,0.0065133,0.0005816
0.044139,0.136997,0.000081,0.068612,0.021164,0.0070767,0.0007072
0.044151,0.132433,0.000072,0.064429,0.020122,0.0077591,0.0008535
0.044278,0.127713,0.000062,0.060457,0.019030,0.0084039,0.0010186
0.044326,0.122063,0.000060,0.056729,0.017905,0.0091150,0.0012078
0.044401,0.115312,0.000070,0.053167,0.016608,0.0098110,0.0014201
0.044089,0.107831,0.000092,0.049465,0.015310,0.0105910,0.0016243
0.043289,0.100194,0.000134,0.045636,0.014171,0.0114215,0.0018394
0.042527,0.092585,0.000189,0.041750,0.013081,0.0122328,0.0020639
0.041420,0.084520,0.000268,0.037733,0.012044,0.0128366,0.0024649
0.040498,0.076958,0.000349,0.033574,0.010973,0.0132763,0.0030387
0.039467,0.069251,0.000433,0.029619,0.010264,0.0137134,0.0037067
0.038089,0.062000,0.000514,0.026642,0.009513,0.0141292,0.0044675
0.036685,0.054885,0.000599,0.024033,0.008758,0.0144341,0.0053475
0.035259,0.047314,0.000683,0.021593,0.008005,0.0146949,0.0063832
0.033694,0.040138,0.000769,0.019148,0.007307,0.0148738,0.0074560
0.032176,0.033447,0.000857,0.016682,0.006701,0.0151040,0.0084223
0.030432,0.027252,0.000953,0.014745,0.006280,0.0154261,0.0093042
0.028605,0.021395,0.001050,0.013055,0.005882,0.0156807,0.0101287
0.026685,0.016324,0.001151,0.011684,0.005589,0.0158606,0.0108399
0.024689,0.012020,0.001256,0.010472,0.005309,0.0159536,0.0115916
0.022700,0.008068,0.001349,0.009395,0.005028,0.0159433,0.0123444
0.020757,0.004933,0.001430,0.008408,0.004736,0.0158563,0.0130778
0.018880,0.002941,0.001512,0.007577,0.004417,0.0155622,0.0138243
0.016876,0.001479,0.001596,0.006809,0.004099,0.0152141,0.0145695
0.014846,0.000543,0.001669,0.005983,0.003762,0.0148803,0.0153876
0.012959,0.000427,0.001726,0.005114,0.003511,0.0145876,0.0163247
0.011280,0.000427,0.001770,0.004383,0.003358,0.0142797,0.0172163
0.010028,0.000427,0.001799,0.003829,0.003150,0.0139617,0.0179729
0.008883,0.000427,0.001820,0.003432,0.002866,0.0135199,0.0188473
0.008235,0.000511,0.001815,0.003205,0.002476,0.0131229,0.0197979
0.007578,0.000511,0.001804,0.003144,0.002156,0.0127829,0.0206441
0.006973,0.000511,0.001789,0.002992,0.001865,0.0125533,0.0212394
0.006756,0.000511,0.001770,0.002831,0.001737,0.0122995,0.0215834
0.006722,0.000511,0.001738,0.002626,0.001715,0.0122167,0.0217193
0.006674,0.000511,0.001715,0.002420,0.001715,0.0120726,0.0219160
0.006644,0.000543,0.001684,0.002284,0.001715,0.0120696,0.0221128
0.006602,0.000543,0.001655,0.002194,0.001667,0.0121242,0.0220700
0.006598,0.000543,0.001618,0.002113,0.001620,0.0121597,0.0219545
0.006392,0.000952,0.001594,0.001928,0.001638,0.0121953,0.0220499
0.006196,0.001390,0.001575,0.001752,0.001632,0.0122857,0.0222077
0.005892,0.001952,0.001563,0.001784,0.001734,0.0124388,0.0222735
0.005564,0.002476,0.001554,0.001883,0.001844,0.0127199,0.0221448
0.005242,0.002974,0.001545,0.002002,0.002058,0.0130418,0.0218961
0.004966,0.003516,0.001537,0.001972,0.002264,0.0134322,0.0217506
0.004824,0.003860,0.001516,0.001813,0.002434,0.0141318,0.0215114
0.004703,0.004069,0.001492,0.001885,0.002676,0.0148990,0.0209531
0.004374,0.004521,0.001460,0.001997,0.002972,0.0155549,0.0204153
0.004036,0.005000,0.001428,0.001887,0.003084,0.0161754,0.0200926
0.003729,0.005493,0.001390,0.001782,0.003149,0.0169747,0.0198038
0.003710,0.005493,0.001347,0.001732,0.003219,0.0178199,0.0193305
0.003712,0.005409,0.001372,0.001732,0.003522,0.0186155,0.0187022
0.003681,0.005409,0.001420,0.001732,0.003850,0.0191294,0.0181639
0.003486,0.005686,0.001475,0.001732,0.004227,0.0195971,0.0177634
0.003418,0.005797,0.001534,0.001713,0.004593,0.0201226,0.0173637
0.003127,0.006207,0.001600,0.001716,0.005026,0.0204318,0.0170567
0.002999,0.006374,0.001648,0.001716,0.005416,0.0207835,0.0165816
0.002732,0.006747,0.001706,0.001718,0.005873,0.0210480,0.0160501
0.002594,0.006870,0.001691,0.001778,0.006116,0.0212748,0.0157579
0.002512,0.006870,0.001697,0.001861,0.006262,0.0214672,0.0154857
0.002649,0.006461,0.001744,0.001966,0.006295,0.0215885,0.0151848
0.002740,0.006117,0.001783,0.002068,0.006315,0.0216400,0.0149750
0.002998,0.005555,0.001821,0.001989,0.006248,0.0216393,0.0146540
0.003246,0.005031,0.001876,0.001855,0.006135,0.0214555,0.0145806
0.003504,0.004533,0.001948,0.001678,0.005960,0.0211854,0.0145915
0.003760,0.003987,0.002017,0.001576,0.005907,0.0209486,0.0143362
0.004020,0.003433,0.002077,0.001551,0.005892,0.0204743,0.0141840
0.004220,0.003022,0.002097,0.001454,0.005912,0.0199662,0.0141648
0.004453,0.002570,0.002127,0.001407,0.005973,0.0195727,0.0139057
0.004692,0.002091,0.002152,0.001561,0.006117,0.0192036,0.0134914
0.004788,0.001794,0.002181,0.001809,0.006254,0.0186468,0.0132735
0.004670,0.001794,0.002202,0.002202,0.006425,0.0181655,0.0131246
0.004461,0.001985,0.002283,0.002612,0.006290,0.0177015,0.0130469
0.004167,0.002298,0.002362,0.002990,0.006110,0.0175979,0.0128328
0.004024,0.002367,0.002439,0.003324,0.005837,0.0174921,0.0126870
0.003781,0.002659,0.002589,0.003549,0.005568,0.0173257,0.0128131
0.003700,0.002719,0.002730,0.003647,0.005255,0.0173779,0.0130084
0.003472,0.003009,0.002884,0.003760,0.004999,0.0174880,0.0130153
0.003383,0.003011,0.003087,0.004046,0.004682,0.0175817,0.0130621
0.003136,0.003301,0.003242,0.004268,0.004635,0.0176381,0.0131332
0.002834,0.003655,0.003371,0.004543,0.004615,0.0175519,0.0133124
0.002562,0.003976,0.003503,0.004842,0.004674,0.0175703,0.0132444
0.002343,0.004191,0.003575,0.005154,0.004701,0.0177702,0.0129775
0.002130,0.004395,0.003641,0.005489,0.004680,0.0178778,0.0128023
0.001882,0.004729,0.003702,0.005761,0.004679,0.0180198,0.0126313
0.001624,0.005238,0.003833,0.005599,0.004539,0.0180751,0.0127101
0.001368,0.005737,0.004006,0.005459,0.004381,0.0180831,0.0128865
0.001108,0.006234,0.004245,0.005368,0.004237,0.0180621,0.0130355
0.000863,0.006698,0.004471,0.005309,0.004063,0.0179670,0.0132566
0.000813,0.006836,0.004681,0.005258,0.003854,0.0177085,0.0135907
0.000811,0.006879,0.004901,0.005222,0.003655,0.0174195,0.0139501
0.000987,0.006683,0.005119,0.005038,0.003471,0.0172278,0.0141341
0.001082,0.006683,0.005218,0.004819,0.003461,0.0170682,0.0140854
0.001260,0.006492,0.005156,0.004602,0.003578,0.0169981,0.0138167
0.001512,0.006179,0.005026,0.004390,0.003720,0.0168949,0.0135288
0.001768,0.005833,0.004948,0.004208,0.003870,0.0168021,0.0131802
0.002032,0.005430,0.004811,0.004166,0.004014,0.0167099,0.0126833
0.002312,0.004991,0.004776,0.004193,0.004044,0.0164602,0.0122123
0.002561,0.004612,0.004956,0.004253,0.003973,0.0159523,0.0119737
0.002753,0.004440,0.005135,0.004429,0.003909,0.0154806,0.0116830
0.002894,0.004448,0.005842,0.004818,0.003712,0.0149919,0.0114711
0.003184,0.004257,0.006749,0.005140,0.003493,0.0146329,0.0113470
0.003555,0.003936,0.007697,0.005796,0.003251,0.0143283,0.0113385
0.003979,0.003627,0.008865,0.006367,0.003033,0.0138609,0.0114973
0.004307,0.003423,0.010113,0.007261,0.002822,0.0135360,0.0116227
0.004700,0.003090,0.011320,0.008276,0.002685,0.0133610,0.0115959
0.004888,0.003171,0.012808,0.009258,0.002664,0.0131037,0.0118142
0.005130,0.003087,0.014107,0.010262,0.003196,0.0128665,0.0120068
0.005130,0.003574,0.015485,0.010968,0.003957,0.0124229,0.0127109
0.005130,0.004176,0.017110,0.011112,0.005286,0.0119005,0.0137005
0.004932,0.005124,0.018548,0.011361,0.007170,0.0115084,0.0146992
0.004693,0.006235,0.020243,0.011604,0.009076,0.0111688,0.0156137
0.004420,0.007423,0.021920,0.011773,0.011036,0.0107430,0.0165833
0.004156,0.008677,0.023630,0.011673,0.013106,0.0102229,0.0178897
0.003915,0.009970,0.025385,0.011608,0.015666,0.0096402,0.0194254
0.003663,0.011106,0.027165,0.011806,0.018685,0.0091381,0.0205949
0.003407,0.012129,0.028634,0.012139,0.022049,0.0086428,0.0217632
0.003143,0.013461,0.029944,0.012299,0.025442,0.0081858,0.0229419
0.003081,0.014756,0.031045,0.012850,0.029227,0.0078118,0.0236378
0.003305,0.015656,0.031694,0.013514,0.032969,0.0077245,0.0239984
0.003702,0.016371,0.032350,0.013791,0.036574,0.0077557,0.0242017
0.004036,0.017057,0.032454,0.014308,0.040689,0.0077751,0.0243905
0.003770,0.019032,0.032441,0.015279,0.045200,0.0077075,0.0246478
0.003399,0.021526,0.032346,0.016021,0.049990,0.0076704,0.0248424
0.003074,0.023832,0.032087,0.016841,0.054473,0.0076594,0.0248621
0.003018,0.025645,0.031690,0.017233,0.058541,0.0076677,0.0248248
0.003010,0.027595,0.031296,0.017486,0.062436,0.0075702,0.0248817
0.003266,0.028938,0.030598,0.018168,0.066241,0.0075983,0.0245181
0.003373,0.030425,0.030007,0.018606,0.069803,0.0075339,0.0244039
0.003664,0.031632,0.029311,0.019299,0.073202,0.0076533,0.0238038
0.004031,0.032692,0.028567,0.020547,0.075973,0.0078857,0.0229442
0.004594,0.033270,0.027985,0.021692,0.077971,0.0081265,0.0218975
0.005194,0.033571,0.027374,0.022630,0.079096,0.0084116,0.0207857
0.005989,0.033385,0.026675,0.023319,0.080038,0.0086351,0.0196088
0.006876,0.032718,0.025938,0.024097,0.080291,0.0088327,0.0183795
0.007632,0.032367,0.025311,0.024895,0.080083,0.0090784,0.0170595
0.008355,0.032432,0.024679,0.025766,0.079650,0.0091772,0.0161536
0.009142,0.032846,0.024327,0.026689,0.078516,0.0092259,0.0152306
0.010058,0.032826,0.024123,0.027718,0.077317,0.0092986,0.0142877
0.010754,0.032584,0.024152,0.028870,0.075032,0.0093817,0.0137134
0.011173,0.032595,0.024349,0.030135,0.073379,0.0093747,0.0133850
0.011361,0.032756,0.024569,0.031549,0.071653,0.0092596,0.0132308
0.011565,0.032692,0.024637,0.032520,0.069541,0.0091504,0.0131755
0.012280,0.031704,0.024504,0.033031,0.067289,0.0091110,0.0129370
0.012880,0.030564,0.024432,0.033714,0.065047,0.0089991,0.0127996
0.013325,0.030098,0.024374,0.034744,0.063178,0.0087901,0.0128665
0.013821,0.029612,0.024289,0.035601,0.061750,0.0085399,0.0129565
0.014236,0.028402,0.024186,0.036543,0.060659,0.0084055,0.0129914
0.014747,0.027319,0.023961,0.037510,0.059636,0.0082768,0.0129092
0.015452,0.026440,0.023691,0.038950,0.058252,0.0082382,0.0125229
0.016250,0.025207,0.023341,0.039968,0.056197,0.0082612,0.0120563
0.016974,0.024137,0.022762,0.040876,0.054274,0.0082525,0.0116172
0.017820,0.023668,0.022140,0.041833,0.052681,0.0081814,0.0112088
0.018597,0.023422,0.021410,0.043132,0.052035,0.0080424,0.0108975
0.019373,0.023699,0.020743,0.044872,0.051364,0.0078995,0.0106605
0.020044,0.024439,0.020185,0.046355,0.051021,0.0078389,0.0103560
0.020943,0.025095,0.019491,0.047940,0.050618,0.0077953,0.0099304
0.021768,0.025841,0.018735,0.049593,0.049727,0.0077431,0.0094734
0.022574,0.026372,0.017942,0.051152,0.049189,0.0077153,0.0090405
0.023137,0.027024,0.017134,0.052739,0.048606,0.0076855,0.0086243
0.023709,0.027957,0.016161,0.053667,0.048929,0.0075448,0.0082467
0.024301,0.029352,0.015310,0.054895,0.049010,0.0074378,0.0078584
0.025009,0.030817,0.014420,0.056266,0.049231,0.0073704,0.0074359
0.025850,0.032257,0.013736,0.057474,0.049314,0.0072965,0.0069579
0.026525,0.033246,0.013112,0.058669,0.049172,0.0073196,0.0064980
0.027471,0.033901,0.012396,0.059554,0.048655,0.0073753,0.0058932
0.028533,0.033993,0.011590,0.060377,0.048165,0.0074587,0.0051894
0.029367,0.034575,0.010851,0.061118,0.047524,0.0074663,0.0046443
0.030078,0.035888,0.010214,0.061813,0.046427,0.0073898,0.0042160
0.030542,0.037171,0.009690,0.062390,0.045191,0.0073410,0.0038899
0.030904,0.038307,0.009252,0.062908,0.043964,0.0073061,0.0036999
0.031076,0.039117,0.008864,0.063414,0.043650,0.0072792,0.0035444
0.031425,0.039545,0.008511,0.063800,0.043180,0.0071755,0.0033954
0.031562,0.040056,0.008164,0.064216,0.042525,0.0070696,0.0033824
0.031770,0.040861,0.007696,0.064440,0.041790,0.0069369,0.0033646
0.031782,0.041517,0.007273,0.064667,0.041066,0.0068407,0.0033474
0.031772,0.042151,0.006875,0.065052,0.040694,0.0067113,0.0033262
0.031759,0.042697,0.006490,0.065072,0.040247,0.0065662,0.0033346
0.032021,0.042755,0.006190,0.064598,0.040507,0.0064198,0.0032721
0.032227,0.042592,0.005815,0.064258,0.040894,0.0063364,0.0031750
0.032659,0.043230,0.005442,0.064144,0.041447,0.0061798,0.0030480
0.033340,0.044989,0.005113,0.065005,0.041574,0.0059902,0.0028979
0.034018,0.046925,0.004709,0.065763,0.041111,0.0058109,0.0027739
0.034503,0.048873,0.004247,0.066283,0.040550,0.0056752,0.0026724
0.035289,0.051904,0.003864,0.067819,0.040004,0.0054024,0.0025200
0.036497,0.056226,0.003533,0.069253,0.039399,0.0049929,0.0023859
0.037608,0.061337,0.003216,0.071328,0.038716,0.0045698,0.0023238
0.038496,0.066059,0.002978,0.073039,0.037971,0.0041832,0.0023261
0.039244,0.071107,0.002754,0.075194,0.036909,0.0038871,0.0023085
0.040232,0.076271,0.002477,0.077353,0.035824,0.0035914,0.0022056
0.041477,0.081904,0.002156,0.079810,0.034855,0.0032728,0.0020594
0.042958,0.087740,0.001838,0.082388,0.033739,0.0029394,0.0019014
0.044547,0.093455,0.001529,0.084810,0.032207,0.0025517,0.0017773
0.046203,0.099366,0.001278,0.087401,0.030646,0.0022564,0.0016112
0.047555,0.104437,0.001110,0.089250,0.029209,0.0020169,0.0014417
0.048751,0.109313,0.000937,0.090939,0.027794,0.0018174,0.0013039
0.049867,0.114260,0.000775,0.092632,0.026573,0.0016055,0.0011724
0.051030,0.119298,0.000616,0.094514,0.024911,0.0013867,0.0010527
0.051948,0.123835,0.000475,0.096579,0.023357,0.0011936,0.0009259
0.052502,0.128113,0.000352,0.098418,0.021368,0.0011027,0.0008689
0.053127,0.132100,0.000314,0.099831,0.019290,0.0009594,0.0008617
0.053502,0.134401,0.000283,0.100490,0.017107,0.0009645,0.0009037
0.053355,0.133746,0.000264,0.099879,0.015227,0.0012633,0.0009671
0.053034,0.132334,0.000263,0.098358,0.013678,0.0016093,0.0010373
0.052687,0.130323,0.000274,0.096812,0.012328,0.0019433,0.0011224
0.051760,0.126607,0.000299,0.094347,0.011085,0.0024815,0.0012309
0.050468,0.120780,0.000342,0.091394,0.009807,0.0031445,0.0013707
0.048816,0.113659,0.000394,0.087199,0.008705,0.0038891,0.0015312
0.047323,0.107005,0.000446,0.082876,0.007574,0.0046642,0.0016597
0.045426,0.100049,0.000522,0.077810,0.006729,0.0053373,0.0022297
0.043632,0.092832,0.000603,0.072448,0.006038,0.0059194,0.0030267
0.041622,0.085065,0.000673,0.067007,0.005419,0.0064447,0.0039947
0.039314,0.077069,0.000750,0.061358,0.005023,0.0069266,0.0047790
0.036802,0.069588,0.000829,0.056103,0.004743,0.0074478,0.0056601
0.034105,0.062181,0.000906,0.050924,0.004619,0.0079281,0.0065174
0.031567,0.055405,0.000983,0.046335,0.004456,0.0084479,0.0072621
0.029156,0.048514,0.001089,0.041914,0.004253,0.0090317,0.0080404
0.026770,0.041631,0.001184,0.037425,0.003876,0.0097029,0.0088224
0.024376,0.034633,0.001273,0.033101,0.003765,0.0104151,0.0095196
0.022156,0.027952,0.001311,0.028675,0.003616,0.0111280,0.0102853
0.020151,0.021669,0.001347,0.024502,0.003400,0.0118581,0.0110334
0.018148,0.015877,0.001396,0.020461,0.003340,0.0131351,0.0115097
0.016334,0.010974,0.001475,0.016957,0.006825,0.0141759,0.0120880
0.014965,0.008050,0.001530,0.013949,0.013032,0.0147138,0.0127472
0.013585,0.006969,0.001579,0.011381,0.021527,0.0146863,0.0136863
0.012006,0.007579,0.001762,0.008880,0.029503,0.0147814,0.0144623
0.010627,0.008647,0.001922,0.006443,0.034331,0.0149581,0.0155413
0.009297,0.009281,0.002036,0.004597,0.036133,0.0153800,0.0163709
0.008373,0.010702,0.002169,0.003381,0.038514,0.0152847,0.0171613
0.007626,0.011588,0.002316,0.002433,0.041009,0.0150720,0.0177899
0.007239,0.012560,0.002373,0.001984,0.042666,0.0149572,0.0181820
0.006560,0.013321,0.002377,0.001833,0.044513,0.0148988,0.0183256
0.006354,0.013321,0.002363,0.001608,0.046217,0.0150018,0.0181286
0.006403,0.013321,0.002353,0.001335,0.047541,0.0150982,0.0179224
0.006696,0.013415,0.002325,0.001253,0.048890,0.0151544,0.0176850
0.006780,0.013788,0.002313,0.001186,0.050144,0.0151468,0.0174946
0.006968,0.014070,0.002297,0.001353,0.051530,0.0151293,0.0173375
0.007199,0.014070,0.002247,0.001670,0.052883,0.0152031,0.0167661
0.007461,0.014070,0.002191,0.001941,0.054485,0.0152260,0.0161881
0.007491,0.014070,0.002134,0.002029,0.055706,0.0153335,0.0157071
0.007735,0.014162,0.002111,0.002149,0.056969,0.0153499,0.0153694
0.007941,0.014162,0.002092,0.002285,0.058041,0.0153117,0.0150440
0.008130,0.014162,0.002052,0.002407,0.058792,0.0147566,0.0148526
0.008049,0.014162,0.001985,0.002514,0.055720,0.0144974,0.0143390
0.007775,0.013966,0.001938,0.002667,0.050260,0.0145334,0.0137040
0.007901,0.012137,0.001900,0.002889,0.043045,0.0149038,0.0129647
0.008453,0.009015,0.001724,0.003175,0.035866,0.0150267,0.0123947
0.009335,0.006148,0.001572,0.003449,0.031451,0.0149358,0.0114840
0.009934,0.004881,0.001477,0.003806,0.029851,0.0146938,0.0106171
0.010466,0.003460,0.001357,0.004083,0.027877,0.0148229,0.0097912
0.010566,0.002573,0.001212,0.004239,0.025985,0.0151469,0.0091103
0.010811,0.001601,0.001126,0.004373,0.024839,0.0155659,0.0082327
0.011228,0.000841,0.001098,0.004545,0.023462,0.0159273,0.0074258
0.011542,0.000841,0.001093,0.004654,0.022277,0.0160042,0.0069813
0.011474,0.001052,0.001079,0.004755,0.021786,0.0161640,0.0066755
0.011459,0.000959,0.001060,0.004847,0.021120,0.0165148,0.0062926
0.011313,0.000585,0.001047,0.005052,0.020278,0.0170796,0.0057430
0.011056,0.000303,0.001050,0.005192,0.019122,0.0174307,0.0052641
0.010778,0.000303,0.001061,0.005249,0.018103,0.0175870,0.0051401
0.010525,0.000303,0.001076,0.005279,0.016924,0.0176677,0.0050344
0.010495,0.000303,0.001094,0.005175,0.016109,0.0176484,0.0050814
0.010213,0.000212,0.001127,0.005173,0.015275,0.0176358,0.0049741
0.010206,0.000378,0.001133,0.005170,0.014807,0.0176658,0.0048557
0.010257,0.000378,0.001147,0.005331,0.014519,0.0175841,0.0047872
0.010273,0.000378,0.001162,0.005361,0.014626,0.0174406,0.0049883
0.010191,0.000378,0.001181,0.005448,0.014279,0.0171849,0.0052263
0.009879,0.000465,0.001192,0.005391,0.013323,0.0170023,0.0055264
0.009554,0.000520,0.001213,0.005266,0.013292,0.0167772,0.0059082
0.008722,0.001121,0.001234,0.005038,0.013944,0.0166303,0.0064266
0.008533,0.001121,0.001228,0.004713,0.015091,0.0165817,0.0067071
0.008300,0.001121,0.001232,0.004538,0.015351,0.0166483,0.0069826
0.008249,0.001121,0.001241,0.004503,0.015290,0.0165047,0.0074460
0.008126,0.001162,0.001262,0.004563,0.015095,0.0160931,0.0080746
0.007825,0.001362,0.001280,0.004459,0.014940,0.0157285,0.0088035
0.007142,0.001625,0.001317,0.004479,0.015001,0.0155326,0.0092969
0.006571,0.001785,0.001374,0.004430,0.014839,0.0152293,0.0100928
0.005964,0.002163,0.001458,0.004460,0.014948,0.0148771,0.0106698
0.005838,0.002163,0.001501,0.004351,0.015888,0.0145830,0.0110625
0.005814,0.002163,0.001485,0.004014,0.016826,0.0145185,0.0113967
0.005785,0.002163,0.001479,0.003551,0.017385,0.0144471,0.0119052
0.005514,0.002564,0.001488,0.003214,0.017291,0.0143987,0.0124323
0.005196,0.003075,0.001499,0.002963,0.017899,0.0142710,0.0128208
0.004969,0.003382,0.001491,0.002830,0.018552,0.0141361,0.0131076
0.004622,0.003332,0.001499,0.002746,0.018907,0.0139916,0.0133845
0.004034,0.003654,0.001514,0.002605,0.018898,0.0138905,0.0138935
0.003876,0.003654,0.001531,0.002672,0.018691,0.0137196,0.0141737
0.003744,0.003925,0.001599,0.002528,0.018530,0.0135690,0.0146273
0.003770,0.003839,0.001679,0.002478,0.018157,0.0136108,0.0146025
0.003808,0.003783,0.001715,0.002443,0.017433,0.0137703,0.0144048
0.003919,0.003343,0.001747,0.002583,0.016396,0.0138444,0.0142282
0.003741,0.003368,0.001794,0.002821,0.015073,0.0136445,0.0144302
0.003608,0.003368,0.001808,0.002956,0.014387,0.0135035,0.0144870
0.003451,0.003368,0.001827,0.003365,0.013886,0.0136671,0.0142414
0.003218,0.003366,0.001834,0.004392,0.013748,0.0141803,0.0139087
0.003075,0.003359,0.001855,0.005337,0.013697,0.0150339,0.0134647
0.002996,0.003448,0.001936,0.006024,0.013391,0.0160512,0.0130256
0.002996,0.003494,0.002044,0.006415,0.012941,0.0172162,0.0122243
0.002988,0.003495,0.002247,0.006671,0.012227,0.0181578,0.0118737
0.002777,0.003793,0.002502,0.007053,0.011004,0.0185879,0.0118840
0.002510,0.004213,0.002688,0.007328,0.009952,0.0189455,0.0119549
0.002216,0.004567,0.002764,0.007700,0.009306,0.0194420,0.0117535
0.002166,0.004667,0.002859,0.007642,0.009210,0.0198961,0.0114335
0.002166,0.004649,0.003096,0.007698,0.008334,0.0201856,0.0110421
0.002091,0.004976,0.003348,0.007585,0.007351,0.0206101,0.0107009
0.001881,0.005466,0.003654,0.007578,0.006498,0.0210973,0.0102924
0.001807,0.005654,0.003957,0.007617,0.005981,0.0214631,0.0097693
0.001617,0.005982,0.004361,0.008069,0.005644,0.0215707,0.0093611
0.001826,0.005711,0.005082,0.008999,0.005214,0.0215805,0.0088082
0.002177,0.005711,0.006463,0.009588,0.005669,0.0215072,0.0088879
0.002393,0.005982,0.008049,0.009994,0.006267,0.0213575,0.0092184
0.002347,0.006854,0.009720,0.010341,0.006932,0.0211813,0.0097249
0.002221,0.007844,0.011471,0.010599,0.007757,0.0210397,0.0102691
0.001992,0.009029,0.013405,0.010941,0.008776,0.0207654,0.0109588
0.001933,0.010058,0.015262,0.010995,0.010381,0.0202900,0.0117973
0.001933,0.011193,0.016922,0.010631,0.012296,0.0195887,0.0125170
0.001933,0.012064,0.018586,0.010417,0.014405,0.0186746,0.0131382
0.001933,0.012638,0.019904,0.010853,0.016828,0.0176280,0.0137319
0.001933,0.013039,0.021149,0.011622,0.019370,0.0165334,0.0142993
0.001933,0.013233,0.021985,0.012578,0.022911,0.0154857,0.0147178
0.001933,0.013395,0.022739,0.013811,0.026587,0.0147846,0.0151558
0.001933,0.013414,0.023694,0.015895,0.029891,0.0141652,0.0155736
0.001933,0.013638,0.024598,0.018204,0.033964,0.0134787,0.0159729
0.001998,0.013619,0.025441,0.021113,0.038356,0.0129815,0.0161464
0.002036,0.013620,0.026092,0.024241,0.042858,0.0127014,0.0163940
0.002238,0.013234,0.026644,0.027256,0.048097,0.0123674,0.0166295
0.002478,0.012869,0.027127,0.030423,0.053113,0.0119518,0.0169142
0.002712,0.012561,0.027706,0.033694,0.058161,0.0117024,0.0171751
0.002983,0.012354,0.028158,0.036494,0.063070,0.0116110,0.0175311
0.002949,0.012855,0.028246,0.038910,0.068393,0.0116814,0.0179198
0.002449,0.013719,0.027675,0.041638,0.073403,0.0117136,0.0179585
0.002204,0.014163,0.026982,0.044631,0.077505,0.0119072,0.0176551
0.002562,0.013666,0.026072,0.047413,0.081351,0.0121677,0.0169861
0.002876,0.013196,0.024925,0.050035,0.085214,0.0125056,0.0162180
0.003199,0.012651,0.023733,0.053250,0.088130,0.0129244,0.0154055
0.003547,0.012031,0.022715,0.056179,0.090336,0.0132752,0.0145736
0.004059,0.011247,0.021921,0.058610,0.092423,0.0136347,0.0137425
0.004575,0.010985,0.021066,0.061219,0.093534,0.0138973,0.0130051
0.004933,0.011322,0.020488,0.063037,0.094164,0.0140319,0.0125028
0.005310,0.012095,0.019899,0.064620,0.094667,0.0141126,0.0121262
0.005758,0.013060,0.019705,0.065742,0.094566,0.0142153,0.0117059
0.006301,0.013679,0.019561,0.066274,0.094063,0.0143168,0.0111883
0.007042,0.014236,0.019389,0.066232,0.094095,0.0142875,0.0106110
0.007885,0.014899,0.019268,0.066018,0.093362,0.0141635,0.0101664
0.008559,0.015734,0.019140,0.065686,0.092244,0.0139042,0.0100474
0.009459,0.016736,0.019032,0.064966,0.090853,0.0135428,0.0099313
0.010259,0.018110,0.018877,0.063522,0.088913,0.0131001,0.0098757
0.011086,0.019381,0.018565,0.062162,0.087300,0.0126277,0.0097965
0.012066,0.020937,0.018069,0.060897,0.085521,0.0120862,0.0096714
0.013009,0.022665,0.017576,0.059649,0.084160,0.0116058,0.0094793
0.014225,0.024044,0.017178,0.058482,0.082912,0.0111275,0.0090778
0.015623,0.024852,0.016722,0.057438,0.081250,0.0106918,0.0086085
0.016840,0.025998,0.016178,0.056760,0.080213,0.0101614,0.0082362
0.017937,0.027762,0.015706,0.056286,0.078969,0.0096002,0.0079148
0.019241,0.030131,0.015298,0.055974,0.077241,0.0089537,0.0076483
0.020492,0.032425,0.014768,0.055540,0.076051,0.0083152,0.0074085
0.021703,0.035032,0.014135,0.055952,0.074923,0.0077700,0.0071394
0.022826,0.037443,0.013479,0.056868,0.073753,0.0072458,0.0068873
0.023924,0.039504,0.012861,0.057932,0.073164,0.0067492,0.0066282
0.025245,0.041974,0.012236,0.059323,0.072556,0.0063637,0.0062111
0.026562,0.044086,0.011645,0.060741,0.072288,0.0059982,0.0058045
0.027625,0.046160,0.010965,0.062677,0.071507,0.0057068,0.0053775
0.028511,0.048861,0.010133,0.064971,0.070299,0.0054394,0.0050214
0.029221,0.051644,0.009225,0.066988,0.068766,0.0052507,0.0047179
0.029843,0.053947,0.008345,0.068662,0.067004,0.0051231,0.0044473
0.030580,0.056045,0.007493,0.070014,0.065324,0.0050036,0.0041585
0.031046,0.057641,0.006664,0.071421,0.063807,0.0049881,0.0038412
0.031621,0.059201,0.005976,0.073177,0.062028,0.0050181,0.0034803
0.032211,0.060754,0.005463,0.073991,0.060158,0.0050010,0.0031684
0.032731,0.062136,0.005028,0.074137,0.058320,0.0050186,0.0028634
0.033368,0.063738,0.004613,0.074028,0.055973,0.0049721,0.0025678
0.033788,0.065288,0.004097,0.073761,0.053103,0.0048943,0.0024104
0.034218,0.067553,0.003634,0.073694,0.049740,0.0048037,0.0022726
0.034754,0.069725,0.003215,0.073411,0.046494,0.0047132,0.0021987
0.035108,0.070792,0.002853,0.073403,0.043639,0.0047595,0.0021215
0.035728,0.072620,0.002571,0.073487,0.041122,0.0046362,0.0020717
0.036494,0.074893,0.002289,0.073385,0.038809,0.0044805,0.0020149
0.036989,0.077154,0.002018,0.072693,0.036649,0.0044194,0.0019707
0.037430,0.079421,0.001754,0.071792,0.034383,0.0043744,0.0019334
0.037959,0.082303,0.001490,0.070579,0.032374,0.0042889,0.0018690
0.038481,0.084833,0.001232,0.069315,0.030532,0.0041799,0.0018085
0.038966,0.088265,0.000971,0.068546,0.028221,0.0041069,0.0017425
0.039598,0.091469,0.000713,0.067724,0.026153,0.0040144,0.0016577
0.040072,0.094159,0.000609,0.066521,0.024849,0.0040188,0.0015460
0.040552,0.096562,0.000522,0.065267,0.023787,0.0040164,0.0014475
0.041224,0.099866,0.000499,0.064059,0.022698,0.0039467,0.0013195
0.042061,0.104436,0.000475,0.062613,0.021598,0.0037970,0.0011924
0.042679,0.108779,0.000460,0.061164,0.020566,0.0037599,0.0010582
0.042909,0.113532,0.000447,0.059921,0.019642,0.0038353,0.0009244
0.043057,0.118657,0.000429,0.059191,0.018614,0.0039236,0.0007914
0.043018,0.123783,0.000413,0.058912,0.017723,0.0040868,0.0006752
0.042686,0.128025,0.000394,0.058822,0.016946,0.0044664,0.0005719
0.042239,0.132374,0.000368,0.058752,0.016321,0.0049234,0.0004696
0.041649,0.135625,0.000354,0.057938,0.016320,0.0054261,0.0003656
0.040883,0.138512,0.000339,0.056747,0.016254,0.0059941,0.0002775
0.040244,0.141731,0.000326,0.055223,0.016129,0.0064674,0.0002053
0.039077,0.143047,0.000332,0.053479,0.015992,0.0071373,0.0001945
0.037730,0.142966,0.000347,0.051179,0.015980,0.0078626,0.0002204
0.036337,0.141827,0.000363,0.048596,0.015824,0.0085889,0.0002964
0.034867,0.140175,0.000374,0.045815,0.015674,0.0094392,0.0003793
0.033458,0.136694,0.000387,0.042999,0.015486,0.0102749,0.0005062
0.032147,0.132149,0.000395,0.040265,0.015265,0.0110880,0.0006550
0.030984,0.126384,0.000403,0.037266,0.015135,0.0118456,0.0008431
0.029947,0.120501,0.000411,0.034088,0.015021,0.0124956,0.0010623
0.028984,0.114031,0.000438,0.031056,0.014651,0.0131016,0.0013288
0.027866,0.107850,0.000469,0.028214,0.014190,0.0136388,0.0017647
0.026467,0.101002,0.000552,0.025520,0.013769,0.0141827,0.0023429
0.024866,0.093015,0.000659,0.023227,0.013350,0.0147781,0.0030023
0.023510,0.085582,0.000758,0.020985,0.012837,0.0152458,0.0037296
0.022193,0.077647,0.000864,0.018994,0.012221,0.0156058,0.0046236
0.020885,0.069455,0.001075,0.017149,0.011706,0.0158838,0.0055236
0.019689,0.061189,0.001309,0.015241,0.011081,0.0159629,0.0065665
0.018440,0.053774,0.001555,0.013288,0.010490,0.0158550,0.0077999
0.017204,0.046238,0.001801,0.011350,0.009881,0.0157156,0.0090755
0.016019,0.039430,0.002028,0.009843,0.009346,0.0155014,0.0102576
0.014983,0.032839,0.002210,0.008518,0.008906,0.0152252,0.0114132
0.014004,0.026486,0.002411,0.007284,0.008582,0.0149934,0.0124553
0.013271,0.020428,0.002616,0.006293,0.008460,0.0148170,0.0132791
0.012583,0.015341,0.002718,0.005736,0.008265,0.0146064,0.0141976
0.012101,0.011205,0.002799,0.005540,0.008113,0.0143108,0.0150061
0.011750,0.007789,0.002884,0.005574,0.007929,0.0138848,0.0156782
0.011266,0.005524,0.002968,0.005720,0.007785,0.0134788,0.0163456
0.010580,0.003876,0.003055,0.005875,0.007733,0.0131654,0.0169589
0.009707,0.002692,0.003152,0.005960,0.007636,0.0128704,0.0175524
0.008697,0.001958,0.003209,0.006098,0.007481,0.0126188,0.0181703
0.007878,0.002085,0.003235,0.006194,0.007221,0.0122657,0.0187553
0.007312,0.002085,0.003265,0.006126,0.006983,0.0119443,0.0190575
0.006685,0.002375,0.003265,0.006061,0.006907,0.0116336,0.0193536
0.005974,0.002893,0.003258,0.006027,0.007025,0.0112929,0.0196508
0.005307,0.003436,0.003251,0.005917,0.007113,0.0109873,0.0199527
0.004909,0.003810,0.003232,0.005876,0.007249,0.0107208,0.0200510
0.004728,0.003810,0.003101,0.005787,0.007374,0.0106233,0.0199979
0.004560,0.003810,0.002939,0.005781,0.007608,0.0107149,0.0197297
0.004427,0.003768,0.002766,0.005854,0.007905,0.0110123,0.0192278
0.004371,0.003709,0.002586,0.005935,0.008210,0.0113334,0.0186906
0.004535,0.003331,0.002399,0.006014,0.008361,0.0117515,0.0180896
0.004695,0.003002,0.002243,0.006055,0.008301,0.0123474,0.0174577
0.004767,0.002770,0.002069,0.006148,0.008182,0.0128692,0.0169410
0.004324,0.003475,0.001885,0.006076,0.007970,0.0134930,0.0166503
0.004072,0.004041,0.001793,0.005689,0.007706,0.0141695,0.0162682
0.003833,0.004685,0.001725,0.005150,0.007388,0.0147568,0.0160088
0.003580,0.005392,0.001651,0.004595,0.006990,0.0152582,0.0160445
0.003331,0.006118,0.001576,0.004007,0.006514,0.0158154,0.0160531
0.003126,0.006699,0.001503,0.003442,0.006000,0.0163272,0.0160476
0.002984,0.007080,0.001427,0.002911,0.005718,0.0167401,0.0160272
0.002888,0.007474,0.001385,0.002343,0.005599,0.0173716,0.0157799
0.003089,0.007348,0.001358,0.001846,0.005595,0.0178804,0.0154662
0.002844,0.007872,0.001339,0.001594,0.005673,0.0183426,0.0153777
0.002732,0.008148,0.001311,0.001429,0.005679,0.0188710,0.0151823
0.002732,0.008133,0.001281,0.001380,0.005641,0.0193283,0.0149286
0.002732,0.008204,0.001248,0.001325,0.005769,0.0196775,0.0147834
0.002639,0.008463,0.001220,0.001232,0.005983,0.0200551,0.0147545
0.002325,0.009098,0.001210,0.001153,0.006116,0.0203668,0.0148047
0.001993,0.009667,0.001213,0.001103,0.006459,0.0204911,0.0149156
0.001797,0.009983,0.001225,0.001109,0.006834,0.0204392,0.0150514
0.001701,0.010093,0.001245,0.001160,0.007233,0.0203800,0.0150693
0.001363,0.010583,0.001283,0.001155,0.007675,0.0202570,0.0153420
0.001280,0.010583,0.001324,0.001135,0.008160,0.0200490,0.0154807
0.001148,0.010583,0.001360,0.001111,0.008590,0.0199175,0.0154710
0.001199,0.010189,0.001392,0.001105,0.008976,0.0197155,0.0154263
0.001239,0.009792,0.001424,0.001142,0.009385,0.0194559,0.0153409
0.001211,0.009556,0.001454,0.001214,0.009511,0.0192731,0.0152762
0.001211,0.009334,0.001492,0.001259,0.009866,0.0193070,0.0151038
0.001211,0.009189,0.001524,0.001259,0.010316,0.0194113,0.0149222
0.001211,0.009053,0.001558,0.001303,0.010899,0.0195115,0.0145888
0.001211,0.009029,0.001662,0.001277,0.011288,0.0196607,0.0143825
0.001211,0.009014,0.001776,0.001277,0.011516,0.0198230,0.0143181
0.000887,0.009582,0.001905,0.001395,0.011829,0.0201404,0.0142227
0.000951,0.009513,0.002027,0.001584,0.012054,0.0205167,0.0140497
0.001304,0.008947,0.002134,0.001705,0.012225,0.0209121,0.0138470
0.001609,0.008445,0.002232,0.001798,0.012199,0.0213278,0.0135641
0.001856,0.007831,0.002337,0.002025,0.012041,0.0217674,0.0131216
0.002117,0.007197,0.002441,0.002232,0.011836,0.0222855,0.0125822
0.002318,0.006562,0.002468,0.002722,0.011835,0.0229241,0.0119725
0.002501,0.005993,0.002498,0.003173,0.011616,0.0235579,0.0114404
0.002716,0.005442,0.002505,0.003415,0.011270,0.0241765,0.0109345
0.002796,0.005146,0.002510,0.003610,0.010884,0.0247540,0.0105950
0.002765,0.004998,0.002519,0.003925,0.010541,0.0253647,0.0101717
0.002457,0.005263,0.002542,0.004512,0.010113,0.0259918,0.0099989
0.002209,0.005491,0.002565,0.005110,0.009772,0.0265750,0.0099138
0.002159,0.005425,0.002586,0.005704,0.009356,0.0271195,0.0098074
0.002047,0.005607,0.002601,0.005990,0.008888,0.0276980,0.0097270
0.002047,0.005591,0.002613,0.006340,0.008767,0.0282008,0.0095048
0.002047,0.005275,0.002636,0.007273,0.008498,0.0284258,0.0092603
0.002047,0.004714,0.002650,0.008657,0.008139,0.0286939,0.0090153
0.002047,0.004220,0.002722,0.009889,0.007626,0.0289303,0.0089267
0.002047,0.003814,0.002726,0.010853,0.007158,0.0290886,0.0087450
0.002047,0.003442,0.002714,0.011698,0.006710,0.0292629,0.0085710
0.002047,0.003016,0.002682,0.012562,0.006285,0.0292143,0.0085037
0.001983,0.002681,0.002649,0.013339,0.005947,0.0291339,0.0083836
0.001630,0.002813,0.002652,0.014123,0.005643,0.0290448,0.0083023
0.001325,0.003141,0.002782,0.014269,0.005495,0.0290118,0.0083203
0.001078,0.003602,0.002927,0.014016,0.005395,0.0288815,0.0083477
0.000817,0.004101,0.002995,0.013809,0.005393,0.0287160,0.0083794
0.000616,0.004601,0.003131,0.013319,0.005307,0.0284164,0.0084907
0.000433,0.005027,0.003264,0.012921,0.005231,0.0280357,0.0085523
0.000218,0.005454,0.003428,0.012630,0.005170,0.0277071,0.0086065
0.000000,0.005929,0.003580,0.012351,0.005107,0.0274791,0.0086250
0.000000,0.005996,0.003681,0.012280,0.005041,0.0273797,0.0085836
0.000000,0.006151,0.003636,0.011955,0.005142,0.0274013,0.0083687
0.000000,0.006333,0.003587,0.011546,0.005213,0.0274640,0.0081578
0.000000,0.006405,0.003647,0.011336,0.005305,0.0272297,0.0079631
0.000000,0.006341,0.003721,0.011412,0.005492,0.0268427,0.0077620
0.000000,0.006365,0.004100,0.011405,0.005505,0.0264827,0.0076074
0.000000,0.006798,0.004952,0.011032,0.005312,0.0260841,0.0076588
0.000000,0.007506,0.006063,0.010771,0.005120,0.0254334,0.0077089
0.000106,0.008244,0.007293,0.010497,0.004924,0.0246335,0.0078087
0.000422,0.008493,0.008800,0.010627,0.004706,0.0238522,0.0078698
0.000744,0.008778,0.010453,0.010840,0.004714,0.0227856,0.0080721
0.000871,0.009547,0.012317,0.010962,0.005003,0.0219467,0.0083092
0.001046,0.010299,0.014379,0.010996,0.005198,0.0211714,0.0086736
0.001235,0.011021,0.016442,0.011114,0.005487,0.0203809,0.0090512
0.001377,0.011577,0.018378,0.011854,0.005806,0.0196341,0.0094312
0.001502,0.012037,0.020067,0.012937,0.006359,0.0190248,0.0098598
0.001735,0.012291,0.021547,0.014006,0.007105,0.0183460,0.0102717
0.001956,0.012399,0.023025,0.014870,0.008622,0.0176429,0.0107323
0.001988,0.012921,0.024535,0.015542,0.010417,0.0171289,0.0113205
0.001988,0.013413,0.026045,0.015841,0.012480,0.0165763,0.0119908
0.001988,0.013840,0.027585,0.016005,0.014798,0.0159051,0.0126965
0.001988,0.014270,0.029153,0.015776,0.017354,0.0150331,0.0135479
0.001988,0.014733,0.030684,0.015600,0.019966,0.0139138,0.0145712
0.001988,0.015133,0.032135,0.015633,0.022841,0.0127470,0.0156184
0.001988,0.015635,0.033446,0.015586,0.025891,0.0118186,0.0165729
0.001988,0.016129,0.034763,0.015627,0.028941,0.0109835,0.0174701
0.002125,0.016214,0.035710,0.015844,0.032216,0.0101393,0.0183429
0.002248,0.016099,0.036025,0.015976,0.035984,0.0094883,0.0189642
0.002455,0.015701,0.035947,0.015664,0.040195,0.0089854,0.0195288
0.002409,0.015503,0.035519,0.015481,0.044605,0.0086311,0.0201339
0.002118,0.015752,0.034788,0.015186,0.049150,0.0083907,0.0207199
0.001937,0.015727,0.033903,0.014943,0.053968,0.0081860,0.0211906
0.001868,0.015396,0.032795,0.014582,0.058390,0.0079459,0.0217423
0.001698,0.015191,0.031329,0.014383,0.062418,0.0077193,0.0221677
0.001514,0.015114,0.029722,0.014360,0.066190,0.0075050,0.0225468
0.001487,0.014789,0.028160,0.014431,0.069960,0.0072787,0.0228602
0.001565,0.014663,0.026777,0.014491,0.073620,0.0070668,0.0231337
0.001365,0.015079,0.025656,0.014608,0.076855,0.0068174,0.0235328
0.001144,0.015757,0.024532,0.015028,0.079136,0.0066147,0.0239258
0.001139,0.016125,0.023323,0.015319,0.081072,0.0064273,0.0241789
0.001140,0.016682,0.022076,0.015887,0.082786,0.0062284,0.0244287
0.001140,0.017263,0.020814,0.016687,0.084314,0.0060543,0.0246557
0.001140,0.018222,0.019509,0.017799,0.085590,0.0058721,0.0247984
0.001140,0.019396,0.018354,0.018828,0.086491,0.0057278,0.0248823
0.001140,0.020809,0.017254,0.019770,0.086681,0.0055376,0.0250009
0.001212,0.022367,0.016175,0.020725,0.086557,0.0053545,0.0250768
0.001352,0.024081,0.015086,0.021772,0.086382,0.0051651,0.0251430
0.001367,0.026456,0.014061,0.022806,0.085888,0.0050238,0.0252488
0.001524,0.028809,0.013175,0.023843,0.084860,0.0048950,0.0252025
0.001735,0.031487,0.012436,0.024839,0.083438,0.0047146,0.0251445
0.002177,0.033868,0.011841,0.025690,0.082036,0.0045946,0.0250088
0.002996,0.035484,0.011196,0.026496,0.080675,0.0045623,0.0246394
0.003899,0.037435,0.010447,0.027326,0.078806,0.0045148,0.0241627
0.005015,0.038929,0.009628,0.028358,0.077062,0.0044974,0.0234081
0.006450,0.040046,0.008952,0.029347,0.075725,0.0044984,0.0224712
0.007887,0.041419,0.008381,0.030032,0.074683,0.0045233,0.0215143
0.009215,0.043310,0.007771,0.030584,0.073646,0.0045476,0.0205668
0.010596,0.045161,0.007210,0.031242,0.072086,0.0046082,0.0194718
0.012199,0.046584,0.006673,0.031686,0.070641,0.0047024,0.0182665
0.013847,0.047710,0.006143,0.031817,0.069330,0.0047746,0.0170815
0.015450,0.048865,0.005666,0.032022,0.067977,0.0048326,0.0159013
0.017079,0.049913,0.005215,0.032248,0.066570,0.0049142,0.0146410
0.018831,0.051147,0.004760,0.032347,0.064940,0.0049672,0.0133549
0.020701,0.052157,0.004363,0.032098,0.063214,0.0050150,0.0120517
0.022562,0.052644,0.003992,0.031845,0.061689,0.0050366,0.0107599
0.024375,0.053022,0.003650,0.031473,0.060495,0.0051376,0.0094552
0.026195,0.053529,0.003316,0.031262,0.059528,0.0051940,0.0082527
0.028064,0.054144,0.002980,0.030972,0.058563,0.0051795,0.0071179
0.029997,0.054632,0.002645,0.030538,0.057621,0.0051134,0.0060043
0.031708,0.054663,0.002309,0.029978,0.057077,0.0050613,0.0050541
0.033360,0.054937,0.001949,0.029462,0.056286,0.0049923,0.0041980
0.034889,0.055085,0.001605,0.029058,0.055207,0.0049229,0.0033817
0.036179,0.056114,0.001335,0.028763,0.053821,0.0047132,0.0028273
0.037265,0.057167,0.001187,0.028542,0.052459,0.0045603,0.0023696
0.037983,0.058730,0.001127,0.028224,0.050958,0.0044994,0.0020395
0.038683,0.061542,0.001068,0.027938,0.049241,0.0043080,0.0019003
0.039398,0.064406,0.001014,0.027792,0.047370,0.0040830,0.0017746
0.040112,0.067058,0.000959,0.027662,0.045479,0.0039073,0.0016476
0.040674,0.069814,0.000904,0.027473,0.043986,0.0037050,0.0016242
0.041162,0.072894,0.000851,0.027517,0.042604,0.0034897,0.0016082
0.041568,0.076302,0.000796,0.027997,0.041266,0.0033153,0.0015763
0.041915,0.080386,0.000732,0.028612,0.040094,0.0032273,0.0015047
0.042231,0.084556,0.000668,0.029296,0.038912,0.0031468,0.0014335
0.042338,0.088635,0.000612,0.029886,0.037749,0.0031450,0.0013608
0.042073,0.092592,0.000562,0.030576,0.036536,0.0033069,0.0012835
0.041698,0.096901,0.000516,0.031303,0.035026,0.0035285,0.0012006
0.041233,0.101425,0.000470,0.031899,0.033502,0.0038183,0.0011091
0.040600,0.105939,0.000430,0.032140,0.031942,0.0041763,0.0010373
0.039632,0.110514,0.000393,0.032216,0.030427,0.0047002,0.0009647
0.038455,0.114417,0.000361,0.032216,0.029122,0.0053221,0.0008899
0.037576,0.118181,0.000334,0.032077,0.027609,0.0059266,0.0008098
0.036672,0.120970,0.000330,0.031764,0.026304,0.0065880,0.0007292
0.035627,0.122808,0.000336,0.031300,0.025083,0.0073761,0.0006404
0.034383,0.124299,0.000340,0.030764,0.024002,0.0083415,0.0005489
0.033013,0.125564,0.000339,0.030019,0.023063,0.0094364,0.0004591
0.031745,0.126554,0.000336,0.029160,0.022222,0.0105472,0.0003797
0.030006,0.125745,0.000348,0.028042,0.021636,0.0118508,0.0003107
0.028393,0.124030,0.000358,0.026634,0.020988,0.0131516,0.0002729
0.026761,0.121415,0.000374,0.025147,0.020257,0.0144807,0.0002702
0.025112,0.118011,0.000391,0.023556,0.019527,0.0158674,0.0002865
0.023541,0.113873,0.000408,0.021881,0.018708,0.0172669,0.0003151
0.022077,0.109433,0.000467,0.019986,0.017783,0.0186042,0.0003605
0.020820,0.103966,0.000555,0.018062,0.016819,0.0198718,0.0004484
0.019647,0.097671,0.000640,0.016198,0.015937,0.0211529,0.0005584
0.018555,0.090875,0.000733,0.014499,0.015243,0.0223304,0.0006850
0.017577,0.084110,0.000829,0.012855,0.014720,0.0233224,0.0008442
0.016700,0.077257,0.000923,0.011199,0.014553,0.0242225,0.0010455
0.015950,0.070132,0.001012,0.009663,0.014517,0.0249944,0.0012768
0.015273,0.062733,0.001098,0.008234,0.014473,0.0257680,0.0015020
0.014793,0.055009,0.001185,0.006897,0.014392,0.0264703,0.0017328
0.014416,0.047741,0.001271,0.005645,0.014233,0.0270586,0.0019810
0.013739,0.041106,0.001370,0.004744,0.014083,0.0273919,0.0023047
0.012967,0.035035,0.001480,0.004076,0.013844,0.0276716,0.0026641
0.012338,0.030107,0.001593,0.003541,0.013571,0.0276806,0.0031776
0.011817,0.025335,0.001714,0.003030,0.013224,0.0275562,0.0036973
0.011439,0.020600,0.001781,0.002596,0.012701,0.0273806,0.0042362
0.011182,0.015975,0.001848,0.002275,0.012006,0.0270631,0.0047752
0.011137,0.012184,0.001904,0.002181,0.011276,0.0265966,0.0054037
0.010959,0.008886,0.001968,0.002296,0.010662,0.0261226,0.0060248
0.010553,0.006838,0.002031,0.002407,0.010195,0.0256227,0.0067400
0.010054,0.005508,0.002099,0.002582,0.009768,0.0249485,0.0075204
0.009502,0.004703,0.002152,0.002582,0.009349,0.0242833,0.0083367
0.008911,0.004031,0.002155,0.002582,0.009047,0.0236670,0.0091441
0.008257,0.003545,0.002138,0.002582,0.008683,0.0230598,0.0099194
0.007563,0.003710,0.002120,0.002582,0.008284,0.0223964,0.0107574
0.006966,0.004167,0.002083,0.002612,0.007865,0.0218324,0.0115589
0.006463,0.004714,0.002045,0.002638,0.007383,0.0213051,0.0123621
0.006017,0.005208,0.002007,0.002656,0.006956,0.0208693,0.0130239
0.005585,0.005691,0.001980,0.002764,0.006505,0.0204470,0.0135756
0.005244,0.005988,0.001963,0.002940,0.006008,0.0199818,0.0140363
0.004682,0.006665,0.001944,0.003047,0.005604,0.0196317,0.0144636
0.004219,0.007217,0.001917,0.003146,0.005518,0.0193420,0.0148022
0.003783,0.007858,0.001881,0.003055,0.005516,0.0192616,0.0150706
0.003390,0.008509,0.001811,0.002745,0.005604,0.0195419,0.0151934
0.003032,0.009151,0.001735,0.002426,0.005713,0.0199057,0.0151483
0.002662,0.009753,0.001646,0.002129,0.005892,0.0202810,0.0150789
0.002281,0.010353,0.001613,0.001884,0.006185,0.0205428,0.0150094
0.001915,0.010882,0.001571,0.001609,0.006589,0.0208106,0.0149494
0.001558,0.011470,0.001520,0.001303,0.006883,0.0211260,0.0150364
0.001192,0.012117,0.001464,0.001045,0.007204,0.0214899,0.0150746
0.001074,0.012308,0.001417,0.000844,0.007442,0.0216983,0.0149576
0.001074,0.012308,0.001371,0.000647,0.007429,0.0220254,0.0147446
0.001074,0.012259,0.001343,0.000647,0.007520,0.0222584,0.0144386
0.001074,0.012237,0.001327,0.000647,0.007637,0.0224281,0.0140972
0.001011,0.012278,0.001302,0.000647,0.007783,0.0226719,0.0138159
0.000932,0.012394,0.001279,0.000647,0.007859,0.0230596,0.0135382
0.000761,0.012637,0.001259,0.000617,0.007930,0.0236742,0.0131789
0.000637,0.012782,0.001241,0.000592,0.008039,0.0243379,0.0127642
0.000473,0.012917,0.001233,0.000574,0.008048,0.0248330,0.0125594
0.000309,0.013083,0.001213,0.000466,0.008070,0.0253774,0.0124324
0.000067,0.013435,0.001183,0.000290,0.008113,0.0259536,0.0124304
0.000067,0.013393,0.001148,0.000183,0.008089,0.0264457,0.0124604
0.000000,0.013475,0.001124,0.000084,0.007747,0.0268285,0.0126199
0.000000,0.013468,0.001092,0.000000,0.007299,0.0273198,0.0128183
0.000218,0.013107,0.001068,0.000000,0.006784,0.0275993,0.0130360
0.000346,0.012899,0.001033,0.000000,0.006323,0.0281803,0.0131694
0.000510,0.012676,0.000996,0.000000,0.005849,0.0286387,0.0134173
0.000510,0.012728,0.000955,0.000000,0.005390,0.0293492,0.0135086
0.000594,0.012715,0.000918,0.000000,0.005018,0.0301294,0.0134431
0.000913,0.012195,0.000891,0.000000,0.004734,0.0308224,0.0131480
0.001227,0.011605,0.000859,0.000000,0.004419,0.0315048,0.0128915
0.001379,0.011291,0.000817,0.000000,0.004179,0.0323998,0.0126590
0.001422,0.011107,0.000765,0.000000,0.004184,0.0333784,0.0123736
0.001422,0.010927,0.000711,0.000000,0.004116,0.0343875,0.0121323
0.001570,0.010470,0.000660,0.000000,0.003999,0.0352713,0.0119555
0.001837,0.009844,0.000614,0.000000,0.003830,0.0359755,0.0117738
0.002111,0.009162,0.000577,0.000000,0.003774,0.0366563,0.0113877
0.002388,0.008462,0.000559,0.000015,0.003748,0.0369525,0.0110465
0.002643,0.007769,0.000538,0.000146,0.003689,0.0372991,0.0107440
0.002903,0.007141,0.000512,0.000454,0.003688,0.0377625,0.0103265
0.003123,0.006492,0.000492,0.000968,0.003703,0.0383173,0.0098844
0.003330,0.005843,0.000503,0.001680,0.003673,0.0387272,0.0095412
0.003406,0.005481,0.000513,0.002382,0.003695,0.0392078,0.0091722
0.003406,0.005120,0.000528,0.003623,0.003877,0.0395974,0.0087275
0.003406,0.004770,0.000525,0.004878,0.004125,0.0402450,0.0082034
0.003189,0.004810,0.000542,0.006050,0.004446,0.0407672,0.0077468
0.003060,0.004823,0.000574,0.006951,0.004672,0.0410660,0.0074604
0.002896,0.004896,0.000742,0.007778,0.004865,0.0413291,0.0071420
0.002896,0.004777,0.000918,0.008439,0.004959,0.0414924,0.0069537
0.002813,0.004735,0.001095,0.009158,0.005008,0.0416413,0.0068891
0.002494,0.005176,0.001275,0.009703,0.005104,0.0417737,0.0067860
0.002180,0.005602,0.001456,0.010212,0.005250,0.0416927,0.0066748
0.002028,0.005662,0.001651,0.010757,0.005356,0.0414446,0.0065784
0.001984,0.005726,0.001860,0.010785,0.005425,0.0409007,0.0065802
0.001984,0.005571,0.002087,0.011259,0.005498,0.0403354,0.0065887
0.001837,0.005744,0.002343,0.011645,0.005599,0.0400967,0.0065385
0.001569,0.006132,0.002532,0.012123,0.005791,0.0400439,0.0063890
0.001295,0.006505,0.002693,0.012737,0.006004,0.0399071,0.0063386
0.001019,0.006868,0.002881,0.013313,0.006271,0.0397715,0.0063331
0.000763,0.007220,0.003084,0.013716,0.006622,0.0395169,0.0063098
0.000504,0.007593,0.003283,0.013921,0.006964,0.0393526,0.0062097
0.000284,0.007990,0.003477,0.013916,0.007251,0.0391336,0.0061386
0.000077,0.008380,0.003648,0.013693,0.007578,0.0390369,0.0059428
0.000000,0.008523,0.003853,0.013344,0.007841,0.0385296,0.0058136
0.000136,0.008460,0.004144,0.012335,0.007936,0.0379573,0.0057244
0.000381,0.008187,0.004473,0.011345,0.007988,0.0368723,0.0057043
0.000607,0.007856,0.004764,0.010351,0.008019,0.0357575,0.0056879
0.000607,0.007805,0.005022,0.009549,0.008083,0.0347155,0.0055626
0.000607,0.007763,0.005119,0.008725,0.008139,0.0338101,0.0053787
0.000607,0.007629,0.005310,0.008065,0.008152,0.0327079,0.0051955
0.000686,0.007383,0.005517,0.007414,0.008133,0.0313934,0.0050631
0.000822,0.006990,0.005720,0.006988,0.008078,0.0301662,0.0049506
0.000927,0.006707,0.005929,0.006597,0.008025,0.0291057,0.0048261
0.001028,0.006545,0.006045,0.006219,0.007997,0.0281204,0.0046949
0.001192,0.006125,0.006245,0.006317,0.007954,0.0273479,0.0045285
0.001427,0.005929,0.006573,0.005928,0.007825,0.0266342,0.0044138
0.001795,0.005527,0.006990,0.005549,0.007626,0.0257100,0.0043515
0.002283,0.005123,0.007851,0.005073,0.007475,0.0246205,0.0044596
0.002798,0.004751,0.008945,0.004459,0.007625,0.0234789,0.0046900
0.003375,0.004387,0.010480,0.003868,0.008646,0.0223420,0.0050797
0.003948,0.004036,0.012108,0.003334,0.009923,0.0212314,0.0055958
0.004567,0.003663,0.013790,0.002821,0.011563,0.0199599,0.0062902
0.005217,0.003266,0.015499,0.002313,0.013465,0.0185832,0.0070061
0.005907,0.002876,0.017340,0.001823,0.015507,0.0171731,0.0077449
0.006557,0.002525,0.019349,0.001470,0.018146,0.0160063,0.0084620
0.007016,0.002477,0.021177,0.001238,0.021231,0.0150665,0.0092779
0.007406,0.002466,0.022889,0.000976,0.024562,0.0143104,0.0100521
0.007811,0.002514,0.024633,0.000851,0.027963,0.0135825,0.0109143
0.008182,0.002625,0.026471,0.000867,0.031512,0.0126820,0.0118393
0.008182,0.003264,0.028283,0.000864,0.035247,0.0116664,0.0129968
0.008182,0.004076,0.029742,0.000867,0.039016,0.0106730,0.0143390
0.008104,0.005090,0.031423,0.000797,0.042861,0.0098518,0.0158494
0.007968,0.006140,0.032688,0.000972,0.046109,0.0091201,0.0174317
0.007863,0.007074,0.033812,0.001266,0.049428,0.0084406,0.0188353
0.007761,0.007918,0.034975,0.001533,0.052882,0.0077488,0.0202569
0.007598,0.009242,0.036005,0.001895,0.056325,0.0070436,0.0216123
0.007373,0.010942,0.036899,0.002324,0.060090,0.0063190,0.0229215
0.007005,0.012748,0.037534,0.002908,0.064017,0.0056956,0.0241957
0.006597,0.014514,0.037742,0.003417,0.067820,0.0051572,0.0253471
0.006082,0.016502,0.037684,0.003960,0.071370,0.0046499,0.0264289
0.005505,0.018603,0.037166,0.004500,0.074022,0.0042416,0.0273189
0.004932,0.020750,0.036527,0.004989,0.076735,0.0038698,0.0280163
0.004313,0.022951,0.035818,0.005743,0.079288,0.0035443,0.0287671
0.003679,0.024988,0.034983,0.007464,0.081907,0.0033551,0.0292640
0.003072,0.027123,0.034086,0.009098,0.084443,0.0031637,0.0297184
0.002666,0.028743,0.032722,0.010892,0.086305,0.0030243,0.0299418
0.002314,0.030297,0.031317,0.012677,0.087705,0.0029531,0.0298285
0.001809,0.032186,0.029992,0.014662,0.088662,0.0028667,0.0297434
0.001185,0.034243,0.028654,0.016693,0.089103,0.0028484,0.0295961
0.000837,0.036044,0.027247,0.018647,0.089514,0.0028898,0.0294309
0.000897,0.037003,0.025863,0.020698,0.089797,0.0031009,0.0290073
0.001142,0.037867,0.024725,0.022717,0.090363,0.0032816,0.0283895
0.001442,0.038686,0.023231,0.024976,0.090883,0.0034580,0.0275799
0.001897,0.039231,0.022041,0.026971,0.091617,0.0036474,0.0265584
0.002398,0.040191,0.020954,0.028885,0.092179,0.0037776,0.0256683
0.002939,0.041223,0.019913,0.030802,0.092775,0.0038975,0.0247444
0.003654,0.041531,0.018783,0.032477,0.093254,0.0040341,0.0238324
0.004573,0.041568,0.017571,0.033371,0.093454,0.0041760,0.0227881
0.005551,0.041343,0.016505,0.034366,0.093527,0.0043532,0.0216030
0.006472,0.041089,0.015485,0.035825,0.093719,0.0045671,0.0203859
0.007543,0.040411,0.014516,0.037331,0.093850,0.0047805,0.0191412
0.008751,0.039676,0.013518,0.038604,0.093942,0.0050140,0.0179321
0.010169,0.038710,0.012528,0.039968,0.093756,0.0051752,0.0167714
0.011589,0.037600,0.011553,0.041250,0.093337,0.0053572,0.0154662
0.012886,0.036787,0.010693,0.041579,0.092088,0.0054522,0.0144330
0.014041,0.036144,0.009761,0.042151,0.090382,0.0056013,0.0134230
0.014989,0.036270,0.009102,0.042607,0.088431,0.0057409,0.0126158
0.015982,0.036521,0.008564,0.043547,0.086757,0.0058162,0.0120084
0.017194,0.036563,0.008035,0.044339,0.085443,0.0058587,0.0113737
0.018694,0.036901,0.007487,0.045064,0.083961,0.0057942,0.0107351
0.020315,0.037331,0.006938,0.045982,0.082142,0.0057757,0.0099644
0.021729,0.037955,0.006409,0.047030,0.080191,0.0058117,0.0092034
0.022938,0.038416,0.005760,0.048534,0.077637,0.0059277,0.0084749
0.024148,0.038965,0.005205,0.049442,0.075120,0.0060445,0.0077392
0.025135,0.039979,0.004779,0.050227,0.073013,0.0061120,0.0071327
0.026278,0.041908,0.004388,0.051247,0.070921,0.0060951,0.0065574
0.027404,0.044368,0.003988,0.052414,0.068435,0.0060837,0.0059946
0.028432,0.047488,0.003716,0.054107,0.066101,0.0060715,0.0054336
0.029215,0.050558,0.003513,0.057288,0.063787,0.0061608,0.0049466
0.029996,0.053905,0.003297,0.060347,0.061845,0.0061790,0.0045999
0.030765,0.057551,0.003086,0.062904,0.060030,0.0061565,0.0043024
0.031664,0.062246,0.002872,0.064908,0.057915,0.0060759,0.0039968
0.032254,0.066773,0.002667,0.067617,0.055607,0.0060961,0.0036949
0.032535,0.071237,0.002472,0.070535,0.053387,0.0061987,0.0034174
0.032932,0.075817,0.002278,0.073306,0.051349,0.0062587,0.0031286
0.033730,0.080775,0.002067,0.075987,0.050067,0.0061905,0.0028062
0.034781,0.085960,0.001853,0.078163,0.049187,0.0060274,0.0024781
0.035875,0.090655,0.001642,0.080582,0.048373,0.0058590,0.0021551
0.037111,0.095642,0.001412,0.082625,0.047221,0.0056179,0.0018473
0.038184,0.099933,0.001194,0.084781,0.046117,0.0054379,0.0015468
0.039145,0.104018,0.001010,0.086893,0.045638,0.0052846,0.0012341
0.040264,0.108391,0.000822,0.088522,0.045226,0.0050391,0.0010480
0.041664,0.112627,0.000649,0.089340,0.044821,0.0047083,0.0008738
0.042948,0.116740,0.000622,0.089655,0.044468,0.0043689,0.0006978
0.043877,0.120531,0.000631,0.091147,0.043748,0.0040552,0.0005505
0.044813,0.123752,0.000627,0.092747,0.043069,0.0037210,0.0004368
0.045721,0.125938,0.000620,0.093944,0.042254,0.0034616,0.0003456
0.046811,0.128310,0.000601,0.094938,0.041466,0.0032208,0.0002502
0.047700,0.130104,0.000584,0.095471,0.040536,0.0029735,0.0002364
0.048389,0.131631,0.000579,0.095298,0.039279,0.0026684,0.0002958
0.049145,0.133648,0.000566,0.095385,0.037585,0.0023286,0.0003622
0.050058,0.136135,0.000541,0.095753,0.035675,0.0020003,0.0004058
0.050716,0.137729,0.000525,0.096569,0.034097,0.0017530,0.0004550
0.051430,0.139555,0.000513,0.096492,0.032529,0.0014166,0.0005158
0.052097,0.141119,0.000495,0.096083,0.030771,0.0010974,0.0005899
0.052713,0.142893,0.000470,0.095498,0.028880,0.0008056,0.0006503
0.052859,0.144126,0.000454,0.095310,0.026817,0.0007275,0.0006981
0.052788,0.144809,0.000433,0.095526,0.024789,0.0007298,0.0007493
0.052902,0.145605,0.000409,0.095014,0.022946,0.0006465,0.0008056
0.052640,0.145366,0.000409,0.094479,0.021172,0.0007257,0.0008681
0.052323,0.145458,0.000411,0.093493,0.019330,0.0007965,0.0009360
0.051795,0.144856,0.000417,0.092181,0.017443,0.0009803,0.0009989
0.051071,0.143705,0.000431,0.091091,0.015699,0.0011776,0.0010560
0.050294,0.142696,0.000446,0.090616,0.014093,0.0013463,0.0011164
0.049480,0.141254,0.000451,0.089725,0.012796,0.0015951,0.0011677
0.048775,0.139266,0.000458,0.087659,0.011813,0.0019034,0.0012017
0.048042,0.137369,0.000464,0.085288,0.010703,0.0022388,0.0012169
0.047174,0.134540,0.000474,0.082962,0.009759,0.0026738,0.0012405
0.046080,0.130444,0.000498,0.080647,0.008990,0.0031087,0.0012905
0.044703,0.125206,0.000526,0.078319,0.008437,0.0037319,0.0013266
0.043670,0.119579,0.000543,0.075417,0.008152,0.0043370,0.0013666
0.042872,0.112931,0.000552,0.071951,0.007847,0.0050004,0.0014285
0.042121,0.105288,0.000642,0.067547,0.007420,0.0056646,0.0015388
0.040357,0.097688,0.000890,0.062993,0.006894,0.0063752,0.0019451
0.038278,0.089968,0.001161,0.058716,0.006561,0.0070368,0.0025610
0.036360,0.082760,0.001432,0.054435,0.006185,0.0076233,0.0032676
0.034391,0.075316,0.001718,0.050286,0.005791,0.0082022,0.0040371
0.032549,0.067900,0.001958,0.045818,0.005352,0.0086165,0.0049323
0.030711,0.060540,0.002080,0.041406,0.004934,0.0090724,0.0056612
0.028666,0.053238,0.002180,0.037387,0.004554,0.0096259,0.0064015
0.026805,0.046522,0.002272,0.033208,0.004253,0.0101070,0.0071911
0.025048,0.040209,0.002351,0.029257,0.003845,0.0105305,0.0082100
0.023520,0.034283,0.002428,0.025679,0.003497,0.0107576,0.0093071
0.021595,0.028863,0.002508,0.022153,0.003189,0.0109740,0.0106695
0.019683,0.023426,0.002578,0.018709,0.002930,0.0111955,0.0119221
0.018011,0.018563,0.002629,0.015760,0.002681,0.0113790,0.0131447
0.016530,0.014525,0.002680,0.013191,0.002507,0.0114625,0.0142509
0.015236,0.010474,0.002721,0.010954,0.002396,0.0115918,0.0151791
0.013933,0.007097,0.002759,0.008793,0.002257,0.0117425,0.0159496
0.012718,0.004270,0.002779,0.006637,0.002182,0.0118832,0.0167155
0.011869,0.002833,0.002797,0.004651,0.002134,0.0117342,0.0176410
0.010851,0.001977,0.002826,0.003189,0.002160,0.0115613,0.0186504
0.009504,0.001708,0.002875,0.001924,0.002710,0.0112944,0.0197136
0.007675,0.002179,0.002872,0.001522,0.003487,0.0109816,0.0207588
0.007015,0.002379,0.002716,0.001361,0.004243,0.0106929,0.0214995
0.006911,0.002379,0.002528,0.001396,0.004845,0.0105670,0.0217134
0.006809,0.002379,0.002335,0.001480,0.005596,0.0104984,0.0218339
0.006687,0.002379,0.002126,0.001676,0.005969,0.0105897,0.0216227
0.006630,0.002379,0.001963,0.001835,0.006264,0.0107385,0.0213920
0.006629,0.002379,0.001925,0.001799,0.006497,0.0108004,0.0212655
0.006611,0.002379,0.001908,0.001759,0.006705,0.0107979,0.0212230
0.006592,0.002379,0.001883,0.001843,0.006866,0.0107723,0.0211601
0.006585,0.002379,0.001855,0.001877,0.006951,0.0108628,0.0208898
0.006483,0.002379,0.001824,0.001847,0.007085,0.0110838,0.0204102
0.006661,0.001838,0.001781,0.001847,0.007219,0.0112438,0.0200244
0.006772,0.001417,0.001766,0.001847,0.007270,0.0114399,0.0197781
0.006810,0.001073,0.001774,0.001850,0.007327,0.0116326,0.0194370
0.006851,0.000699,0.001781,0.001827,0.007320,0.0117939,0.0192904
0.006801,0.000699,0.001801,0.001846,0.007377,0.0118280,0.0192795
0.006712,0.000699,0.001819,0.001942,0.007556,0.0118190,0.0191286
0.006528,0.000699,0.001842,0.002037,0.007689,0.0118667,0.0190064
0.006427,0.000699,0.001847,0.001980,0.007621,0.0120790,0.0188610
0.006395,0.000699,0.001829,0.001975,0.007640,0.0124200,0.0183735
0.006026,0.001218,0.001808,0.002022,0.007222,0.0128087,0.0180336
0.005921,0.001284,0.001775,0.001992,0.006745,0.0132689,0.0176557
0.005936,0.001266,0.001733,0.001914,0.006137,0.0136460,0.0172620
0.005607,0.001784,0.001688,0.001841,0.005846,0.0141264,0.0169280
0.005261,0.002377,0.001643,0.001721,0.005455,0.0148255,0.0165186
0.004964,0.002905,0.001609,0.001517,0.005429,0.0153958,0.0162829
0.004606,0.003545,0.001577,0.001283,0.005441,0.0160788,0.0160210
0.004228,0.004173,0.001525,0.001132,0.005459,0.0170782,0.0156903
0.003892,0.004747,0.001498,0.001034,0.005499,0.0178685,0.0153731
0.003595,0.005234,0.001500,0.000898,0.005673,0.0184904,0.0150847
0.003259,0.005734,0.001507,0.000864,0.006004,0.0190954,0.0147689
0.002984,0.006174,0.001515,0.000864,0.006246,0.0197664,0.0145148
0.002990,0.006174,0.001537,0.000864,0.006358,0.0203129,0.0139682
0.002945,0.006245,0.001582,0.000930,0.006468,0.0207037,0.0134414
0.002960,0.006251,0.001622,0.001008,0.006475,0.0210195,0.0131002
0.002948,0.006251,0.001656,0.001165,0.006375,0.0212129,0.0126874
0.002907,0.006251,0.001678,0.001284,0.006307,0.0214387,0.0122001
0.002863,0.006251,0.001721,0.001312,0.006166,0.0215156,0.0120880
0.002688,0.006532,0.001769,0.001316,0.006027,0.0217039,0.0119234
0.002613,0.006553,0.001784,0.001478,0.006124,0.0218859,0.0114066
0.002295,0.007059,0.001807,0.001430,0.006149,0.0222271,0.0111423
0.002295,0.007052,0.001814,0.001383,0.006187,0.0227951,0.0106427
0.002295,0.007060,0.001801,0.001324,0.006215,0.0233973,0.0100403
0.002078,0.007481,0.001767,0.001246,0.006414,0.0241146,0.0095090
0.002078,0.007560,0.001760,0.001117,0.006394,0.0246742,0.0092329
0.002078,0.007541,0.001753,0.001072,0.006420,0.0248664,0.0089942
0.002145,0.007386,0.001757,0.001045,0.006360,0.0248863,0.0090336
0.002145,0.007300,0.001797,0.001059,0.006387,0.0247346,0.0090275
0.002145,0.007224,0.001884,0.001120,0.006372,0.0243279,0.0091744
0.002365,0.006766,0.001939,0.001323,0.006313,0.0240422,0.0092235
0.002333,0.006784,0.001971,0.001516,0.006182,0.0240190,0.0091858
0.002333,0.006720,0.002094,0.001815,0.005986,0.0237673,0.0090895
0.002300,0.006720,0.002224,0.002144,0.005784,0.0234512,0.0090815
0.002001,0.007113,0.002287,0.002491,0.005744,0.0234153,0.0089509
0.001749,0.007471,0.002340,0.002701,0.005759,0.0235238,0.0087852
0.001444,0.007833,0.002452,0.002921,0.005852,0.0235474,0.0085871
0.001163,0.008229,0.002554,0.002967,0.006034,0.0237232,0.0084602
0.000902,0.008597,0.002649,0.003012,0.006180,0.0237558,0.0085167
0.000655,0.008956,0.002874,0.003025,0.006220,0.0237715,0.0085699
0.000565,0.009129,0.003147,0.002940,0.006160,0.0237112,0.0086429
0.000335,0.009489,0.003393,0.003094,0.005952,0.0236353,0.0089390
0.000335,0.009306,0.003571,0.003594,0.005753,0.0234797,0.0091212
0.000335,0.009150,0.003751,0.004030,0.005556,0.0233798,0.0091836
0.000335,0.008985,0.003888,0.004409,0.005356,0.0232336,0.0093569
0.000335,0.008674,0.003973,0.004935,0.005226,0.0228684,0.0094431
0.000335,0.008332,0.004176,0.005444,0.005120,0.0223261,0.0094946
0.000344,0.008120,0.004588,0.005603,0.004965,0.0216360,0.0096175
0.000481,0.007748,0.005063,0.005798,0.004894,0.0208758,0.0095535
0.000713,0.007194,0.005578,0.006135,0.004729,0.0201229,0.0094687
0.000978,0.006642,0.006136,0.006388,0.004626,0.0193506,0.0093083
0.000932,0.006526,0.006569,0.006955,0.004670,0.0187595,0.0091188
0.001168,0.006021,0.007038,0.007533,0.004732,0.0181419,0.0088577
0.001350,0.005585,0.007396,0.008168,0.004787,0.0177498,0.0086412
0.001582,0.005145,0.007626,0.008688,0.004882,0.0174343,0.0083983
0.001837,0.004752,0.008061,0.009140,0.004831,0.0170878,0.0081922
0.002199,0.004323,0.009232,0.009514,0.004920,0.0168088,0.0081069
0.002699,0.003955,0.010435,0.009500,0.005339,0.0166703,0.0081884
0.003386,0.003559,0.012090,0.009356,0.006292,0.0164785,0.0083359
0.004075,0.003191,0.014002,0.009106,0.007597,0.0162758,0.0084555
0.004796,0.002832,0.015869,0.009056,0.009372,0.0162038,0.0085654
0.005591,0.002378,0.017952,0.009042,0.011675,0.0160600,0.0086720
0.006343,0.001997,0.020075,0.008972,0.014063,0.0158988,0.0089435
0.007003,0.001673,0.022035,0.009023,0.017419,0.0154476,0.0092457
0.007437,0.001628,0.023861,0.009149,0.020749,0.0145634,0.0096970
0.007740,0.001718,0.025708,0.009419,0.023877,0.0136205,0.0102625
0.008009,0.001793,0.027625,0.009624,0.027259,0.0127958,0.0109390
0.008431,0.001639,0.029422,0.009956,0.030633,0.0121539,0.0114857
0.008877,0.001283,0.030991,0.010868,0.034084,0.0117783,0.0119781
0.009106,0.001283,0.032440,0.011726,0.038369,0.0116341,0.0125008
0.009324,0.001320,0.033887,0.012285,0.042442,0.0115208,0.0129786
0.009267,0.001831,0.035137,0.012957,0.046213,0.0113899,0.0135645
0.009251,0.002462,0.036131,0.013275,0.050212,0.0112161,0.0140719
0.009015,0.003441,0.037180,0.013453,0.053621,0.0109470,0.0148393
0.008834,0.004382,0.038242,0.013585,0.056803,0.0106557,0.0156321
0.008873,0.005126,0.039522,0.013745,0.060616,0.0102952,0.0162741
0.009158,0.005500,0.040490,0.013928,0.065197,0.0100069,0.0167479
0.009284,0.005864,0.040373,0.014410,0.069466,0.0096387,0.0171697
0.009151,0.006444,0.040429,0.015058,0.073300,0.0092323,0.0174518
0.008550,0.007733,0.040167,0.015938,0.076351,0.0089183,0.0176348
0.007956,0.009178,0.039552,0.017310,0.079123,0.0087572,0.0178984
0.007580,0.010131,0.038737,0.018471,0.081604,0.0085760,0.0181833
0.007355,0.010634,0.037648,0.019525,0.083489,0.0083421,0.0184468
0.007355,0.010984,0.036669,0.020098,0.084993,0.0081803,0.0183524
0.007472,0.011153,0.035935,0.020914,0.085438,0.0082039,0.0182019
0.007649,0.010880,0.035170,0.021904,0.085551,0.0084479,0.0180494
0.007907,0.010526,0.034542,0.022846,0.085020,0.0086883,0.0177835
0.008204,0.010387,0.033931,0.023582,0.084425,0.0089112,0.0174286
0.008547,0.010286,0.033060,0.024390,0.084414,0.0090814,0.0172525
0.008898,0.010280,0.031977,0.025033,0.084129,0.0091961,0.0170795
0.009174,0.010280,0.030913,0.025234,0.083012,0.0093031,0.0167945
0.009405,0.010242,0.029676,0.025890,0.082085,0.0094651,0.0163995
0.010005,0.009732,0.028505,0.026704,0.081851,0.0096688,0.0159259
0.010872,0.009101,0.027575,0.027858,0.081712,0.0098211,0.0155296
0.011925,0.008121,0.026560,0.028996,0.082564,0.0099819,0.0149035
0.012958,0.007180,0.025549,0.030288,0.083548,0.0100783,0.0142732
0.013701,0.006437,0.024295,0.031656,0.083480,0.0101671,0.0138362
0.014199,0.006063,0.023180,0.033045,0.082997,0.0101660,0.0135953
0.014920,0.006198,0.022428,0.034581,0.082443,0.0101043,0.0131555
0.015724,0.005816,0.021400,0.036503,0.081681,0.0100975,0.0125849
0.016736,0.004698,0.020235,0.038409,0.081016,0.0100996,0.0119272
0.017748,0.003532,0.019174,0.039697,0.080165,0.0101049,0.0111527
0.018404,0.003153,0.018214,0.040867,0.078723,0.0100435,0.0103792
0.018915,0.003337,0.017189,0.042329,0.077557,0.0099916,0.0096602
0.019254,0.003775,0.016078,0.043692,0.076443,0.0098293,0.0090930
0.019701,0.004578,0.015000,0.044158,0.075499,0.0095203,0.0086580
0.020461,0.006093,0.014130,0.044526,0.074987,0.0091035,0.0082112
0.021144,0.007553,0.013183,0.045552,0.074943,0.0087701,0.0077849
0.021606,0.008583,0.012110,0.046458,0.074529,0.0085067,0.0073960
0.021894,0.010422,0.011233,0.047113,0.073562,0.0081733,0.0070247
0.022124,0.012602,0.010560,0.048398,0.073053,0.0079093,0.0066779
0.022538,0.014986,0.009905,0.050353,0.072961,0.0076016,0.0064192
0.023288,0.016891,0.009332,0.052212,0.073387,0.0072936,0.0061807
0.023796,0.018394,0.008820,0.053418,0.072946,0.0070164,0.0059357
0.024186,0.020226,0.008413,0.054178,0.072025,0.0067538,0.0057075
0.024535,0.022646,0.007948,0.055645,0.070552,0.0065632,0.0055173
0.024926,0.024910,0.007507,0.057474,0.069119,0.0065021,0.0052965
0.025434,0.027186,0.007160,0.058690,0.067936,0.0064257,0.0050670
0.025830,0.029505,0.006835,0.060082,0.066243,0.0063952,0.0048434
0.026011,0.030992,0.006468,0.061382,0.064775,0.0064748,0.0047047
0.026567,0.033171,0.006112,0.061852,0.063457,0.0064238,0.0046089
0.027099,0.035579,0.005766,0.062367,0.062300,0.0063806,0.0045375
0.027536,0.037818,0.005428,0.063206,0.060858,0.0063898,0.0044753
0.028013,0.039556,0.005131,0.064871,0.059813,0.0065044,0.0043023
0.028538,0.041648,0.004904,0.066455,0.058570,0.0065628,0.0041003
0.029296,0.044549,0.004673,0.068184,0.057565,0.0065351,0.0039114
0.029826,0.047268,0.004347,0.070009,0.056565,0.0064975,0.0037259
0.030237,0.049746,0.003983,0.071994,0.055440,0.0064621,0.0035331
0.030935,0.052303,0.003600,0.072998,0.054578,0.0063455,0.0033279
0.031949,0.055697,0.003329,0.074360,0.053999,0.0061546,0.0030528
0.033050,0.059095,0.003094,0.075864,0.053343,0.0059352,0.0027329
0.034109,0.062405,0.002891,0.076929,0.052031,0.0057583,0.0023932
0.035021,0.065513,0.002696,0.077814,0.050164,0.0056335,0.0020689
0.036005,0.070179,0.002463,0.077881,0.047676,0.0054332,0.0018764
0.037146,0.075474,0.002218,0.078455,0.045769,0.0051652,0.0017017
0.038272,0.079996,0.002019,0.078700,0.043985,0.0049231,0.0015327
0.039297,0.084229,0.001885,0.079052,0.042422,0.0046607,0.0013796
0.040478,0.089306,0.001726,0.078532,0.040824,0.0042828,0.0012500
0.041436,0.094686,0.001621,0.078881,0.039251,0.0038993,0.0010991
0.042346,0.100316,0.001528,0.079295,0.037724,0.0035650,0.0009393
0.043104,0.105623,0.001438,0.079561,0.036088,0.0033042,0.0008073
0.043644,0.110716,0.001347,0.080172,0.034516,0.0030548,0.0007076
0.044635,0.116729,0.001241,0.080501,0.033102,0.0026612,0.0006178
0.045362,0.122261,0.001139,0.080908,0.032249,0.0023288,0.0005234
0.045885,0.127250,0.001004,0.080571,0.031424,0.0020785,0.0004454
0.046050,0.131431,0.000879,0.080745,0.030513,0.0020437,0.0003623
0.045825,0.135019,0.000766,0.080891,0.029266,0.0021738,0.0002908
0.045458,0.138583,0.000708,0.081334,0.027886,0.0024788,0.0002059
0.045060,0.142029,0.000656,0.081359,0.026575,0.0028210,0.0001323
0.044540,0.144646,0.000600,0.081039,0.025402,0.0031453,0.0000722
0.043688,0.146338,0.000550,0.080448,0.024137,0.0035985,0.0000569
0.042696,0.146322,0.000502,0.079878,0.022992,0.0042423,0.0000658
0.041727,0.145476,0.000457,0.078885,0.021939,0.0049026,0.0001014
0.040953,0.144090,0.000408,0.077541,0.020876,0.0055558,0.0001468
0.040024,0.141127,0.000407,0.076822,0.019926,0.0062839,0.0002328
0.038973,0.136864,0.000422,0.075335,0.018907,0.0070842,0.0003911
0.038177,0.131750,0.000431,0.073283,0.017757,0.0078334,0.0006046
0.037537,0.125230,0.000433,0.070293,0.016445,0.0085543,0.0009157
0.036315,0.117888,0.000476,0.067279,0.015255,0.0092352,0.0013259
0.035141,0.110233,0.000527,0.063927,0.014119,0.0098949,0.0018704
0.033873,0.102284,0.000587,0.060224,0.013176,0.0103792,0.0025904
0.032184,0.094990,0.000663,0.056335,0.012372,0.0107992,0.0034425
0.030333,0.087520,0.000745,0.052677,0.011701,0.0112526,0.0043653
0.028129,0.078927,0.000846,0.049233,0.010798,0.0118264,0.0053139
0.026274,0.070878,0.000935,0.045538,0.009675,0.0122768,0.0063023
0.024699,0.063578,0.000998,0.041897,0.008597,0.0126394,0.0073579
0.023354,0.056617,0.001057,0.037728,0.007574,0.0129471,0.0083422
0.022087,0.049339,0.001117,0.033682,0.006907,0.0131620,0.0093778
0.021064,0.042084,0.001170,0.029579,0.006327,0.0132622,0.0103931
0.020098,0.034581,0.001214,0.025675,0.005738,0.0133057,0.0115031
0.019085,0.027829,0.001267,0.022374,0.005086,0.0133883,0.0127074
0.018257,0.021540,0.001321,0.019259,0.004391,0.0133305,0.0138797
0.017496,0.016320,0.001373,0.016065,0.003694,0.0131687,0.0149647
0.016808,0.011676,0.001417,0.013005,0.003348,0.0129730,0.0159272
0.015924,0.007569,0.001472,0.010216,0.003062,0.0127604,0.0169537
0.014776,0.004036,0.001531,0.007445,0.002759,0.0125222,0.0181007
0.013746,0.001501,0.001574,0.005387,0.002547,0.0122936,0.0189082
0.012392,0.000261,0.001613,0.004217,0.002440,0.0120880,0.0197021
0.010981,0.000128,0.001660,0.003344,0.002461,0.0119085,0.0203139
0.009955,0.000128,0.001691,0.002717,0.002431,0.0117297,0.0209190
0.009004,0.000139,0.001707,0.002155,0.002431,0.0116099,0.0214216
0.008330,0.000139,0.001699,0.001683,0.002444,0.0116877,0.0216327
0.008245,0.000139,0.001679,0.001337,0.002407,0.0118724,0.0215723
0.008199,0.000139,0.001648,0.001057,0.002191,0.0121193,0.0214411
0.007779,0.000802,0.001618,0.000812,0.002143,0.0125429,0.0212624
0.007363,0.001426,0.001579,0.000623,0.002128,0.0130029,0.0209850
